#  k  (h/Mpc)          P(k)  (Mpc/h)^3     P_linear(k)   P_NL(k) (Mpc/h)^3
     0.00783031         1471.95          1486.8          1486.8 
       0.013688         1879.82         1880.63         1880.63 
       0.019231         1939.32          1938.8          1938.8 
      0.0249154         1814.34         1826.19         1826.19 
      0.0312784         1615.68         1618.05         1618.05 
      0.0375637         1415.24          1411.9          1411.9 
      0.0433917         1252.62         1256.09         1256.09 
      0.0492413         1140.26         1139.96         1139.96 
      0.0555754         1042.46         1048.92         1048.92 
      0.0619321         979.619         975.592         975.592 
       0.067871          904.47         908.749         908.749 
      0.0738098         831.611         836.247         836.247 
      0.0800417         748.045         754.522         754.522 
      0.0862327          671.03         673.865         673.865 
      0.0921407         604.309         604.502         604.502 
      0.0982031         544.194         546.026         546.026 
       0.104506         503.364         500.211         500.211 
       0.110769         469.615         467.383         467.383 
       0.116806         442.466         443.249         443.249 
       0.122832         423.071         421.765         421.765 
       0.129052         397.091         398.553         398.553 
       0.135211         371.555         372.896         372.896 
       0.141259         346.938         345.737         345.737 
       0.147318         321.582         318.576         318.576 
       0.153489         295.091          293.27          293.27 
       0.159709         274.577         271.834         271.834 
       0.165845         260.371         255.146         255.146 
       0.171974         245.088         242.264         242.264 
       0.178125         234.885         231.802         231.802 
       0.184229         226.075         222.376         222.376 
        0.19034         213.605         212.722         212.722 
       0.196428         205.392         202.336         202.336 
       0.202534         196.301         191.248         191.248 
       0.208729         184.118         179.889         179.889 
       0.214876         172.471         169.235         169.235 
       0.220989         165.331         159.815         159.815 
       0.227147         155.401          151.76          151.76 
        0.23329         148.887         145.061         145.061 
       0.239377         143.906         139.394         139.394 
       0.245482         137.118         134.234         134.234 
       0.251667         133.589         129.145         129.145 
       0.257832         128.395         123.965         123.965 
       0.263955         123.057         118.673         118.673 
       0.270079         118.042         113.353         113.353 
        0.27624         114.101         108.171         108.171 
       0.282372         109.238         103.375         103.375 
        0.28843         104.482         99.0997         99.0997 
       0.294538         100.491         95.2662         95.2662 
       0.300721         97.9792          91.802          91.802 
        0.30691         93.8906         88.6221         88.6221 
       0.313033         90.9686         85.6329         85.6329 
       0.319153         86.8216         82.7032         82.7032 
       0.325316         85.3026         79.7719         79.7719 
        0.33145         82.0108         76.8802         76.8802 
       0.337538         79.6555         74.0824         74.0824 
       0.343633          76.755         71.4061         71.4061 
       0.349808         74.4087         68.8642         68.8642 
       0.355968         72.2131         66.5172         66.5172 
       0.362074         69.9291         64.3639         64.3639 
       0.368217         67.8916         62.3441         62.3441 
       0.374374         65.7837         60.4252         60.4252 
       0.380519         64.1283         58.5814         58.5814 
       0.386598         62.3538         56.8064         56.8064 
       0.392688         60.9474         55.0677         55.0677 
        0.39888         59.0805          53.348          53.348 
       0.405048         57.6017         51.6952         51.6952 
       0.411186         56.1902         50.1216         50.1216 
       0.417313         54.3052         48.6315         48.6315 
       0.423458         52.9375         47.2171         47.2171 
       0.429607         51.4735         45.8748         45.8748 
       0.435692         49.9483         44.6099         44.6099 
       0.441815         49.0563         43.3882         43.3882 
       0.447964         48.1929         42.2024         42.2024 
       0.454126         46.3228         41.0509         41.0509 
       0.460267         45.4345         39.9385         39.9385 
       0.466387         44.1039         38.8648         38.8648 
        0.47254         43.3873         37.8231         37.8231 
       0.478662         42.5566         36.8274         36.8274 
       0.484765         41.3568         35.8755         35.8755 
       0.490885         40.3992         34.9598         34.9598 
       0.497035         39.8159         34.0759         34.0759 
       0.503198         38.7875          33.224          33.224 
       0.509342         37.8136         32.4046         32.4046 
       0.515458         36.9836         31.6151         31.6151 
       0.521598         36.3426         30.8466         30.8466 
       0.527764          35.547         30.0989         30.0989 
       0.533884         34.9158         29.3808         29.3808 
           0.54         34.1719          28.687          28.687 
       0.546137           33.58          28.014          28.014 
       0.552299         33.0049         27.3611         27.3611 
       0.558452          31.984         26.7317         26.7317 
       0.564573         31.5407         26.1265         26.1265 
       0.570708         31.0088         25.5397         25.5397 
       0.576825         30.2112         24.9729         24.9729 
       0.582926         29.6772         24.4245         24.4245 
       0.589034         28.8614         23.8915         23.8915 
       0.595184         28.4763         23.3706         23.3706 
       0.601379         27.9398         22.8618         22.8618 
       0.607522         27.4483         22.3726         22.3726 
       0.613639         27.1543         21.9002         21.9002 
       0.619772         26.4404         21.4408         21.4408 
       0.625918         26.2709         20.9939         20.9939 
       0.632068          25.831         20.5599         20.5599 
       0.638161         25.2487         20.1422         20.1422 
         0.6443         24.7409         19.7334         19.7334 
       0.650464         24.2842         19.3345         19.3345 
       0.656582         24.1172         18.9497         18.9497 
       0.662703         23.6603         18.5754         18.5754 
       0.668861         23.2145         18.2091         18.2091 
       0.675024         22.7866         17.8526         17.8526 
       0.681124         22.3979         17.5094         17.5094 
       0.687237          22.026         17.1746         17.1746 
       0.693381         21.7921         16.8472         16.8472 
       0.699536         21.2243         16.5278         16.5278 
       0.705665         21.0795         16.2183         16.2183 
       0.711789         20.6608         15.9171         15.9171 
       0.717957         20.3617         15.6216         15.6216 
        0.72409         20.0381         15.3354         15.3354 
       0.730186         19.7745         15.0582         15.0582 
       0.736317         19.5447         14.7865         14.7865 
       0.742472          19.217         14.5205         14.5205 
       0.748622          18.971         14.2615         14.2615 
        0.75476         18.5833         14.0094         14.0094 
       0.760888         18.3642         13.7638         13.7638 
       0.767043         18.1342         13.5233         13.5233 
       0.773185          17.781          13.289          13.289 
       0.779291           17.66         13.0618         13.0618 
       0.785407         17.4134         12.8395         12.8395 
       0.791564         17.1001         12.6212         12.6212 
       0.797719         16.7774          12.408          12.408 
       0.803834          16.704         12.2013         12.2013 
       0.809972         16.5447         11.9985         11.9985 
       0.816124         16.1449            11.8            11.8 
       0.822261          15.985         11.6066         11.6066 
       0.828378         15.8003         11.4181         11.4181 
       0.834502         15.6373         11.2337         11.2337 
       0.840667         15.3992         11.0523         11.0523 
       0.846816         15.1257         10.8754         10.8754 
       0.852925         14.9858         10.7036         10.7036 
       0.859047         14.8051         10.5351         10.5351 
       0.865192         14.6661         10.3698         10.3698 
       0.871341         14.5194          10.208          10.208 
       0.877463         14.2693         10.0503         10.0503 
       0.883569          14.055          9.8965          9.8965 
       0.889708         13.8311         9.74514         9.74514 
       0.895864         13.7432         9.59659         9.59659 
       0.902008         13.6144          9.4515          9.4515 
       0.908149         13.4539         9.30952         9.30952 
       0.914301         13.3068         9.17027         9.17027 
       0.920448         13.0668         9.03403         9.03403 
       0.926574         12.9385         8.90107         8.90107 
       0.932687         12.8094          8.7711          8.7711 
       0.938823         12.6331          8.6433          8.6433 
       0.944975          12.467         8.51778         8.51778 
       0.951105         12.3644         8.39523         8.39523 
       0.957225         12.2695         8.27533         8.27533 
       0.963368         12.1084          8.1574          8.1574 
       0.969511         11.9952         8.04179         8.04179 
       0.975621         11.8605         7.92907         7.92907 
       0.981748         11.7211         7.81824         7.81824 
       0.987916          11.617         7.70886         7.70886 
        0.99406         11.4462           7.602           7.602 
        1.00019         11.2674          7.4974          7.4974 
        1.00632         11.2489         7.39489         7.39489 
        1.01246         11.1188         7.29417         7.29417 
        1.01859         10.9487          7.1955          7.1955 
        1.02471         10.8755         7.09881         7.09881 
        1.03085         10.7666         7.00357         7.00357 
        1.03698         10.6001         6.91031         6.91031 
        1.04314         10.5324         6.81836         6.81836 
        1.04929         10.3903         6.72833         6.72833 
        1.05541         10.2734         6.64029         6.64029 
        1.06154         10.1903         6.55364         6.55364 
        1.06769         10.1405         6.46841         6.46841 
        1.07382         9.98356         6.38499         6.38499 
        1.07993          9.8981         6.30325         6.30325 
        1.08607         9.81236         6.22261         6.22261 
        1.09222         9.71775         6.14332         6.14332 
        1.09836         9.60443         6.06552         6.06552 
        1.10449         9.52049         5.98917         5.98917 
        1.11063         9.42817         5.91406         5.91406 
        1.11677         9.36333         5.84028         5.84028 
         1.1229         9.28318          5.7679          5.7679 
        1.12903         9.17959          5.6967          5.6967 
        1.13518         9.07021         5.62665         5.62665 
        1.14131         8.98352         5.55783         5.55783 
        1.14745         8.89475         5.49022         5.49022 
        1.15359         8.83904         5.42373         5.42373 
        1.15973         8.75617         5.35832         5.35832 
        1.16584         8.63003          5.2943          5.2943 
        1.17197         8.57159         5.23124         5.23124 
        1.17811         8.52353         5.16903         5.16903 
        1.18424           8.445         5.10802         5.10802 
        1.19038         8.39565         5.04782         5.04782 
        1.19652         8.30193         4.98864         4.98864 
        1.20267          8.2024          4.9304          4.9304 
        1.20881         8.17562         4.87313         4.87313 
        1.21495           8.102         4.81686         4.81686 
        1.22108         8.00191         4.76149         4.76149 
         1.2272         7.95424         4.70714         4.70714 
        1.23334         7.85353         4.65352         4.65352 
        1.23949         7.79251         4.60061         4.60061 
        1.24562         7.75165         4.54869         4.54869 
        1.25174         7.67659         4.49765         4.49765 
        1.25789         7.61928         4.44724         4.44724 
        1.26402         7.57286          4.3977          4.3977 
        1.27014         7.50038         4.34905         4.34905 
        1.27628         7.41771         4.30099         4.30099 
        1.28244         7.33885         4.25357         4.25357 
        1.28858         7.32766         4.20694         4.20694 
        1.29471         7.24507         4.16111         4.16111 
        1.30084         7.17254         4.11601         4.11601 
        1.30697         7.16874         4.07152         4.07152 
        1.31312           7.036         4.02763         4.02763 
        1.31925         7.00179         3.98453         3.98453 
        1.32537         6.94487         3.94211         3.94211 
        1.33151         6.92123         3.90015         3.90015 
        1.33765         6.83526         3.85884         3.85884 
        1.34378         6.78154         3.81822         3.81822 
        1.34992         6.74252         3.77816         3.77816 
        1.35606         6.67944         3.73859         3.73859 
         1.3622         6.64189         3.69966         3.69966 
        1.36833         6.58387         3.66138         3.66138 
        1.37445         6.53841         3.62368         3.62368 
        1.38059         6.51338         3.58639         3.58639 
        1.38675         6.45017         3.54954         3.54954 
        1.39288         6.40394         3.51336         3.51336 
        1.39901         6.33269         3.47771         3.47771 
        1.40515         6.30362         3.44247         3.44247 
         1.4113         6.25767         3.40774         3.40774 
        1.41742           6.211         3.37363         3.37363 
        1.42355          6.1526         3.33992         3.33992 
         1.4297         6.10774         3.30657         3.30657 
        1.43585         6.08459          3.2737          3.2737 
        1.44198         6.05539         3.24141         3.24141 
        1.44809         5.98805         3.20961         3.20961 
        1.45423         5.93969         3.17813         3.17813 
        1.46036         5.89865         3.14713         3.14713 
        1.46649         5.85418         3.11654         3.11654 
        1.47263         5.80574         3.08633         3.08633 
        1.47877         5.76624         3.05654         3.05654 
        1.48491         5.73177          3.0271          3.0271 
        1.49104          5.6939         2.99811         2.99811 
        1.49718         5.65544         2.96949         2.96949 
        1.50333         5.62078         2.94119         2.94119 
        1.50947         5.57416         2.91333         2.91333 
         1.5156         5.54099         2.88587         2.88587 
        1.52172         5.50879         2.85876         2.85876 
        1.52787         5.47351         2.83196         2.83196 
          1.534          5.4263         2.80553         2.80553 
        1.54013         5.40262         2.77947         2.77947 
        1.54627         5.34774         2.75369         2.75369 
        1.55241         5.31435         2.72824         2.72824 
        1.55855         5.29302         2.70315         2.70315 
        1.56467         5.25084         2.67844         2.67844 
         1.5708         5.22192         2.65398         2.65398 
        1.57695         5.17338         2.62979         2.62979 
        1.58308         5.13665         2.60595         2.60595 
        1.58922          5.1213          2.5824          2.5824 
        1.59535         5.09168         2.55915         2.55915 
         1.6015         5.04933         2.53616         2.53616 
        1.60764         5.01356         2.51346         2.51346 
        1.61376         4.98616          2.4911          2.4911 
        1.61989         4.95749           2.469           2.469 
        1.62604         4.91816         2.44712         2.44712 
        1.63218         4.90457         2.42553         2.42553 
        1.63831         4.87034         2.40424         2.40424 
        1.64444         4.83904          2.3832          2.3832 
        1.65059          4.7856         2.36237         2.36237 
        1.65673         4.77923         2.34181         2.34181 
        1.66285         4.72962         2.32156         2.32156 
        1.66898         4.71017         2.30154         2.30154 
        1.67512         4.68075         2.28171         2.28171 
        1.68127         4.65215         2.26211         2.26211 
         1.6874         4.63274         2.24278         2.24278 
        1.69353         4.59204         2.22369         2.22369 
        1.69967         4.56964         2.20478         2.20478 
        1.70581         4.54302         2.18609         2.18609 
        1.71193         4.51736          2.1677          2.1677 
        1.71806         4.49416         2.14948         2.14948 
        1.72421         4.46162         2.13144         2.13144 
        1.73035         4.44455         2.11362         2.11362 
        1.73649         4.41319         2.09601         2.09601 
        1.74262          4.3785         2.07862         2.07862 
        1.74876         4.36582         2.06142         2.06142 
        1.75489         4.34407         2.04445         2.04445 
        1.76101          4.3035         2.02767         2.02767 
        1.76715         4.28911         2.01106         2.01106 
        1.77329         4.26769         1.99462         1.99462 
        1.77943         4.22427         1.97836         1.97836 
        1.78557           4.216         1.96231         1.96231 
        1.79171         4.18642         1.94643         1.94643 
        1.79785         4.16349         1.93072         1.93072 
        1.80399         4.13602         1.91519         1.91519 
        1.81012          4.1182         1.89986         1.89986 
        1.81625          4.0914          1.8847          1.8847 
        1.82239         4.07105         1.86969         1.86969 
        1.82853         4.04625         1.85484         1.85484 
        1.83466          4.0329         1.84018         1.84018 
        1.84078         4.01077         1.82569         1.82569 
        1.84692         3.99255         1.81133         1.81133 
        1.85306         3.95688         1.79711         1.79711 
         1.8592         3.93266         1.78306         1.78306 
        1.86533         3.91489         1.76918         1.76918 
        1.87147         3.89988         1.75543         1.75543 
        1.87761         3.87435         1.74181         1.74181 
