#  k  (h/Mpc)          P(k)  (Mpc/h)^3     P_linear(k)   P_NL(k) (Mpc/h)^3
     0.00783031         14753.9         14971.7         14971.7 
       0.013688         19090.7           18924           18924 
       0.019231         19517.5         19503.3         19503.3 
      0.0249154         17953.8         18367.4         18367.4 
      0.0312784         16049.6         16272.1         16272.1 
      0.0375637         14143.8         14197.9         14197.9 
      0.0433917         12338.3         12630.6         12630.6 
      0.0492413         11312.2         11462.4         11462.4 
      0.0555754         10146.3         10546.7         10546.7 
      0.0619321         9744.39         9809.21         9809.21 
       0.067871         8806.52            9137            9137 
      0.0738098         8106.52         8407.92         8407.92 
      0.0800417          7230.4         7586.16         7586.16 
      0.0862327         6557.93         6775.16         6775.16 
      0.0921407         6004.71         6077.73         6077.73 
      0.0982031          5404.2         5489.78         5489.78 
       0.104506         5108.78         5029.13         5029.13 
       0.110769         4758.06         4699.05         4699.05 
       0.116806         4491.56          4456.4          4456.4 
       0.122832         4282.04         4240.39         4240.39 
       0.129052         3964.92            4007            4007 
       0.135211          3740.1         3749.05         3749.05 
       0.141259         3562.68         3475.98         3475.98 
       0.147318         3348.54         3202.91         3202.91 
       0.153489         3071.35         2948.48         2948.48 
       0.159709         2915.42         2732.96         2732.96 
       0.165845         2823.23         2565.18         2565.18 
       0.171974         2675.94         2435.66         2435.66 
       0.178125         2553.69         2330.48         2330.48 
       0.184229         2448.25          2235.7          2235.7 
        0.19034         2315.98         2138.65         2138.65 
       0.196428         2266.75         2034.23         2034.23 
       0.202534         2176.42         1922.75         1922.75 
       0.208729         2078.14         1808.56         1808.56 
       0.214876         1994.22         1701.44         1701.44 
       0.220989         1929.52         1606.73         1606.73 
       0.227147          1850.7         1525.75         1525.75 
        0.23329         1783.33          1458.4          1458.4 
       0.239377         1760.36         1401.42         1401.42 
       0.245482         1654.23         1349.55         1349.55 
       0.251667         1645.68         1298.39         1298.39 
       0.257832         1581.64          1246.3          1246.3 
       0.263955         1529.78          1193.1          1193.1 
       0.270079         1479.86         1139.61         1139.61 
        0.27624         1463.17         1087.52         1087.52 
       0.282372         1402.37         1039.31         1039.31 
        0.28843         1397.52         996.307         996.307 
       0.294538         1330.52         957.779         957.779 
       0.300721         1324.03         922.941         922.941 
        0.30691         1273.08          890.98          890.98 
       0.313033         1248.65         860.918         860.918 
       0.319153         1231.03         831.475         831.475 
       0.325316          1190.3         801.993         801.993 
        0.33145         1164.93         772.932         772.932 
       0.337538         1145.19         744.795         744.795 
       0.343633         1120.87         717.895         717.895 
       0.349808         1084.84         692.334         692.334 
       0.355968         1077.64          668.74          668.74 
       0.362074         1067.72         647.094         647.094 
       0.368217         1034.92         626.782         626.782 
       0.374374         996.786         607.498         607.498 
       0.380519         999.522         588.955         588.955 
       0.386598         972.429         571.109         571.109 
       0.392688          968.58         553.634         553.634 
        0.39888         941.762         536.339         536.339 
       0.405048         930.364         519.725         519.725 
       0.411186         917.722         503.908         503.908 
       0.417313         899.028         488.919         488.919 
       0.423458         883.926         474.704         474.704 
       0.429607         872.716         461.211         461.211 
       0.435692         855.138          448.49          448.49 
       0.441815         849.202         436.207         436.207 
       0.447964         831.114         424.291         424.291 
       0.454126         824.061         412.709         412.709 
       0.460267         804.911         401.524         401.524 
       0.466387         795.595         390.734         390.734 
        0.47254         789.389         380.263         380.263 
       0.478662         782.537         370.247         370.247 
       0.484765         761.037         360.676         360.676 
       0.490885         756.459         351.474         351.474 
       0.497035         740.642         342.588         342.588 
       0.503198         736.249         334.021         334.021 
       0.509342         728.389         325.781         325.781 
       0.515458         724.824         317.846         317.846 
       0.521598         707.524         310.122         310.122 
       0.527764         693.904         302.605         302.605 
       0.533884         693.103         295.382         295.382 
           0.54         685.847         288.406         288.406 
       0.546137         680.183         281.642         281.642 
       0.552299         670.924         275.081         275.081 
       0.558452         666.528         268.752         268.752 
       0.564573         657.583         262.666         262.666 
       0.570708         650.725         256.765         256.765 
       0.576825         633.076         251.066         251.066 
       0.582926         636.375         245.555         245.555 
       0.589034         630.037         240.197         240.197 
       0.595184         623.974         234.961         234.961 
       0.601379         615.569         229.845         229.845 
       0.607522         607.462         224.925         224.925 
       0.613639         607.781         220.174         220.174 
       0.619772         593.887         215.555         215.555 
       0.625918           591.1         211.064         211.064 
       0.632068         583.442         206.702         206.702 
       0.638161         581.459         202.504         202.504 
         0.6443         571.005         198.393         198.393 
       0.650464         569.221         194.383         194.383 
       0.656582         565.406         190.513         190.513 
       0.662703         562.789         186.749         186.749 
       0.668861         553.106         183.066         183.066 
       0.675024         548.716         179.482         179.482 
       0.681124         545.384         176.031         176.031 
       0.687237         540.748         172.666         172.666 
       0.693381          534.19         169.375         169.375 
       0.699536         525.698         166.165         166.165 
       0.705665         525.216         163.053         163.053 
       0.711789          521.91         160.025         160.025 
       0.717957         517.055         157.055         157.055 
        0.72409         514.682         154.177         154.177 
       0.730186         506.898          151.39          151.39 
       0.736317         503.936         148.658         148.658 
       0.742472         501.617         145.984         145.984 
       0.748622         495.874         143.379         143.379 
        0.75476         488.828         140.844         140.844 
       0.760888         484.595         138.375         138.375 
       0.767043         485.017         135.957         135.957 
       0.773185         479.789         133.602         133.602 
       0.779291         474.814         131.317         131.317 
       0.785407         471.345         129.084         129.084 
       0.791564          466.09         126.888         126.888 
       0.797719         464.013         124.746         124.746 
       0.803834         459.431         122.667         122.667 
       0.809972          458.06         120.628         120.628 
       0.816124         456.814         118.633         118.633 
       0.822261         450.139         116.688         116.688 
       0.828378         447.627         114.793         114.793 
       0.834502         443.211          112.94          112.94 
       0.840667         439.604         111.115         111.115 
       0.846816         437.551         109.337         109.337 
       0.852925         434.032         107.609         107.609 
       0.859047         432.896         105.916         105.916 
       0.865192         427.536         104.254         104.254 
       0.871341         424.075         102.627         102.627 
       0.877463         423.437         101.042         101.042 
       0.883569         419.367         99.4956         99.4956 
       0.889708         416.598         97.9738         97.9738 
       0.895864         414.327         96.4803         96.4803 
       0.902008         411.225         95.0216         95.0216 
       0.908149         406.637         93.5942         93.5942 
       0.914301         404.083         92.1942         92.1942 
       0.920448         401.876         90.8246         90.8246 
       0.926574         395.795         89.4878         89.4878 
       0.932687         396.133         88.1812         88.1812 
       0.938823         391.737         86.8963         86.8963 
       0.944975         392.158         85.6343         85.6343 
       0.951105         387.065         84.4023         84.4023 
       0.957225         384.711         83.1969         83.1969 
       0.963368         380.565         82.0113         82.0113 
       0.969511         379.435          80.849          80.849 
       0.975621         376.823         79.7157         79.7157 
       0.981748             375         78.6015         78.6015 
       0.987916         372.801         77.5018         77.5018 
        0.99406         366.668         76.4276         76.4276 
        1.00019         365.579          75.376          75.376 
        1.00632         363.885         74.3454         74.3454 
        1.01246         361.006         73.3327         73.3327 
        1.01859         361.204         72.3407         72.3407 
        1.02471         356.039         71.3686         71.3686 
        1.03085         354.031         70.4111         70.4111 
        1.03698         353.016         69.4734         69.4734 
        1.04314         349.633          68.549          68.549 
        1.04929         346.262         67.6438         67.6438 
        1.05541         346.908         66.7587         66.7587 
        1.06154         341.228         65.8875         65.8875 
        1.06769         339.934         65.0307         65.0307 
        1.07382         337.793         64.1921         64.1921 
        1.07993         335.658         63.3703         63.3703 
        1.08607         334.774         62.5597         62.5597 
        1.09222         331.527         61.7625         61.7625 
        1.09836         329.462         60.9803         60.9803 
        1.10449         326.296         60.2127         60.2127 
        1.11063          323.08         59.4576         59.4576 
        1.11677         323.202         58.7159         58.7159 
         1.1229         321.063         57.9882         57.9882 
        1.12903         318.642         57.2724         57.2724 
        1.13518         315.743         56.5682         56.5682 
        1.14131         314.235         55.8763         55.8763 
        1.14745         312.495         55.1965         55.1965 
        1.15359         310.464          54.528          54.528 
        1.15973         308.291         53.8705         53.8705 
        1.16584         306.133         53.2268         53.2268 
        1.17197         305.735         52.5928         52.5928 
        1.17811         302.169         51.9674         51.9674 
        1.18424         299.887          51.354          51.354 
        1.19038         298.795         50.7488         50.7488 
        1.19652         296.504         50.1538         50.1538 
        1.20267         295.675         49.5683         49.5683 
        1.20881         293.575         48.9924         48.9924 
        1.21495         291.184         48.4267         48.4267 
        1.22108          289.58         47.8701         47.8701 
         1.2272         287.707         47.3236         47.3236 
        1.23334         285.953         46.7845         46.7845 
        1.23949         284.163         46.2526         46.2526 
        1.24562          282.87         45.7305         45.7305 
        1.25174         280.505         45.2174         45.2174 
        1.25789         278.134         44.7106         44.7106 
        1.26402         276.383         44.2126         44.2126 
        1.27014         274.658         43.7234         43.7234 
        1.27628         273.114         43.2403         43.2403 
        1.28244          272.59         42.7636         42.7636 
        1.28858         269.834         42.2948         42.2948 
        1.29471         267.964         41.8341         41.8341 
        1.30084         266.455         41.3807         41.3807 
        1.30697         264.895         40.9335         40.9335 
        1.31312         262.235         40.4922         40.4922 
        1.31925         261.681         40.0589         40.0589 
        1.32537         260.479         39.6324         39.6324 
        1.33151         257.867         39.2107         39.2107 
        1.33765         256.082         38.7953         38.7953 
        1.34378         255.267         38.3869         38.3869 
        1.34992         253.622         37.9841         37.9841 
        1.35606         252.937         37.5863         37.5863 
         1.3622         250.665          37.195          37.195 
        1.36833         248.584         36.8101         36.8101 
        1.37445         247.447          36.431          36.431 
        1.38059         245.244         36.0561         36.0561 
        1.38675          244.37         35.6857         35.6857 
        1.39288         242.748         35.3219         35.3219 
        1.39901         241.984         34.9635         34.9635 
        1.40515         239.934         34.6092         34.6092 
         1.4113         238.618         34.2601         34.2601 
        1.41742         236.796         33.9171         33.9171 
        1.42355         235.583         33.5782         33.5782 
         1.4297         233.637          33.243          33.243 
        1.43585         232.493         32.9125         32.9125 
        1.44198         231.273         32.5878         32.5878 
        1.44809         229.928         32.2681         32.2681 
        1.45423         228.396         31.9516         31.9516 
        1.46036         227.213         31.6399         31.6399 
        1.46649         225.306         31.3324         31.3324 
        1.47263         224.092         31.0287         31.0287 
        1.47877         222.709         30.7291         30.7291 
        1.48491          220.78         30.4332         30.4332 
        1.49104          220.15         30.1417         30.1417 
        1.49718         218.174         29.8539         29.8539 
        1.50333         217.406         29.5694         29.5694 
        1.50947         215.944         29.2893         29.2893 
         1.5156         213.968         29.0132         29.0132 
        1.52172         213.138         28.7407         28.7407 
        1.52787         211.581         28.4712         28.4712 
          1.534         210.848         28.2055         28.2055 
        1.54013         209.051         27.9435         27.9435 
        1.54627          208.02         27.6844         27.6844 
        1.55241         206.698         27.4285         27.4285 
        1.55855         205.276         27.1763         27.1763 
        1.56467         203.959         26.9279         26.9279 
         1.5708         203.417          26.682          26.682 
        1.57695         201.767         26.4388         26.4388 
        1.58308         200.626         26.1992         26.1992 
        1.58922           198.8         25.9624         25.9624 
        1.59535         197.351         25.7287         25.7287 
         1.6015         196.946         25.4975         25.4975 
        1.60764         195.524         25.2693         25.2693 
        1.61376         194.353         25.0446         25.0446 
        1.61989          193.25         24.8224         24.8224 
        1.62604         191.978         24.6024         24.6024 
        1.63218         190.895         24.3853         24.3853 
        1.63831         189.496         24.1713         24.1713 
        1.64444         188.694         23.9598         23.9598 
        1.65059         187.369         23.7503         23.7503 
        1.65673         186.117         23.5436         23.5436 
        1.66285         184.971           23.34           23.34 
        1.66898         183.787         23.1387         23.1387 
        1.67512         183.419         22.9394         22.9394 
        1.68127          181.35         22.7423         22.7423 
         1.6874         180.529          22.548          22.548 
        1.69353         179.494         22.3561         22.3561 
        1.69967          177.95          22.166          22.166 
        1.70581         177.345         21.9782         21.9782 
        1.71193         175.829         21.7932         21.7932 
        1.71806         175.354         21.6101         21.6101 
        1.72421         173.967         21.4286         21.4286 
        1.73035         173.174         21.2495         21.2495 
        1.73649         172.172         21.0725         21.0725 
        1.74262         170.954         20.8977         20.8977 
        1.74876         169.919         20.7247         20.7247 
        1.75489         168.857         20.5541         20.5541 
        1.76101         167.539         20.3854         20.3854 
        1.76715         167.122         20.2185         20.2185 
        1.77329         166.074         20.0532         20.0532 
        1.77943         165.097         19.8897         19.8897 
        1.78557         164.065         19.7282         19.7282 
        1.79171         163.197         19.5686         19.5686 
        1.79785         161.849         19.4107         19.4107 
        1.80399         160.995         19.2546         19.2546 
        1.81012         159.991         19.1004         19.1004 
        1.81625         159.362          18.948          18.948 
        1.82239         158.108          18.797          18.797 
        1.82853         157.635         18.6478         18.6478 
        1.83466         156.275         18.5003         18.5003 
        1.84078          155.67         18.3547         18.3547 
        1.84692         154.075         18.2103         18.2103 
        1.85306         153.814         18.0673         18.0673 
         1.8592         152.669         17.9262         17.9262 
        1.86533         151.824         17.7866         17.7866 
        1.87147          150.71         17.6483         17.6483 
        1.87761         149.974         17.5115         17.5115 
