#  k  (h/Mpc)          P(k)  (Mpc/h)^3     P_linear(k)   P_NL(k) (Mpc/h)^3
     0.00783031         15356.1           15580         15433.3 
       0.013688         17517.7         17351.4           17223 
       0.019231         16094.4         16018.4         15906.3 
      0.0249154         13275.2         13485.2         13409.7 
      0.0312784         10543.4         10579.8         10547.5 
      0.0375637         8406.93         8329.61         8319.91 
      0.0433917         6901.85         6932.01         6920.15 
      0.0492413          6101.1         6076.74         6068.69 
      0.0555754         5447.04         5534.98         5526.67 
      0.0619321         5208.72         5143.67         5133.62 
       0.067871         4692.74          4750.2         4745.64 
      0.0738098         4223.39         4265.25         4239.54 
      0.0800417         3638.36         3685.67         3685.74 
      0.0862327         3134.18         3120.93         3166.53 
      0.0921407         2744.52         2666.45            2725 
      0.0982031            2383          2324.3         2414.99 
       0.104506         2216.45         2099.38          2207.3 
       0.110769         2067.31         1973.53         2050.75 
       0.116806         1972.22          1898.1         1958.43 
       0.122832          1894.3         1824.41         1880.06 
       0.129052         1751.48         1719.95         1769.11 
       0.135211         1624.43         1580.98         1637.55 
       0.141259         1507.16         1423.68          1501.3 
       0.147318         1374.54         1268.23         1373.27 
       0.153489         1232.53         1132.96         1228.19 
       0.159709         1147.47         1031.29         1138.66 
       0.165845         1092.73         964.717         1087.24 
       0.171974         1038.43          922.92         1031.56 
       0.178125         996.899          892.98         1005.38 
       0.184229         957.506         862.903          963.43 
        0.19034         895.624         824.365         917.903 
       0.196428         867.255          775.65         864.794 
       0.202534         826.339         720.011         817.791 
       0.208729         771.186          663.22          760.89 
       0.214876         725.327         612.818          728.79 
       0.220989         692.242          572.28         694.021 
       0.227147          660.17         541.663         663.605 
        0.23329         632.908         519.265         643.649 
       0.239377         618.293         501.612         619.118 
       0.245482         576.768         484.815         592.331 
       0.251667         570.489          466.08         576.811 
       0.257832          546.52          444.71          551.07 
       0.263955         524.608         421.451         527.428 
       0.270079         500.629          397.83         506.245 
        0.27624         490.828          375.55         483.516 
       0.282372         470.834         356.143         467.617 
        0.28843         457.085         340.152         452.685 
       0.294538         433.304         326.834         438.449 
       0.300721         429.187         315.344         426.137 
        0.30691         409.453         304.706         416.733 
       0.313033         400.086         294.181         401.549 
       0.319153         386.283          283.17         389.085 
       0.325316         375.171         271.641         378.079 
        0.33145         362.038         260.057         362.718 
       0.337538         354.952         248.978         351.757 
       0.343633         342.991         238.703         345.654 
       0.349808         330.036         229.377         337.269 
       0.355968         325.833         221.126         329.535 
       0.362074          319.62         213.783         320.836 
       0.368217         310.072         206.943         310.495 
       0.374374         296.215         200.329         302.768 
       0.380519         293.614         193.798         294.486 
       0.386598          285.33          187.33         290.316 
       0.392688         281.705         180.897          280.82 
        0.39888         273.917         174.538         274.432 
       0.405048         266.665           168.5         269.195 
       0.411186         261.531         162.876         261.432 
       0.417313         256.017          157.68         255.222 
       0.423458         249.841         152.835         250.493 
       0.429607         245.357         148.281         245.514 
       0.435692         238.253         143.987         238.968 
       0.441815         235.549         139.795         236.111 
       0.447964         229.908         135.676         231.419 
       0.454126         222.849         131.643         224.377 
       0.460267         218.903         127.736         222.371 
       0.466387         216.033         123.976         217.721 
        0.47254         210.869         120.362         213.347 
       0.478662         210.195          116.95         208.964 
       0.484765          202.31         113.724         204.174 
       0.490885         199.612         110.641         200.953 
       0.497035         195.936         107.674         197.921 
       0.503198         191.917         104.814         194.657 
       0.509342         189.941         102.055         191.566 
       0.515458         186.883         99.3839         188.943 
       0.521598          182.31         96.7782         184.931 
       0.527764         180.087         94.2466         182.557 
       0.533884         177.537          91.825          179.75 
           0.54         174.537         89.4987         176.174 
       0.546137         173.006         87.2534         174.025 
       0.552299         169.323         85.0848         170.563 
       0.558452          167.82         83.0012         167.923 
       0.564573         165.147         81.0026         166.323 
       0.570708         161.334         79.0663         164.131 
       0.576825         158.943         77.1958         160.597 
       0.582926         156.403         75.3848         158.674 
       0.589034         154.622         73.6246         156.933 
       0.595184         152.749         71.9071         153.629 
       0.601379         150.279         70.2336         152.043 
       0.607522         147.855         68.6298         149.421 
       0.613639         146.316         67.0866         148.469 
       0.619772         143.383         65.5896          146.63 
       0.625918         142.112         64.1367         144.003 
       0.632068         139.819         62.7271         141.896 
       0.638161         138.743         61.3716         141.034 
         0.6443         136.637         60.0457         139.034 
       0.650464         135.123         58.7536         136.076 
       0.656582         132.942         57.5087         135.057 
       0.662703          132.24         56.2998         133.295 
       0.668861         129.857         55.1193         132.004 
       0.675024         127.792         53.9724          130.35 
       0.681124         126.902         52.8701         128.489 
       0.687237         125.004         51.7969         126.987 
       0.693381         122.943         50.7487         125.251 
       0.699536         122.012         49.7278         124.007 
       0.705665         120.993         48.7395         122.868 
       0.711789         119.075         47.7789         121.521 
       0.717957         118.753         46.8377         120.202 
        0.72409         116.798         45.9272         119.135 
       0.730186          115.07         45.0465         117.835 
       0.736317         113.932         44.1843         116.241 
       0.742472         112.965         43.3417         115.045 
       0.748622         111.843         42.5221         113.706 
        0.75476          110.62         41.7256         112.772 
       0.760888         109.303         40.9509         111.044 
       0.767043         108.747          40.193         110.304 
       0.773185         107.627          39.456         109.497 
       0.779291         105.542         38.7418          108.07 
       0.785407         105.107         38.0443         106.792 
       0.791564         104.242         37.3597         105.975 
       0.797719         102.057         36.6923         105.292 
       0.803834         101.608         36.0456         104.043 
       0.809972         100.729         35.4122         103.071 
       0.816124         99.9984         34.7926         102.222 
       0.822261         99.0679         34.1897         101.227 
       0.828378          98.181         33.6029         99.9764 
       0.834502         97.6817         33.0294         99.0215 
       0.840667         96.0392         32.4657         98.3999 
       0.846816         95.0115         31.9168         97.5761 
       0.852925            94.4          31.384         96.7616 
       0.859047          93.364         30.8624         95.8641 
       0.865192          92.395          30.351         94.8439 
       0.871341         91.6335         29.8508          93.949 
       0.877463         90.5003         29.3643         93.3315 
       0.883569         90.3972         28.8899         92.8312 
       0.889708         89.3603         28.4236         91.7904 
       0.895864         88.3583         27.9664         91.2277 
       0.902008         87.7312         27.5203         90.2506 
       0.908149         87.2542         27.0842         89.5197 
       0.914301          86.179         26.6569         88.7371 
       0.920448         85.5559         26.2392         88.1737 
       0.926574          84.778          25.832         87.3173 
       0.932687         84.6975         25.4344         86.8053 
       0.938823         83.3155         25.0437         85.9506 
       0.944975         82.5209         24.6603         85.2691 
       0.951105         81.9588         24.2864         84.5469 
       0.957225         81.3225          23.921         83.9789 
       0.963368         80.2169         23.5618         83.2435 
       0.969511         80.1277           23.21         82.5515 
       0.975621         79.4921         22.8674         82.4055 
       0.981748         79.0312         22.5308         81.7396 
       0.987916         78.1359         22.1989         81.0777 
        0.99406         77.5019         21.8749         80.3053 
        1.00019         77.2307         21.5581         79.6299 
        1.00632         76.3002         21.2478         79.0663 
        1.01246         75.9789         20.9433         78.3142 
        1.01859         75.1929         20.6452         78.0872 
        1.02471         74.4492         20.3533         77.7239 
        1.03085         73.8373         20.0661         77.0755 
        1.03698         73.5868          19.785         76.5335 
        1.04314         72.8317         19.5082         75.8958 
        1.04929         72.4627         19.2373         75.5448 
        1.05541         71.6695         18.9726         75.1402 
        1.06154         71.4587         18.7124         74.5619 
        1.06769         71.0431         18.4566         74.0903 
        1.07382         70.4183         18.2064         73.6426 
        1.07993         69.9993         17.9615         73.1167 
        1.08607          69.331           17.72         72.5833 
        1.09222         69.2218         17.4828         72.1593 
        1.09836          68.491         17.2501         71.5809 
        1.10449         68.0137          17.022         71.2591 
        1.11063         67.4724         16.7978         70.5467 
        1.11677         67.0365         16.5777         70.1271 
         1.1229         66.5056         16.3619         69.8606 
        1.12903         66.0155         16.1498         69.2936 
        1.13518         65.8635         15.9413         68.8908 
        1.14131         65.3606         15.7366         68.3456 
        1.14745         64.8995         15.5356         68.0507 
        1.15359         64.4525         15.3381         67.6378 
        1.15973         64.0591          15.144         67.3884 
        1.16584          63.484         14.9541          66.686 
        1.17197         63.0729         14.7671         66.5424 
        1.17811         62.7884         14.5829         66.0313 
        1.18424         62.2818         14.4023         65.6387 
        1.19038         62.0714         14.2242          65.308 
        1.19652         61.6198         14.0493         64.8655 
        1.20267         60.9009         13.8772          64.539 
        1.20881         60.7398         13.7081         64.0502 
        1.21495          60.185         13.5421         63.7545 
        1.22108         60.0721         13.3789         63.4333 
         1.2272         59.3252         13.2188         63.0227 
        1.23334         59.0317         13.0609         62.8186 
        1.23949         58.8205         12.9053         62.2655 
        1.24562         58.2935         12.7526         61.8125 
        1.25174         58.0583         12.6026         61.5421 
        1.25789           57.78         12.4546         61.2023 
        1.26402         57.1621         12.3092         60.9865 
        1.27014         56.9582         12.1665         60.7244 
        1.27628          56.602         12.0256         60.3825 
        1.28244         56.2221         11.8867         59.8979 
        1.28858         56.0446         11.7502         59.5523 
        1.29471          55.702         11.6162         59.2925 
        1.30084         55.3687         11.4843         58.8195 
        1.30697         54.9255         11.3543         58.6394 
        1.31312          54.583         11.2261           58.41 
        1.31925         54.2656         11.1003         58.0281 
        1.32537         53.9574         10.9766         57.7973 
        1.33151         53.5035         10.8543         57.4306 
        1.33765         53.3487         10.7339         57.1453 
        1.34378         53.0321         10.6156          56.884 
        1.34992          52.698          10.499         56.5002 
        1.35606         52.3677          10.384         56.2391 
         1.3622         51.9638         10.2708         55.9968 
        1.36833         51.8364         10.1596         55.6585 
        1.37445         51.4412         10.0501         55.4624 
        1.38059         51.0276         9.94189          55.081 
        1.38675         50.7813         9.83501         54.7943 
        1.39288         50.5656         9.73013         54.4686 
        1.39901         50.2738         9.62683         54.2725 
        1.40515         49.8943          9.5248         54.1328 
         1.4113          49.675         9.42429         53.8957 
        1.41742         49.5374         9.32562         53.5025 
        1.42355         49.1788         9.22817         53.1916 
         1.4297          49.008         9.13182         53.0031 
        1.43585         48.6577         9.03689         52.6567 
        1.44198         48.2553         8.94367         52.4873 
        1.44809         48.1138         8.85195          52.212 
        1.45423         47.8682         8.76117         51.9057 
        1.46036         47.5591         8.67183         51.6821 
        1.46649          47.275         8.58371         51.5134 
        1.47263          46.999         8.49674          51.279 
        1.47877         46.7119         8.41102         50.8877 
        1.48491         46.5547         8.32634         50.7113 
        1.49104         46.3009         8.24302         50.5531 
        1.49718         45.9464         8.16077         50.2587 
        1.50333         45.8751         8.07952         50.0035 
        1.50947         45.5186         7.99953         49.7925 
         1.5156          45.323         7.92076         49.5576 
        1.52172         45.0494         7.84304         49.3038 
        1.52787         44.9158         7.76621         49.1146 
          1.534         44.5166          7.6905         48.9227 
        1.54013         44.2665         7.61588          48.668 
        1.54627         44.1779         7.54212         48.4177 
        1.55241         43.7359         7.46932         48.2051 
        1.55855         43.5827         7.39758         48.0103 
        1.56467         43.3481         7.32698          47.825 
         1.5708         43.2309          7.2571         47.5739 
        1.57695         43.0798         7.18803         47.3886 
        1.58308         42.7505         7.12002         47.2198 
        1.58922         42.4404         7.05283         46.9479 
        1.59535         42.3678         6.98654         46.7742 
         1.6015         41.9727         6.92101          46.523 
        1.60764         41.8346         6.85635          46.292 
        1.61376         41.6144         6.79269         46.2035 
        1.61989         41.3896         6.72979         45.9824 
        1.62604         41.1641         6.66755         45.6909 
        1.63218         41.1127         6.60613         45.4842 
        1.63831         40.6803         6.54563           45.37 
        1.64444         40.5422         6.48586         45.1716 
        1.65059         40.4844          6.4267         44.9266 
        1.65673         40.1434         6.36834         44.7253 
        1.66285         39.8668         6.31087         44.5784 
        1.66898         39.8153         6.25409         44.4232 
        1.67512         39.4428         6.19789         44.1938 
        1.68127         39.3282         6.14234         43.9678 
         1.6874         39.1288         6.08759         43.7981 
        1.69353         38.9085         6.03354         43.6624 
        1.69967         38.7648         5.98002         43.4724 
        1.70581         38.6247         5.92718         43.2872 
        1.71193          38.415         5.87517         43.1277 
        1.71806         38.0834         5.82367         42.9523 
        1.72421         38.0264         5.77269         42.7706 
        1.73035         37.8223         5.72237         42.5746 
        1.73649         37.5492         5.67267         42.3815 
        1.74262          37.385         5.62359         42.2334 
        1.74876         37.1754         5.57507         42.0673 
        1.75489         37.0736         5.52721         41.8831 
        1.76101         36.9026         5.47993         41.7003 
        1.76715         36.6426         5.43314         41.5124 
        1.77329         36.4319         5.38684         41.3657 
        1.77943         36.2656         5.34106         41.2233 
        1.78557           36.08         5.29588         41.0386 
        1.79171         35.9705         5.25122          40.863 
        1.79785         35.7207         5.20706         40.7057 
        1.80399         35.6865         5.16342         40.5474 
        1.81012         35.3725         5.12033          40.384 
        1.81625         35.2049         5.07776         40.2093 
        1.82239         35.0499         5.03561         40.0587 
        1.82853         34.8843         4.99396         39.9581 
        1.83466         34.6344         4.95282         39.7822 
        1.84078         34.4483         4.91218         39.5697 
        1.84692         34.3494         4.87194         39.4705 
        1.85306         34.1548         4.83209         39.3257 
         1.8592         33.9828         4.79276         39.1252 
        1.86533         33.7987         4.75388          38.977 
        1.87147         33.6209         4.71539         38.8196 
        1.87761          33.524         4.67731         38.6631 
