# k  (h/Mpc)    Pcb(k)  (Mpc/h)^3    Pcb_linear(k) (Mpc/h)^3    Pcb_NL(k) (Mpc/h)^3   ShotnoiseSubtracted = false
     0.00783031         3151.84         3189.09         3160.75 
       0.013688         3559.39         3554.12         3531.85 
       0.019231         3288.61         3281.97         3263.93 
      0.0249154         2745.95         2763.35         2754.26 
      0.0312784         2170.58          2168.2         2169.32 
      0.0375637         1717.99         1707.15         1709.82 
      0.0433917         1421.33         1420.75         1423.41 
      0.0492413         1249.34          1245.5         1248.04 
      0.0555754         1128.37         1134.48         1135.14 
      0.0619321         1061.63         1054.29          1053.9 
       0.067871         969.622         973.655         972.709 
      0.0738098         870.592          874.26         872.457 
      0.0800417         750.878         755.469         755.344 
      0.0862327          640.13         639.714         642.221 
      0.0921407         551.031         546.561         550.069 
      0.0982031         478.324         476.429         481.599 
       0.104506         437.652         430.326         436.191 
       0.110769          409.78         404.532         408.601 
       0.116806         391.192         389.071         391.939 
       0.122832          377.39         373.967         376.404 
       0.129052         352.709         352.553         354.444 
       0.135211         324.797          324.07         326.404 
       0.141259         295.573         291.827          295.21 
       0.147318          265.53         259.964         265.035 
       0.153489         236.987         232.235         236.814 
       0.159709         217.009         211.395         216.622 
       0.165845          204.83         197.747         203.877 
       0.171974         193.871         189.181         194.359 
       0.178125         187.739         183.044         188.361 
       0.184229         181.502         176.879         181.605 
        0.19034         170.831         168.979         173.204 
       0.196428         162.876         158.996         162.675 
       0.202534         153.453         147.591         151.754 
       0.208729         141.128         135.949         140.439 
       0.214876         130.323         125.616         131.256 
       0.220989         123.221         117.306         123.236 
       0.227147         115.937         111.033         116.788 
        0.23329         111.144         106.441         112.371 
       0.239377         107.791         102.821          108.45 
       0.245482         102.591         99.3807         104.205 
       0.251667         99.8909         95.5393         100.608 
       0.257832         95.5739         91.1568         95.9664 
       0.263955         90.7661         86.3918          91.111 
       0.270079         86.0886         81.5476          86.399 
        0.27624         82.5153         76.9817         81.7797 
       0.282372         78.6763         73.0033         78.1717 
        0.28843         74.9273         69.7244         74.9356 
       0.294538         71.7776         66.9969          72.119 
       0.300721         70.0116         64.6392          69.795 
        0.30691         67.0557         62.4606         67.5541 
       0.313033         64.7892         60.3011           65.08 
       0.319153         61.6384         58.0469         62.7939 
       0.325316         60.3474         55.6808         60.5394 
        0.33145         57.5743          53.308         58.0007 
       0.337538         55.6811         51.0363         55.6637 
       0.343633         53.3177         48.9297         53.6508 
       0.349808         51.5061         47.0191         51.9058 
       0.355968         49.9831         45.3264         50.4267 
       0.362074         48.2831         43.8231         48.6831 
       0.368217         46.6658         42.4194          46.947 
       0.374374          45.179         41.0643         45.6262 
       0.380519         43.9632         39.7258         44.1218 
       0.386598         42.6027         38.3986         42.8221 
       0.392688         41.5199         37.0818         41.5212 
        0.39888         40.0938         35.7775         40.1823 
       0.405048         38.9146         34.5387         38.8474 
       0.411186         37.7848         33.3879         37.8767 
       0.417313         36.5235         32.3218         36.6543 
       0.423458          35.467         31.3279         35.6853 
       0.429607         34.4465         30.3958         34.6434 
       0.435692         33.3365         29.5153         33.7427 
       0.441815         32.6618          28.655         32.9596 
       0.447964         31.9605         27.8115         31.9563 
       0.454126          30.581         26.9856         31.0354 
       0.460267         30.0028         26.1834          30.372 
       0.466387          29.053         25.4124           29.45 
        0.47254         28.4601         24.6726          28.754 
       0.478662          27.903         23.9735          28.009 
       0.484765         26.9828         23.3111         27.2228 
       0.490885         26.3363         22.6791         26.7209 
       0.497035         25.9052         22.0718         26.1501 
       0.503198         25.1494          21.486         25.3823 
       0.509342         24.4814         20.9195         24.8364 
       0.515458          23.861         20.3714         24.3758 
       0.521598         23.3939         19.8377         23.6229 
       0.527764         22.8307         19.3195         22.9993 
       0.533884         22.4127         18.8233         22.5015 
           0.54         21.8201         18.3457         22.0188 
       0.546137         21.4334         17.8849         21.5994 
       0.552299         21.0131         17.4405         20.9913 
       0.558452         20.3435         17.0141         20.5441 
       0.564573         19.9932         16.6049         20.2197 
       0.570708         19.5995         16.2078         19.7829 
       0.576825         19.1022         15.8238         19.3472 
       0.582926         18.6751         15.4521         18.9555 
       0.589034         18.1471         15.0913         18.6515 
       0.595184         17.8868         14.7396         18.1399 
       0.601379         17.4679         14.3971         17.8966 
       0.607522         17.1286         14.0686         17.4467 
       0.613639         16.9019         13.7522         17.1137 
       0.619772         16.4444          13.445         16.8307 
       0.625918         16.2923         13.1468         16.4994 
       0.632068         16.0141         12.8575         16.1396 
       0.638161          15.608         12.5797         15.8424 
         0.6443         15.2804         12.3081         15.5105 
       0.650464         14.9523         12.0435         15.2862 
       0.656582         14.8274         11.7886          15.003 
       0.662703         14.5158          11.541         14.6907 
       0.668861         14.2107          11.299         14.4981 
       0.675024         13.9182         11.0638         14.1564 
       0.681124          13.668         10.8377         13.9107 
       0.687237         13.3982         10.6175         13.6448 
       0.693381           13.23         10.4025         13.3887 
       0.699536         12.8795         10.1931         13.2015 
       0.705665         12.7761         9.99048          13.025 
       0.711789         12.4703         9.79362         12.7297 
       0.717957         12.2584         9.60077         12.5288 
        0.72409         12.0606         9.41423         12.3498 
       0.730186         11.8768          9.2338         12.1198 
       0.736317         11.7147         9.05715         11.9082 
       0.742472         11.4957         8.88449         11.7578 
       0.748622         11.3381         8.71651         11.5469 
        0.75476         11.1018         8.55326         11.3639 
       0.760888         10.9129         8.39446         11.2056 
       0.767043         10.7571         8.23908         11.0361 
       0.773185         10.5434         8.08797         10.8538 
       0.779291         10.4535         7.94154          10.707 
       0.785407         10.3214         7.79853         10.5213 
       0.791564         10.1171         7.65817         10.3706 
       0.797719         9.85964         7.52135         10.2135 
       0.803834         9.83148         7.38876         10.0439 
       0.809972         9.71151         7.25891         9.92589 
       0.816124         9.47423         7.13192         9.75742 
       0.822261         9.33891         7.00832         9.61176 
       0.828378          9.2351         6.88804         9.46983 
       0.834502           9.131         6.77049         9.35085 
       0.840667          8.9632         6.65493         9.20363 
       0.846816         8.78378         6.54241         9.08124 
       0.852925          8.6914         6.43321         8.98904 
       0.859047         8.57048         6.32629         8.85251 
       0.865192         8.47682         6.22146         8.72181 
       0.871341         8.36917         6.11895         8.61869 
       0.877463         8.21928         6.01922          8.4925 
       0.883569          8.0892         5.92197          8.3692 
       0.889708         7.93994         5.82639         8.26572 
       0.895864         7.85072         5.73267         8.14457 
       0.902008         7.78176         5.64122          8.0516 
       0.908149         7.68777         5.55183         7.93973 
       0.914301         7.59984         5.46424         7.87534 
       0.920448          7.4533         5.37863         7.73372 
       0.926574         7.36477         5.29516         7.64126 
       0.932687         7.25925         5.21364         7.50786 
       0.938823         7.15853         5.13356         7.43563 
       0.944975          7.0618         5.05498         7.35483 
       0.951105         6.97592         4.97833         7.23208 
       0.957225         6.91097         4.90342         7.17349 
       0.963368         6.82739         4.82979          7.0717 
       0.969511         6.74429         4.75769         6.99132 
       0.975621         6.66683         4.68745         6.90112 
       0.981748         6.56238         4.61845         6.81909 
       0.987916         6.50315         4.55041         6.73055 
        0.99406         6.39978         4.48401         6.66122 
        1.00019         6.29194         4.41907         6.59365 
        1.00632         6.25653         4.35548         6.51171 
        1.01246         6.18125         4.29305         6.45777 
        1.01859         6.07218         4.23195         6.36668 
        1.02471         6.03005         4.17212          6.2662 
        1.03085          5.9555         4.11324         6.20643 
        1.03698         5.85016         4.05563         6.14649 
        1.04314         5.80907         3.99888         6.06977 
        1.04929         5.72821         3.94336         6.01053 
        1.05541         5.64704         3.88911         5.95402 
        1.06154         5.60335         3.83575         5.87519 
        1.06769          5.5628         3.78331          5.8071 
        1.07382         5.47999         3.73203         5.74936 
        1.07993         5.40877         3.68181         5.68365 
        1.08607         5.35802         3.63232         5.63012 
        1.09222         5.30055         3.58368         5.57037 
        1.09836          5.2274           3.536         5.49189 
        1.10449         5.18252         3.48924         5.43995 
        1.11063         5.10657         3.44328         5.38723 
        1.11677         5.07326         3.39816         5.32624 
         1.1229         5.03054         3.35393         5.28013 
        1.12903         4.95422         3.31046         5.23585 
        1.13518         4.88542         3.26772         5.17266 
        1.14131         4.84572         3.22576         5.11258 
        1.14745         4.78907         3.18456         5.06138 
        1.15359          4.7524         3.14408         5.01065 
        1.15973         4.68909         3.10428         4.95796 
        1.16584         4.62102         3.06535         4.91805 
        1.17197         4.58475         3.02704         4.87399 
        1.17811         4.55365         2.98927          4.8113 
        1.18424         4.49941         2.95225         4.76546 
        1.19038          4.4694         2.91575         4.72062 
        1.19652         4.41057         2.87989         4.67328 
        1.20267         4.36084         2.84463         4.63069 
        1.20881          4.3383         2.80996         4.59027 
        1.21495         4.29043         2.77594         4.54696 
        1.22108         4.23115         2.74248          4.5055 
         1.2272         4.19164         2.70966         4.45213 
        1.23334         4.14469         2.67729         4.41836 
        1.23949         4.09929         2.64538         4.38171 
        1.24562         4.07091         2.61409         4.33704 
        1.25174         4.03438         2.58334         4.29606 
        1.25789           3.994           2.553         4.25055 
        1.26402         3.96804          2.5232         4.21348 
        1.27014         3.92241         2.49394         4.17928 
        1.27628         3.87435         2.46507          4.1351 
        1.28244         3.82806         2.43659         4.10287 
        1.28858         3.82142         2.40861         4.06477 
        1.29471         3.76739         2.38112          4.0346 
        1.30084         3.72256         2.35409         4.00655 
        1.30697         3.71092         2.32744         3.95668 
        1.31312          3.6467         2.30117         3.92489 
        1.31925         3.61246         2.27538         3.90261 
        1.32537         3.58403         2.25002         3.86912 
        1.33151         3.56855         2.22495         3.83195 
        1.33765         3.52094         2.20028         3.79286 
        1.34378         3.49166         2.17603         3.76188 
        1.34992         3.46266         2.15214         3.73353 
        1.35606         3.42717         2.12855         3.69825 
         1.3622         3.40349         2.10535         3.66298 
        1.36833         3.36016         2.08256         3.64806 
        1.37445         3.33621         2.06012         3.61198 
        1.38059         3.31809         2.03794         3.57453 
        1.38675         3.28354         2.01603         3.55018 
        1.39288         3.26511         1.99453         3.52716 
        1.39901         3.21778         1.97336         3.49598 
        1.40515         3.19654         1.95244         3.46576 
         1.4113         3.16673         1.93184         3.43836 
        1.41742         3.14011         1.91161         3.41153 
        1.42355         3.10774         1.89164         3.38512 
         1.4297         3.08934         1.87189         3.35619 
        1.43585         3.06772         1.85243         3.33452 
        1.44198         3.04485         1.83332          3.3037 
        1.44809         3.01273         1.81452         3.27901 
        1.45423         2.98413         1.79591         3.25499 
        1.46036         2.95427          1.7776         3.22909 
        1.46649         2.93709         1.75954         3.20614 
        1.47263         2.90591         1.74171         3.18292 
        1.47877         2.88209         1.72414         3.15131 
        1.48491         2.86217         1.70678         3.13236 
        1.49104         2.83966          1.6897         3.11015 
        1.49718         2.81376         1.67284         3.08456 
        1.50333         2.79439         1.65618         3.06148 
        1.50947         2.76304         1.63979         3.03952 
         1.5156         2.74781         1.62364         3.01954 
        1.52172         2.72804         1.60771         2.99881 
        1.52787         2.70471         1.59196         2.96713 
          1.534         2.68073         1.57643         2.94827 
        1.54013         2.66226         1.56114         2.92729 
        1.54627         2.63604         1.54601         2.90481 
        1.55241         2.61191         1.53109         2.88602 
        1.55855          2.5989         1.51638         2.85976 
        1.56467         2.57621         1.50191         2.84458 
         1.5708          2.5588         1.48759         2.82924 
        1.57695         2.53638         1.47343         2.80278 
        1.58308         2.50935         1.45948         2.78232 
        1.58922         2.50201         1.44571         2.76942 
        1.59535         2.48423         1.43212         2.75244 
         1.6015         2.45649         1.41869         2.72972 
        1.60764          2.4368         1.40544         2.70837 
        1.61376         2.42364         1.39239         2.69198 
        1.61989          2.4011          1.3795         2.67426 
        1.62604           2.386         1.36674         2.65544 
        1.63218         2.37502         1.35415          2.6397 
        1.63831         2.34871         1.34175          2.6232 
        1.64444         2.33609          1.3295         2.60077 
        1.65059         2.30674         1.31737         2.58415 
        1.65673         2.30425         1.30541         2.56719 
        1.66285         2.27697         1.29363         2.54916 
        1.66898         2.26118         1.28199         2.53227 
        1.67512         2.24765         1.27047         2.51576 
        1.68127         2.23009         1.25909         2.50135 
         1.6874         2.21648         1.24786         2.48855 
        1.69353         2.19449         1.23678         2.47315 
        1.69967         2.18657         1.22581         2.45091 
        1.70581         2.17051         1.21498         2.43481 
        1.71193         2.15003         1.20432         2.42408 
        1.71806         2.13713         1.19376         2.40613 
        1.72421         2.12259         1.18331          2.3897 
        1.73035         2.10797           1.173          2.3749 
        1.73649         2.09221         1.16281         2.35992 
        1.74262         2.07445         1.15275         2.34611 
        1.74876         2.06433         1.14281         2.33266 
        1.75489         2.05054           1.133         2.31655 
        1.76101         2.03225         1.12331         2.29882 
        1.76715          2.0219         1.11372         2.28626 
        1.77329         2.00729         1.10423         2.27348 
        1.77943         1.98812         1.09484         2.25885 
        1.78557         1.97702         1.08558          2.2445 
        1.79171         1.96613         1.07643         2.22945 
        1.79785         1.95134         1.06737         2.21525 
        1.80399         1.93768         1.05843         2.20356 
        1.81012          1.9229          1.0496         2.19182 
        1.81625         1.91305         1.04087         2.17857 
        1.82239         1.90097         1.03223         2.16567 
        1.82853         1.88184         1.02369         2.15508 
        1.83466         1.87307         1.01526         2.14313 
        1.84078         1.86504         1.00693         2.12907 
        1.84692         1.85351        0.998678         2.11514 
        1.85306         1.83587         0.99051         2.10005 
         1.8592         1.82275        0.982446         2.08744 
        1.86533         1.81034        0.974477         2.07869 
        1.87147         1.80055        0.966586         2.06607 
