# k  (h/Mpc)    P(k)  (Mpc/h)^3    P_linear(k)  (Mpc/h)^3     P_NL(k)  ShotnoiseSubtracted = false
     0.00783031         13303.9         13494.5         13371.1 
       0.013688         15171.1         15040.8         14932.8 
       0.019231         13950.6         13888.2         13793.9 
      0.0249154         11524.5         11692.9         11631.5 
      0.0312784         9148.59         9174.14         9151.91 
      0.0375637         7287.91         7223.11          7218.9 
      0.0433917          5988.6         6011.24         6005.71 
      0.0492413         5290.07         5269.66         5266.93 
      0.0555754         4729.87         4799.89         4795.13 
      0.0619321         4514.82         4460.57         4452.78 
       0.067871         4074.02         4119.38         4114.12 
      0.0738098         3665.13         3698.83          3676.6 
      0.0800417         3157.45         3196.23         3193.81 
      0.0862327          2716.2         2706.49         2739.85 
      0.0921407            2373         2312.37         2357.05 
      0.0982031         2059.54         2015.66         2086.57 
       0.104506         1912.31          1820.6         1905.63 
       0.110769         1784.37         1711.47         1772.19 
       0.116806         1701.62         1646.06         1692.72 
       0.122832         1636.04         1582.15         1623.82 
       0.129052         1514.34         1491.56         1526.41 
       0.135211         1403.35         1371.05         1410.92 
       0.141259         1298.83         1234.64         1290.42 
       0.147318         1182.05         1099.83         1178.07 
       0.153489         1058.98         982.518         1054.01 
       0.159709         984.149         894.347         976.507 
       0.165845         936.014         836.609         931.817 
       0.171974         888.659         800.367         884.334 
       0.178125         854.289         774.404         860.883 
       0.184229          821.53          748.32         824.742 
        0.19034         767.637           714.9         784.667 
       0.196428          742.75         672.661         737.607 
       0.202534         707.222         624.412         696.046 
       0.208729         658.635         575.157         647.499 
       0.214876           617.6         531.439         619.379 
       0.220989         588.851         496.287         589.402 
       0.227147         560.486         469.746         563.123 
        0.23329         537.381         450.318         545.945 
       0.239377         524.584         435.003         524.973 
       0.245482         489.619         420.448         501.661 
       0.251667         483.648         404.195         487.711 
       0.257832         463.735         385.654         465.273 
       0.263955          444.51         365.496         444.664 
       0.270079         423.753         345.002         426.433 
        0.27624         414.692         325.686             407 
       0.282372         397.765         308.854         393.249 
        0.28843         384.773         294.981         380.262 
       0.294538         365.173         283.442         368.259 
       0.300721         361.285         273.468         357.826 
        0.30691         344.455         264.251         349.062 
       0.313033         336.277         255.114         335.954 
       0.319153         323.825         245.577         325.245 
       0.325316         314.737         235.567         315.716 
        0.33145         303.176         225.529         302.909 
       0.337538         297.222         215.918         293.413 
       0.343633         286.735         207.006         288.067 
       0.349808         276.074         198.923         280.938 
       0.355968         272.097          191.76         274.287 
       0.362074         266.243         185.401         266.591 
       0.368217         258.278         179.463         257.635 
       0.374374          247.16         173.729         250.917 
       0.380519         244.361         168.068         243.809 
       0.386598         237.481         162.452         239.903 
       0.392688         233.968         156.881         232.128 
        0.39888         227.629         151.363         226.678 
       0.405048         221.262         146.122         222.411 
       0.411186         216.644         141.253         215.877 
       0.417313         212.006         136.743         210.377 
       0.423458         206.882         132.538         206.298 
       0.429607          202.73         128.595         202.009 
       0.435692         196.648          124.87         196.571 
       0.441815          194.44          121.23         193.903 
       0.447964         189.832         117.662         189.767 
       0.454126         183.076         114.167         184.003 
       0.460267         180.144         110.773         182.211 
       0.466387         177.791         107.512          178.23 
        0.47254         173.227         104.382          174.59 
       0.478662         172.579         101.424         171.034 
       0.484765         166.244         98.6216         166.742 
       0.490885         163.784         95.9475         164.161 
       0.497035         160.921         93.3785         161.569 
       0.503198         157.106         90.9002         158.678 
       0.509342         155.161         88.5036          156.11 
       0.515458         152.623         86.1845          153.88 
       0.521598         149.149         83.9269         150.307 
       0.527764         147.278         81.7345         148.166 
       0.533884         145.053         79.6352         145.913 
           0.54         142.392         77.6148          142.95 
       0.546137         140.954         75.6649         141.165 
       0.552299         138.036         73.7852         138.178 
       0.558452         136.415         71.9811         135.846 
       0.564573         134.152         70.2497          134.47 
       0.570708         131.133         68.5701         132.611 
       0.576825         129.312         66.9452         129.691 
       0.582926         126.922         65.3727         127.931 
       0.589034         125.368         63.8463         126.586 
       0.595184         123.644         62.3583         123.848 
       0.601379         121.717         60.9093         122.566 
       0.607522         119.522         59.5198         120.351 
       0.613639         118.319         58.1809          119.36 
       0.619772         115.932         56.8812         117.735 
       0.625918         114.589         55.6195         115.713 
       0.632068          112.95          54.396         113.867 
       0.638161         111.906         53.2204         113.043 
         0.6443         110.307         52.0714         111.408 
       0.650464         109.051         50.9522         109.004 
       0.656582           107.1         49.8738         108.139 
       0.662703         106.175         48.8261         106.583 
       0.668861         104.289         47.8024         105.464 
       0.675024         102.716         46.8074         104.005 
       0.681124         101.961         45.8507         102.578 
       0.687237          100.18         44.9191         101.304 
       0.693381         98.5976         44.0094         99.8337 
       0.699536         97.8657         43.1236         98.7833 
       0.705665         97.2231         42.2664         97.9709 
       0.711789         95.3028         41.4335         96.6471 
       0.717957         94.9847         40.6176         95.4812 
        0.72409          93.287         39.8284         94.6993 
       0.730186         91.8368         39.0651         93.6622 
       0.736317         91.1385         38.3178         92.2726 
       0.742472          90.296         37.5873         91.3102 
       0.748622         89.2729         36.8767         90.1783 
        0.75476         88.2755          36.186         89.2126 
       0.760888         87.1272         35.5141         87.8938 
       0.767043         86.6131         34.8568         87.3381 
       0.773185         85.6026         34.2175          86.621 
       0.779291         84.0896          33.598         85.4894 
       0.785407         83.6619          32.993         84.4142 
       0.791564          82.968         32.3992         83.7318 
       0.797719         81.1831         31.8203         83.1791 
       0.803834         80.7994         31.2594         82.0388 
       0.809972         79.8387           30.71         81.2179 
       0.816124         79.3186         30.1728         80.5525 
       0.822261         78.5547         29.6498         79.6879 
       0.828378         77.9066          29.141         78.6628 
       0.834502         77.3509         28.6437         77.8847 
       0.840667         76.1058         28.1548         77.4525 
       0.846816         75.2017         27.6787         76.7044 
       0.852925         74.6675         27.2168         75.9891 
       0.859047         73.7126         26.7644         75.2444 
       0.865192         73.1064         26.3209         74.4718 
       0.871341          72.458         25.8872         73.7037 
       0.877463          71.457         25.4653         73.1383 
       0.883569         71.2923         25.0539         72.7351 
       0.889708         70.5039         24.6495         71.9317 
       0.895864         69.8065          24.253         71.4579 
       0.902008         69.2322         23.8661         70.6082 
       0.908149         68.7272         23.4879         70.0243 
       0.914301         67.9477         23.1174         69.4517 
       0.920448         67.4433         22.7552         68.9344 
       0.926574         66.7499          22.402         68.2429 
       0.932687         66.6684         22.0572         67.7666 
       0.938823         65.5594         21.7183         67.0623 
       0.944975         64.8469         21.3859         66.5293 
       0.951105          64.403         21.0617         65.9427 
       0.957225         63.8111         20.7447         65.4555 
       0.963368         63.1641         20.4332         64.8644 
       0.969511         62.9957         20.1282         64.3302 
       0.975621         62.5473          19.831         64.1843 
       0.981748          61.961         19.5391         63.6431 
       0.987916         61.2774         19.2513         63.1175 
        0.99406         60.8407         18.9703         62.4629 
        1.00019         60.4692         18.6956         61.8886 
        1.00632         59.8354         18.4265         61.4161 
        1.01246         59.5382         18.1624         60.8463 
        1.01859         58.7692         17.9039         60.6865 
        1.02471         58.3516         17.6508         60.3708 
        1.03085         57.8627         17.4017         59.7825 
        1.03698         57.5813          17.158         59.3055 
        1.04314         57.0351         16.9179         58.8197 
        1.04929         56.6235          16.683          58.532 
        1.05541          55.993         16.4535          58.209 
        1.06154         55.9004         16.2278         57.7303 
        1.06769         55.4489         16.0059         57.3306 
        1.07382         55.0678         15.7889         56.9636 
        1.07993         54.6906         15.5765         56.5589 
        1.08607         54.2023         15.3671          56.162 
        1.09222          54.012         15.1613         55.7617 
        1.09836         53.4241         14.9596         55.2984 
        1.10449         53.1653         14.7618         54.9952 
        1.11063         52.6307         14.5673         54.4115 
        1.11677         52.3228         14.3765         54.0902 
         1.1229         51.8223         14.1894         53.9217 
        1.12903         51.3139         14.0054         53.4451 
        1.13518         51.3318         13.8246         53.0924 
        1.14131         50.9801         13.6471          52.683 
        1.14745         50.4865         13.4728         52.4487 
        1.15359         50.1797         13.3015         52.0777 
        1.15973         49.7366         13.1332          51.863 
        1.16584         49.3813         12.9685         51.3042 
        1.17197         49.0739         12.8064         51.1745 
        1.17811         48.8373         12.6466            50.8 
        1.18424         48.3859           12.49         50.5078 
        1.19038         48.1309         12.3355         50.1411 
        1.19652           47.86         12.1838         49.8157 
        1.20267         47.2819         12.0346         49.5878 
        1.20881         47.1464          11.888         49.2172 
        1.21495         46.7197         11.7441          48.888 
        1.22108         46.6436         11.6025         48.6799 
         1.2272         45.9918         11.4636          48.368 
        1.23334         45.7916         11.3267         48.1681 
        1.23949          45.661         11.1917         47.7264 
        1.24562         45.1856         11.0593         47.3731 
        1.25174         45.0025         10.9292         47.1886 
        1.25789         44.8081         10.8009         46.9097 
        1.26402         44.4079         10.6748          46.695 
        1.27014         44.0878          10.551          46.519 
        1.27628         43.7971         10.4289         46.1878 
        1.28244         43.5254         10.3084         45.7932 
        1.28858         43.3672           10.19         45.5334 
        1.29471         43.1577         10.0737         45.3643 
        1.30084         42.8613         9.95936         45.0073 
        1.30697         42.5131         9.84662         44.8409 
        1.31312         42.2369         9.73546         44.6283 
        1.31925         41.9927         9.62637         44.3072 
        1.32537         41.7722         9.51906         44.1319 
        1.33151         41.4109         9.41301          43.837 
        1.33765         41.2518         9.30864         43.6102 
        1.34378         40.9849         9.20606         43.3912 
        1.34992         40.7281         9.10495         43.0977 
        1.35606         40.4995         9.00515         42.8742 
         1.3622         40.1692         8.90703          42.695 
        1.36833         40.0036          8.8106         42.4627 
        1.37445         39.7369         8.71566         42.2676 
        1.38059         39.4537         8.62182         42.0081 
        1.38675         39.2419         8.52914         41.7588 
        1.39288         39.0184         8.43819         41.5207 
        1.39901         38.8453         8.34861         41.3434 
        1.40515         38.5437         8.26013         41.2273 
         1.4113         38.3606         8.17296         41.0272 
        1.41742         38.2737         8.08739         40.6967 
        1.42355         37.9157         8.00288         40.5131 
         1.4297         37.7865         7.91933         40.3206 
        1.43585         37.5838           7.837         40.0657 
        1.44198         37.2372         7.75616         39.9021 
        1.44809         37.1277         7.67662         39.6827 
        1.45423         36.9102         7.59789         39.4641 
        1.46036         36.7137         7.52042         39.2834 
        1.46649         36.5263         7.44399         39.1425 
        1.47263         36.2551         7.36858         38.9681 
        1.47877         36.0112         7.29424         38.6733 
        1.48491         36.0012          7.2208         38.5188 
        1.49104         35.6908         7.14854          38.398 
        1.49718         35.3602         7.07721         38.1783 
        1.50333         35.3669         7.00674         37.9791 
        1.50947         35.1235         6.93738          37.796 
         1.5156         34.8954         6.86906         37.6065 
        1.52172          34.758         6.80165         37.4262 
        1.52787          34.647         6.73502         37.2598 
          1.534          34.337         6.66936         37.0913 
        1.54013         34.1461         6.60464         36.8886 
        1.54627         34.0704         6.54066         36.7006 
        1.55241         33.7012         6.47752         36.5459 
        1.55855         33.6066          6.4153         36.3894 
        1.56467         33.3245         6.35407         36.2401 
         1.5708         33.3449         6.29347         36.0582 
        1.57695         33.1452         6.23356         35.9009 
        1.58308         32.9134         6.17458         35.7478 
        1.58922         32.7347         6.11631         35.5486 
        1.59535         32.6504         6.05882         35.4115 
         1.6015         32.3725           6.002         35.2155 
        1.60764         32.1793         5.94592         35.0482 
        1.61376         32.0475         5.89072          34.973 
        1.61989          31.861         5.83618         34.7814 
        1.62604         31.6842          5.7822         34.5878 
        1.63218         31.6941         5.72894         34.4339 
        1.63831         31.3706         5.67648         34.3087 
        1.64444         31.2486         5.62465          34.167 
        1.65059         31.1674         5.57335         33.9801 
        1.65673         30.9059         5.52274         33.8215 
        1.66285         30.7078          5.4729         33.7116 
        1.66898         30.6304         5.42366         33.5965 
        1.67512         30.3991         5.37493         33.4045 
        1.68127         30.2603         5.32676         33.2303 
         1.6874         30.0927         5.27928         33.1003 
        1.69353         29.9505          5.2324         32.9707 
        1.69967         29.8311         5.18599         32.8266 
        1.70581         29.7518         5.14016         32.6981 
        1.71193         29.5735         5.09506         32.5751 
        1.71806         29.2918          5.0504         32.4214 
        1.72421         29.2297         5.00619         32.2834 
        1.73035         29.0773         4.96255         32.1476 
        1.73649         28.8467         4.91945         32.0028 
        1.74262         28.7362          4.8769         31.8665 
        1.74876         28.6113         4.83482         31.7265 
        1.75489         28.5043         4.79332         31.5933 
        1.76101         28.3648         4.75232         31.4642 
        1.76715           28.21         4.71175         31.3085 
        1.77329         28.0645          4.6716         31.1977 
        1.77943         27.9326          4.6319            31.1 
        1.78557         27.7618         4.59272         30.9553 
        1.79171         27.6576         4.55399         30.8144 
        1.79785         27.5067         4.51569         30.6949 
        1.80399         27.4633         4.47785         30.5812 
        1.81012         27.2121         4.44049         30.4498 
        1.81625         27.1179         4.40357         30.3067 
        1.82239         26.9895         4.36701         30.1907 
        1.82853         26.8665         4.33089         30.1146 
        1.83466         26.6502         4.29521         29.9787 
        1.84078         26.4914         4.25997         29.8076 
        1.84692         26.4459         4.22506         29.7171 
        1.85306         26.2717         4.19051         29.6191 
         1.8592         26.1344         4.15639         29.4834 
        1.86533         26.0239         4.12267         29.3558 
        1.87147         25.9535         4.08929         29.2226 
        1.87761         25.8049         4.05626          29.102 
