# k  (h/Mpc)    P(k)  (Mpc/h)^3    P_linear(k)  (Mpc/h)^3     P_NL(k)  ShotnoiseSubtracted = false
     0.00783031         5438.12         5506.23         5457.18 
       0.013688         6158.73         6135.84         6096.11 
       0.019231          5682.2         5665.68         5632.83 
      0.0249154         4729.51         4770.24         4752.49 
      0.0312784          3743.6         3742.77         3742.32 
      0.0375637         2968.34         2946.86          2950.1 
      0.0433917         2450.85         2452.47         2455.59 
      0.0492413         2157.33         2149.94         2153.22 
      0.0555754         1942.96         1958.29          1958.9 
      0.0619321         1836.26         1819.87         1818.84 
       0.067871          1671.1         1680.67         1679.17 
      0.0738098         1501.06          1509.1         1504.87 
      0.0800417         1293.97         1304.04         1303.91 
      0.0862327         1105.86         1104.23            1111 
      0.0921407           955.6         943.436         952.619 
      0.0982031         828.979         822.379          836.31 
       0.104506         762.005         742.798         759.027 
       0.110769         712.752         698.274         709.668 
       0.116806         679.713         671.587         680.052 
       0.122832         655.679         645.515         652.994 
       0.129052         610.966         608.552         614.605 
       0.135211         563.602         559.387         566.602 
       0.141259         515.259          503.73         513.841 
       0.147318         464.455          448.73          463.43 
       0.153489         414.788         400.866         414.079 
       0.159709         381.446         364.893         379.989 
       0.165845         360.835         341.336         359.058 
       0.171974         341.447         326.549          341.73 
       0.178125         330.242         315.957         331.634 
       0.184229          318.98         305.314         319.282 
        0.19034         298.947         291.679         304.263 
       0.196428         286.612         274.446         285.603 
       0.202534         271.132          254.76         267.267 
       0.208729         250.063         234.664         247.844 
       0.214876         231.624         216.827         233.245 
       0.220989         219.632         202.485         219.761 
       0.227147         207.106         191.656         208.587 
        0.23329         198.572          183.73         201.164 
       0.239377          193.03         177.481         193.989 
       0.245482         182.309         171.543         185.918 
       0.251667         178.363         164.912         179.938 
       0.257832         171.088         157.347         171.608 
       0.263955         162.759         149.123          163.18 
       0.270079         154.602         140.761          155.24 
        0.27624         149.199          132.88         147.212 
       0.282372         142.633         126.013         141.211 
        0.28843         136.172         120.353         135.653 
       0.294538         130.169         115.645         130.816 
       0.300721         127.553         111.575         126.843 
        0.30691         121.873         107.815          122.94 
       0.313033         118.081         104.087         118.347 
       0.319153         112.471         100.196          114.31 
       0.325316         110.047         96.1117         110.496 
        0.33145         105.129          92.016         105.907 
       0.337538         102.302         88.0948         101.826 
       0.343633         98.1542         84.4586         98.6724 
       0.349808         94.7785         81.1607         95.7422 
       0.355968          92.407         78.2385         93.1865 
       0.362074         89.4378         75.6439         90.0873 
       0.368217         86.4815         73.2209          86.875 
       0.374374         83.7475         70.8818         84.4726 
       0.380519         81.7111         68.5719         81.7837 
       0.386598         79.2382         66.2805          79.586 
       0.392688           77.41         64.0077         77.2752 
        0.39888         75.0334         61.7562         74.8673 
       0.405048         72.8285          59.618         72.7546 
       0.411186         70.8898         57.6314         70.9535 
       0.417313         68.7818         55.7913         68.6914 
       0.423458         66.8954         54.0758         67.0234 
       0.429607         65.0991         52.4668         65.2495 
       0.435692         62.8718          50.947         63.5769 
       0.441815         61.9771         49.4618         62.2854 
       0.447964         60.6536         48.0061         60.4873 
       0.454126         57.8358         46.5803         58.6935 
       0.460267         56.9879         45.1957         57.6921 
       0.466387         55.5921         43.8649         56.0501 
        0.47254         54.3657         42.5879         54.8333 
       0.478662          53.513         41.3812         53.5636 
       0.484765         51.7849         40.2377         52.0078 
       0.490885           50.65         39.1467         51.1444 
       0.497035         49.8615         38.0986         50.1769 
       0.503198         48.3542         37.0874         48.8575 
       0.509342         47.1667         36.1096         47.9029 
       0.515458         46.1639         35.1634         47.1191 
       0.521598         45.3513         34.2423          45.696 
       0.527764         44.4334         33.3478         44.5256 
       0.533884         43.6687         32.4913         43.7146 
           0.54         42.5176         31.6669          42.865 
       0.546137         41.9139         30.8714         42.1355 
       0.552299         41.1738         30.1045          41.006 
       0.558452         39.9725         29.3684         40.1391 
       0.564573         39.2203          28.662         39.5805 
       0.570708         38.5569         27.9767         38.8258 
       0.576825         37.7884         27.3138          38.019 
       0.582926         36.8916         26.6722         37.2778 
       0.589034         35.9851         26.0494         36.7757 
       0.595184         35.4754         25.4423         35.9396 
       0.601379         34.7843         24.8511         35.4171 
       0.607522         33.9795         24.2842          34.523 
       0.613639         33.7061         23.7379         34.0174 
       0.619772         32.8864         23.2076         33.4207 
       0.625918         32.4886         22.6929         32.9154 
       0.632068          32.014         22.1936         32.2568 
       0.638161         31.3892          21.714         31.7258 
         0.6443         30.8136         21.2452         31.1035 
       0.650464         30.2435         20.7886         30.5714 
       0.656582         29.9047         20.3486         30.1545 
       0.662703           29.27         19.9211         29.5504 
       0.668861         28.7798         19.5035         29.1932 
       0.675024          28.276         19.0975         28.5772 
       0.681124         27.7777         18.7072         28.1285 
       0.687237          27.212         18.3271         27.6775 
       0.693381         26.9579         17.9559         27.1775 
       0.699536         26.3609         17.5945         26.9191 
       0.705665         26.3231         17.2448         26.5347 
       0.711789         25.5802         16.9049         25.9239 
       0.717957         25.2299         16.5721         25.6613 
        0.72409         24.8755         16.2501         25.3166 
       0.730186          24.447         15.9386         24.9099 
       0.736317         24.2334         15.6337         24.4977 
       0.742472         23.7868         15.3357         24.1693 
       0.748622         23.5005         15.0457          23.787 
        0.75476         23.1243         14.7639         23.4762 
       0.760888         22.7148         14.4898         23.1557 
       0.767043         22.4022         14.2216         22.8866 
       0.773185         22.0442         13.9608         22.5453 
       0.779291         21.8943          13.708         22.2639 
       0.785407         21.6857         13.4612         21.8968 
       0.791564         21.2685         13.2189         21.6047 
       0.797719         20.7498         12.9827         21.3973 
       0.803834         20.6901         12.7539         21.0464 
       0.809972         20.3733         12.5297         20.7677 
       0.816124         20.0076         12.3105         20.5057 
       0.822261         19.7772         12.0972         20.2153 
       0.828378         19.6395         11.8896         19.9057 
       0.834502         19.3733         11.6867         19.7348 
       0.840667         19.0962         11.4872         19.4789 
       0.846816         18.7407          11.293         19.2333 
       0.852925         18.5695         11.1045         19.0592 
       0.859047         18.3241         10.9199         18.7765 
       0.865192         18.0977          10.739         18.5374 
       0.871341          17.969          10.562         18.3422 
       0.877463          17.618         10.3899         18.1212 
       0.883569         17.4003          10.222         17.9175 
       0.889708          17.177          10.057         17.6923 
       0.895864         16.9731         9.89527         17.4535 
       0.902008         16.8129         9.73742         17.2709 
       0.908149         16.6239         9.58312         17.1171 
       0.914301         16.5369         9.43192         16.9752 
       0.920448         16.2504         9.28415         16.7003 
       0.926574         16.0565         9.14006         16.4965 
       0.932687         15.8548         8.99936         16.3156 
       0.938823         15.6318         8.86112         16.1078 
       0.944975         15.4952         8.72549         15.9573 
       0.951105         15.3107         8.59319         15.7644 
       0.957225         15.1117         8.46388         15.6046 
       0.963368         15.0619          8.3368           15.43 
       0.969511         14.8563         8.21233         15.2498 
       0.975621         14.7417         8.09109         15.1217 
       0.981748         14.4902         7.97199         14.9662 
       0.987916         14.3611         7.85455         14.7945 
        0.99406         14.2217         7.73993         14.6372 
        1.00019         14.0249         7.62783         14.4903 
        1.00632         13.9203         7.51806         14.3579 
        1.01246         13.8395          7.4103          14.223 
        1.01859         13.5756         7.30484         14.0977 
        1.02471          13.503         7.20157          13.935 
        1.03085         13.3862         7.09994         13.7793 
        1.03698         13.1334          7.0005         13.6439 
        1.04314         13.0618         6.90254          13.497 
        1.04929         12.8997          6.8067         13.4071 
        1.05541         12.7408         6.71306          13.315 
        1.06154         12.6761         6.62095         13.1291 
        1.06769         12.5664         6.53044         12.9799 
        1.07382         12.4318         6.44192         12.8882 
        1.07993         12.3181         6.35524         12.7591 
        1.08607         12.1505         6.26981         12.6545 
        1.09222         12.0761         6.18586         12.5631 
        1.09836         11.9308         6.10355         12.4276 
        1.10449         11.8354         6.02284         12.2976 
        1.11063         11.6572          5.9435           12.19 
        1.11677          11.611         5.86563         12.0661 
         1.1229         11.5346         5.78928         11.9815 
        1.12903          11.386         5.71424         11.8747 
        1.13518         11.2536         5.64047         11.7554 
        1.14131         11.2063         5.56804          11.652 
        1.14745         11.0737         5.49693         11.5694 
        1.15359         11.0201         5.42705         11.4338 
        1.15973         10.8661         5.35835         11.3614 
        1.16584         10.7328         5.29116         11.2627 
        1.17197          10.718         5.22503         11.2016 
        1.17811         10.5715         5.15982         11.0434 
        1.18424         10.4848         5.09593          10.969 
        1.19038         10.4243         5.03293         10.9077 
        1.19652         10.3376         4.97102         10.7804 
        1.20267         10.2398         4.91016          10.713 
        1.20881         10.1418         4.85033         10.6214 
        1.21495         10.0695          4.7916         10.5416 
        1.22108         9.96438         4.73384         10.4516 
         1.2272         9.86277         4.67718         10.3761 
        1.23334          9.8161         4.62132         10.2953 
        1.23949         9.70372         4.56625          10.189 
        1.24562          9.6443         4.51222         10.1172 
        1.25174         9.57632         4.45915         10.0452 
        1.25789         9.47446         4.40677         9.96339 
        1.26402         9.43879         4.35533         9.87301 
        1.27014         9.31443         4.30484         9.80418 
        1.27628         9.23759         4.25499          9.7121 
        1.28244         9.17311         4.20584         9.67175 
        1.28858         9.13469         4.15754         9.58712 
        1.29471         9.04331          4.1101         9.51577 
        1.30084         8.95815         4.06344         9.46933 
        1.30697          8.8904         4.01744         9.37607 
        1.31312         8.78476         3.97209         9.30387 
        1.31925         8.72191         3.92758         9.24849 
        1.32537         8.68356          3.8838          9.1882 
        1.33151         8.61175         3.84053         9.11861 
        1.33765         8.55349         3.79794         9.03953 
        1.34378         8.47922         3.75609         8.97775 
        1.34992         8.38387         3.71484         8.92483 
        1.35606         8.36774         3.67412         8.84699 
         1.3622         8.30541         3.63409         8.78352 
        1.36833         8.20295         3.59474         8.74359 
        1.37445         8.17974         3.55601         8.66656 
        1.38059          8.0929         3.51772          8.5988 
        1.38675          7.9997         3.47991         8.55862 
        1.39288         7.98091          3.4428         8.48341 
        1.39901         7.91518         3.40625         8.42633 
        1.40515         7.87439         3.37015         8.36747 
         1.4113         7.79714         3.33459         8.31074 
        1.41742         7.72802         3.29967         8.26995 
        1.42355         7.68439         3.26519         8.21719 
         1.4297         7.66018          3.2311         8.14247 
        1.43585          7.5974         3.19751         8.10126 
        1.44198         7.53724         3.16453         8.05012 
        1.44809         7.47196         3.13208         8.00045 
        1.45423         7.42222         3.09996         7.93186 
        1.46036         7.37174         3.06835          7.8784 
        1.46649         7.33572         3.03717         7.84295 
        1.47263         7.25792         3.00639         7.80485 
        1.47877         7.21842         2.97606         7.74261 
        1.48491         7.19326          2.9461         7.68342 
        1.49104         7.14082         2.91662         7.63715 
        1.49718          7.0775         2.88752         7.59959 
        1.50333         7.03121         2.85877         7.55199 
        1.50947         6.98029         2.83047         7.50676 
         1.5156         6.93613         2.80259         7.46231 
        1.52172         6.89467         2.77509          7.4094 
        1.52787         6.85072          2.7479         7.35688 
          1.534         6.79636         2.72111           7.313 
        1.54013         6.73904         2.69471         7.26366 
        1.54627          6.6934          2.6686         7.21448 
        1.55241         6.65526         2.64284         7.17431 
        1.55855         6.61192         2.61746         7.13731 
        1.56467         6.56698         2.59247         7.10149 
         1.5708         6.55706         2.56775         7.05956 
        1.57695         6.48659         2.54331         7.01272 
        1.58308         6.45631         2.51924         6.97505 
        1.58922         6.42242         2.49547         6.94255 
        1.59535         6.36806         2.47201         6.89836 
         1.6015          6.3206         2.44883          6.8544 
        1.60764         6.29027         2.42595         6.81179 
        1.61376         6.24608         2.40343          6.7725 
        1.61989         6.20015         2.38117         6.74601 
        1.62604         6.18717         2.35915         6.70824 
        1.63218         6.13923         2.33742         6.66939 
        1.63831         6.10161         2.31602         6.63721 
        1.64444         6.04634         2.29487         6.59728 
        1.65059         6.01266         2.27394         6.55453 
        1.65673         5.99332         2.25329         6.52026 
        1.66285         5.93326         2.23296         6.48598 
        1.66898         5.92093         2.21287         6.44264 
        1.67512         5.88627         2.19298          6.4044 
        1.68127         5.85456         2.17333         6.37627 
         1.6874         5.80535         2.15396         6.34397 
        1.69353         5.75254         2.13483         6.29769 
        1.69967         5.73913          2.1159         6.26756 
        1.70581          5.7148          2.0972         6.23752 
        1.71193         5.66833         2.07879         6.20622 
        1.71806         5.63439         2.06057         6.18662 
        1.72421         5.60471         2.04254         6.15076 
        1.73035         5.56586         2.02473         6.11688 
        1.73649         5.54351         2.00715         6.08966 
        1.74262         5.51914         1.98979         6.04493 
        1.74876         5.48333         1.97262         6.01088 
        1.75489         5.44982         1.95569         5.98226 
        1.76101         5.40718         1.93896         5.94916 
        1.76715         5.38855          1.9224         5.92512 
        1.77329         5.34203         1.90602         5.89253 
        1.77943         5.31945         1.88983         5.85601 
        1.78557         5.29924         1.87384         5.82844 
        1.79171         5.27395         1.85804         5.79791 
        1.79785         5.22257         1.84241          5.7671 
        1.80399         5.20934         1.82697         5.74365 
        1.81012          5.1919         1.81173         5.72034 
        1.81625         5.14857         1.79667          5.6949 
        1.82239         5.11697         1.78175          5.6679 
        1.82853         5.08345         1.76701         5.63924 
        1.83466         5.05384         1.75245         5.61245 
        1.84078         5.03338         1.73808         5.58551 
        1.84692         5.01215         1.72384         5.55314 
        1.85306         4.97305         1.70974         5.52217 
         1.8592         4.95605         1.69582         5.49723 
        1.86533          4.9314         1.68206         5.47324 
        1.87147         4.90118         1.66844         5.44394 
        1.87761         4.88177         1.65496          5.4206 
