# k  (h/Mpc)    Pcb(k)  (Mpc/h)^3    Pcb_linear(k) (Mpc/h)^3    Pcb_NL(k) (Mpc/h)^3   ShotnoiseSubtracted = false
     0.00783031         9780.93         9913.54         9824.14 
       0.013688         11121.3         11047.4         10971.8 
       0.019231         10240.7         10200.6         10136.1 
      0.0249154         8486.18         8588.23         8549.32 
      0.0312784         6728.93         6738.27         6729.25 
      0.0375637         5349.68         5305.29         5306.43 
      0.0433917         4404.66         4415.19         4415.73 
      0.0492413         3885.12         3870.52         3872.35 
      0.0555754          3484.5         3525.49         3524.32 
      0.0619321         3312.86         3276.27         3272.58 
       0.067871         2999.87         3025.66         3022.64 
      0.0738098         2696.86         2716.78         2704.78 
      0.0800417         2323.69         2347.63         2346.85 
      0.0862327         1993.34         1987.91         2007.11 
      0.0921407         1733.16         1698.43         1724.12 
      0.0982031         1503.41          1480.5         1520.63 
       0.104506         1390.44         1337.23         1384.95 
       0.110769         1298.71         1257.07          1290.9 
       0.116806         1237.98         1209.03         1234.83 
       0.122832         1192.46         1162.09         1185.18 
       0.129052         1106.67         1095.55         1114.67 
       0.135211         1023.66         1007.04         1029.24 
       0.141259         942.482          906.84         937.759 
       0.147318         854.116         807.827         851.782 
       0.153489         763.975          721.66         761.437 
       0.159709         707.033           656.9         702.503 
       0.165845          670.84         614.491         667.722 
       0.171974         635.745         587.871         634.234 
       0.178125         612.941           568.8         616.684 
       0.184229         590.752         549.642         592.117 
        0.19034         551.828         525.093         563.665 
       0.196428         532.432          494.07         529.229 
       0.202534          505.91         458.632         497.686 
       0.208729         469.113         422.454         462.508 
       0.214876         437.334         390.345         439.625 
       0.220989         416.089         364.523          416.56 
       0.227147         394.387         345.028          396.72 
        0.23329         378.162         330.759         383.847 
       0.239377         368.593          319.51         369.548 
       0.245482         345.141          308.82          353.33 
       0.251667          339.75         296.883          342.99 
       0.257832         326.188         283.264         327.096 
       0.263955         311.618         268.457         311.916 
       0.270079         296.555         253.404         298.195 
        0.27624         288.761         239.216         283.751 
       0.282372          276.77         226.853          273.34 
        0.28843         265.954         216.664         263.505 
       0.294538         253.175         208.189         254.857 
       0.300721         249.635         200.862         247.579 
        0.30691         237.987         194.093          240.73 
       0.313033         231.706         187.382          231.64 
       0.319153         221.934         180.377         224.044 
       0.325316         216.248         173.025         217.172 
        0.33145         207.517         165.651         208.271 
       0.337538         203.122         158.592         201.022 
       0.343633         195.447         152.046         196.434 
       0.349808         188.439         146.109         191.224 
       0.355968         184.967         140.849         186.451 
       0.362074         180.019         136.177         180.768 
       0.368217          174.44         131.816         174.517 
       0.374374          167.89         127.605         169.789 
       0.380519         164.995         123.445         164.743 
       0.386598         160.255         119.321         161.294 
       0.392688         157.213         115.229          156.38 
        0.39888         152.949         111.176         152.113 
       0.405048         148.429         107.327         148.892 
       0.411186         144.908         103.751         144.725 
       0.417313         141.487         100.438         140.551 
       0.423458         137.972         97.3496         137.519 
       0.429607         134.669         94.4531         134.459 
       0.435692         130.283         91.7169          130.93 
       0.441815         128.846         89.0435         128.815 
       0.447964         125.932         86.4226         125.643 
       0.454126         120.441         83.8559         121.799 
       0.460267         118.818         81.3632         120.326 
       0.466387          117.02         78.9675         117.364 
        0.47254         113.948         76.6686         114.889 
       0.478662         113.043         74.4962         112.539 
       0.484765         109.189         72.4377         109.376 
       0.490885         107.233         70.4737         107.695 
       0.497035          105.54         68.5867         105.898 
       0.503198         102.484         66.7663         103.692 
       0.509342         100.689         65.0061         101.886 
       0.515458         98.9484         63.3027          100.37 
       0.521598         97.0388         61.6445          97.679 
       0.527764         95.6142         60.0342         95.7861 
       0.533884         94.0571         58.4922          94.307 
           0.54         91.9601         57.0082         92.4491 
       0.546137         90.8439         55.5762         91.1654 
       0.552299         89.1571         54.1953         88.9565 
       0.558452         87.3861         52.8703         87.2549 
       0.564573         85.8122         51.5986         86.2615 
       0.570708         84.1488         50.3648          84.872 
       0.576825         82.9817         49.1715         83.0642 
       0.582926          81.149         48.0164         81.6874 
       0.589034         79.7907         46.8952         80.8202 
       0.595184         78.5475         45.8024         79.1195 
       0.601379         77.3006          44.738         78.1673 
       0.607522         75.6198         43.7174         76.4581 
       0.613639         75.0426          42.734         75.6379 
       0.619772         73.4832         41.7794         74.3822 
       0.625918         72.3429         40.8527         73.2851 
       0.632068         71.4701         39.9539         72.0462 
       0.638161         70.5463         39.0905         71.2319 
         0.6443         69.5784         38.2465         70.0343 
       0.650464         68.6419         37.4245         68.5512 
       0.656582         67.3662         36.6324         67.9743 
       0.662703         66.2399         35.8629         66.7741 
       0.668861         65.2696          35.111          66.006 
       0.675024         64.3645         34.3801         64.9188 
       0.681124         63.6223         33.6774         64.0212 
       0.687237         62.3111         32.9932         63.1379 
       0.693381         61.5031          32.325         62.1342 
       0.699536         60.8334         31.6744         61.5515 
       0.705665         60.6886         31.0448          60.964 
       0.711789         59.1225          30.433         59.7667 
       0.717957         58.6309         29.8337         59.0953 
        0.72409         57.6387         29.2541         58.5805 
       0.730186         56.6713         28.6934         57.8533 
       0.736317         56.4643         28.1445         56.9032 
       0.742472         55.7334          27.608         56.2568 
       0.748622         54.9502          27.086         55.4997 
        0.75476         54.3244         26.5787          54.741 
       0.760888           53.49         26.0852         53.9736 
       0.767043         52.9813         25.6024         53.6477 
       0.773185          52.251         25.1328         53.1018 
       0.779291         51.6632         24.6778         52.3991 
       0.785407         51.2357         24.2334          51.625 
       0.791564         50.6628         23.7972         51.0983 
       0.797719          49.633         23.3721          50.737 
       0.803834         49.3752         22.9601         49.9374 
       0.809972         48.4376         22.5566         49.3734 
       0.816124         48.0988          22.162         48.9345 
       0.822261          47.665         21.7779         48.3037 
       0.828378         47.3222         21.4041         47.6397 
       0.834502         46.7204         21.0388         47.2376 
       0.840667         46.1261         20.6797         46.9247 
       0.846816         45.4613         20.3301         46.3805 
       0.852925         45.0897         19.9908         45.8581 
       0.859047         44.4243         19.6585         45.3246 
       0.865192         44.0835         19.3328         44.9154 
       0.871341         43.7575         19.0142         44.4033 
       0.877463         42.9809         18.7043          43.974 
       0.883569         42.6884         18.4021         43.7007 
       0.889708         42.3366         18.1051         43.1839 
       0.895864         41.9045         17.8139         42.7988 
       0.902008         41.4754         17.5297         42.2594 
       0.908149         41.1011         17.2519         41.9576 
       0.914301          40.685         16.9798         41.6319 
       0.920448         40.3523         16.7137         41.1768 
       0.926574         39.7961         16.4543         40.7347 
       0.932687         39.6273          16.201          40.392 
       0.938823         38.9861         15.9522         39.9005 
       0.944975         38.6722          15.708          39.585 
       0.951105         38.2716         15.4698         39.2657 
       0.957225         37.8386          15.237         38.8924 
       0.963368         37.7373         15.0083         38.4996 
       0.969511         37.3551         14.7842         38.1462 
       0.975621         37.1119         14.5659         37.9777 
       0.981748         36.6133         14.3515         37.6287 
       0.987916         36.2129         14.1401           37.35 
        0.99406         36.0265         13.9337         36.8966 
        1.00019         35.6291         13.7319         36.5295 
        1.00632         35.3678         13.5343         36.2454 
        1.01246          35.138         13.3403         35.9162 
        1.01859         34.6099         13.1505         35.7695 
        1.02471         34.4472         12.9646         35.5113 
        1.03085         34.1618         12.7816          35.102 
        1.03698         33.7955         12.6026         34.7864 
        1.04314         33.5454         12.4263          34.472 
        1.04929         33.2364         12.2537         34.2716 
        1.05541         32.8677         12.0851         34.1097 
        1.06154         32.8153         11.9193         33.7782 
        1.06769         32.4089         11.7564         33.4877 
        1.07382         32.2563          11.597         33.2488 
        1.07993         32.0135          11.441         32.9852 
        1.08607         31.7183         11.2872         32.7555 
        1.09222         31.4831          11.136         32.4638 
        1.09836         31.1854         10.9879         32.2065 
        1.10449         30.9753         10.8426         31.9944 
        1.11063         30.6054         10.6997         31.6553 
        1.11677         30.4089         10.5595         31.4032 
         1.1229         30.1783         10.4221         31.2858 
        1.12903         29.7757          10.287         31.0385 
        1.13518         29.8586         10.1542          30.791 
        1.14131         29.6108         10.0238          30.559 
        1.14745         29.1866          9.8958            30.4 
        1.15359         29.1142            9.77         30.1097 
        1.15973         28.7423         9.64634         29.9522 
        1.16584         28.5975         9.52537         29.6467 
        1.17197         28.4011         9.40632         29.5403 
        1.17811         28.2335         9.28893         29.2953 
        1.18424         27.9741          9.1739         29.0973 
        1.19038          27.765         9.06049         28.9009 
        1.19652         27.6942         8.94904         28.6383 
        1.20267          27.406         8.83947         28.5117 
        1.20881         27.2154         8.73177         28.3355 
        1.21495         26.9679         8.62603         28.1221 
        1.22108         26.8385         8.52207         27.9468 
         1.2272         26.5025         8.42007         27.7902 
        1.23334         26.4039          8.3195         27.5848 
        1.23949         26.3655         8.22035         27.3412 
        1.24562          26.001         8.12309         27.1805 
        1.25174         25.9174         8.02755         27.0574 
        1.25789         25.7533         7.93326         26.8594 
        1.26402         25.5189         7.84065         26.6598 
        1.27014         25.2911         7.74975         26.5457 
        1.27628         25.1297         7.66002         26.3535 
        1.28244         25.0017         7.57154         26.1913 
        1.28858         24.8595         7.48457         26.0136 
        1.29471         24.7531         7.39917         25.9069 
        1.30084         24.5884         7.31518         25.7107 
        1.30697         24.3697         7.23237          25.513 
        1.31312         24.1857         7.15072         25.3872 
        1.31925         24.0429         7.07059         25.2228 
        1.32537         23.8944         6.99177         25.1063 
        1.33151         23.7077         6.91388         24.9288 
        1.33765         23.6072         6.83722         24.7713 
        1.34378         23.4413         6.76187         24.6587 
        1.34992         23.2702         6.68761         24.5054 
        1.35606         23.1345         6.61431         24.3603 
         1.3622         23.0037         6.54223         24.2299 
        1.36833         22.7937         6.47141          24.126 
        1.37445         22.7298         6.40167          23.972 
        1.38059         22.5582         6.33275         23.8438 
        1.38675         22.3307         6.26467         23.7028 
        1.39288         22.3232         6.19787         23.5712 
        1.39901         22.1273         6.13207         23.4173 
        1.40515         21.9726         6.06708         23.2945 
         1.4113         21.8552         6.00306         23.1601 
        1.41742         21.7141         5.94021         23.0014 
        1.42355         21.5974         5.87814         22.9204 
         1.4297         21.4807         5.81677         22.7514 
        1.43585         21.4067          5.7563         22.6565 
        1.44198         21.1468         5.69692         22.5405 
        1.44809         21.0903         5.63849         22.3965 
        1.45423         20.9629         5.58067         22.2565 
        1.46036         20.8822         5.52376         22.1476 
        1.46649         20.7262         5.46763         22.0606 
        1.47263         20.5853         5.41224         21.9626 
        1.47877          20.515         5.35763         21.8252 
        1.48491         20.4788          5.3037         21.7161 
        1.49104         20.2471         5.25062         21.6018 
        1.49718         20.0722         5.19823         21.4985 
        1.50333         20.0565         5.14647         21.3652 
        1.50947         19.9412         5.09552         21.2531 
         1.5156         19.8223         5.04534         21.1651 
        1.52172         19.7052         4.99583         21.0619 
        1.52787         19.6066         4.94689         20.9414 
          1.534         19.5034         4.89866         20.8281 
        1.54013         19.3413         4.85112         20.7103 
        1.54627         19.2848         4.80413         20.6038 
        1.55241          19.093         4.75775         20.5122 
        1.55855         19.0498         4.71205         20.4131 
        1.56467         18.8685         4.66708         20.3319 
         1.5708         18.8916         4.62257         20.2273 
        1.57695         18.7028         4.57857         20.1165 
        1.58308         18.6081         4.53524         20.0279 
        1.58922          18.545         4.49245         19.9264 
        1.59535         18.4336         4.45022         19.8242 
         1.6015         18.2943         4.40848         19.7175 
        1.60764         18.1956         4.36729         19.6175 
        1.61376         18.0815         4.32675         19.5401 
        1.61989          17.982         4.28669         19.4653 
        1.62604         17.9394         4.24704         19.3681 
        1.63218         17.8714         4.20792         19.2813 
        1.63831         17.7193         4.16939         19.2092 
        1.64444         17.6484         4.13132         19.1073 
        1.65059         17.5481         4.09364         19.0032 
        1.65673         17.4174         4.05647         18.9227 
        1.66285         17.3937         4.01986         18.8574 
        1.66898         17.2839         3.98369         18.7748 
        1.67512            17.2          3.9479         18.6613 
        1.68127         17.0806         3.91252         18.5771 
         1.6874         16.9803         3.87764         18.4923 
        1.69353         16.9332         3.84321         18.3647 
        1.69967         16.8259         3.80912         18.3054 
        1.70581         16.7378         3.77546         18.2541 
        1.71193         16.6805         3.74233         18.1749 
        1.71806         16.5545         3.70953         18.0926 
        1.72421         16.4616         3.67706         18.0055 
        1.73035         16.3697         3.64501         17.9438 
        1.73649         16.3353         3.61335         17.8851 
        1.74262         16.2334         3.58209         17.7577 
        1.74876         16.1875         3.55118         17.6538 
        1.75489          16.089         3.52071         17.6021 
        1.76101         15.9916         3.49059         17.5603 
        1.76715         15.9248         3.46079         17.4693 
        1.77329         15.8706          3.4313         17.3737 
        1.77943          15.776         3.40214         17.2942 
        1.78557         15.6721         3.37336         17.2198 
        1.79171         15.5896         3.34491         17.1552 
        1.79785         15.5073         3.31679         17.0949 
        1.80399         15.4828         3.28899         17.0278 
        1.81012         15.3905         3.26155         16.9504 
        1.81625         15.3401         3.23443         16.8738 
        1.82239          15.253         3.20758         16.8087 
        1.82853         15.1605         3.18105         16.7518 
        1.83466         15.1031         3.15484         16.6809 
        1.84078         14.9765         3.12896          16.595 
        1.84692         14.9418         3.10332         16.5162 
        1.85306         14.8743         3.07794         16.4665 
         1.8592         14.7862         3.05288         16.4155 
        1.86533         14.7133         3.02811         16.3327 
        1.87147         14.6668         3.00359         16.2561 
