# k  (h/Mpc)    P(k)  (Mpc/h)^3    P_linear(k)  (Mpc/h)^3     P_NL(k)  ShotnoiseSubtracted = false
     0.00783031           25076         25490.6         25242.9 
       0.013688         28847.8         28467.7         28230.1 
       0.019231         26439.6         26297.1         26076.8 
      0.0249154         21668.9         22143.7         21974.1 
      0.0312784         17247.9           17375         17270.6 
      0.0375637         13817.2         13680.4         13635.7 
      0.0433917         11296.4         11385.3         11335.6 
      0.0492413         10017.9         9980.87         9941.77 
      0.0555754          8881.3         9091.18         9059.96 
      0.0619321         8556.11         8448.54         8414.12 
       0.067871         7654.11         7802.32         7780.97 
      0.0738098         6901.51          7005.8         6923.91 
      0.0800417         5946.51         6053.86         6037.33 
      0.0862327         5155.45         5126.26         5227.08 
      0.0921407         4564.19         4379.78         4517.33 
      0.0982031         3975.59         3817.78         4041.24 
       0.104506         3721.86         3448.33         3719.36 
       0.110769          3465.5         3241.63         3440.86 
       0.116806         3314.97         3117.74         3272.75 
       0.122832         3166.38          2996.7          3132.8 
       0.129052         2914.95         2825.11          2941.9 
       0.135211         2710.83         2596.86         2725.39 
       0.141259         2543.28         2338.48         2520.66 
       0.147318         2343.83         2083.16          2328.5 
       0.153489         2112.25         1860.96         2092.81 
       0.159709         1978.38         1693.95         1960.84 
       0.165845         1896.75         1584.59         1886.26 
       0.171974         1810.25         1515.95         1791.73 
       0.178125         1727.45         1466.77          1746.7 
       0.184229         1646.96         1417.37         1664.17 
        0.19034         1557.49         1354.07         1582.65 
       0.196428         1507.51         1274.07         1497.92 
       0.202534         1437.06         1182.68         1424.29 
       0.208729         1353.96         1089.39         1328.19 
       0.214876         1293.41         1006.58         1284.27 
       0.220989         1238.59         940.001         1235.31 
       0.227147         1190.15          889.73         1192.38 
        0.23329         1140.49         852.933          1159.5 
       0.239377         1118.25         823.925         1114.06 
       0.245482         1047.08         796.357         1066.67 
       0.251667         1038.67         765.573         1037.96 
       0.257832         991.997         730.454         993.466 
       0.263955         955.064         692.274         955.173 
       0.270079         916.979         653.458         921.062 
        0.27624         902.159         616.871         885.907 
       0.282372         865.445          584.99         864.745 
        0.28843         853.993         558.715         844.476 
       0.294538         808.608         536.859         817.415 
       0.300721         801.238         517.967         793.357 
        0.30691         770.161         500.509         781.452 
       0.313033         752.643         483.202         753.183 
       0.319153          735.08          465.14         730.496 
       0.325316         712.607          446.18          712.79 
        0.33145         693.223         427.167         685.443 
       0.337538         677.143         408.963         669.798 
       0.343633         661.785         392.083         659.998 
       0.349808          635.87         376.773         647.366 
       0.355968         630.349         363.207         632.433 
       0.362074         623.084         351.162         619.886 
       0.368217         602.383         339.914         603.239 
       0.374374         578.012         329.055         589.186 
       0.380519         577.035         318.332          574.96 
       0.386598         558.431         307.694         568.302 
       0.392688         554.764         297.143         553.014 
        0.39888         537.706         286.691         541.117 
       0.405048         529.824         276.765         529.884 
       0.411186         521.806         267.543         519.096 
       0.417313         510.979             259         510.067 
       0.423458         498.078         251.037         500.728 
       0.429607         493.517         243.567         492.498 
       0.435692         480.052         236.512         478.675 
       0.441815         474.019         229.617          474.75 
       0.447964         464.222         222.859         468.068 
       0.454126         458.745          216.24         454.457 
       0.460267         446.984         209.812         451.563 
       0.466387         440.543         203.634         443.982 
        0.47254         437.323         197.706         435.926 
       0.478662         431.439         192.104         427.557 
       0.484765         416.584         186.796         421.463 
       0.490885         412.621         181.731         413.241 
       0.497035         404.168         176.865         408.305 
       0.503198         400.348         172.171         403.051 
       0.509342         397.695         167.632         395.693 
       0.515458         393.084         163.239         391.026 
       0.521598         381.097         158.963         385.939 
       0.527764         377.204         154.811         382.338 
       0.533884          372.75         150.834         377.006 
           0.54         367.972         147.008         370.698 
       0.546137         364.984         143.314         366.165 
       0.552299         359.334         139.754          360.79 
       0.558452         356.015         136.337         356.672 
       0.564573         351.717         133.058         353.377 
       0.570708         345.503         129.876         348.668 
       0.576825         338.525         126.799         342.581 
       0.582926         336.811          123.82         339.884 
       0.589034          332.42         120.929         335.088 
       0.595184          330.41         118.111         330.015 
       0.601379         323.008         115.366         326.131 
       0.607522         320.022         112.734         320.905 
       0.613639         317.021         110.199         320.395 
       0.619772         312.793         107.737         318.197 
       0.625918         310.408         105.347         312.611 
       0.632068          304.73          103.03         310.072 
       0.638161         302.658         100.803         307.087 
         0.6443         298.794         98.6267         303.098 
       0.650464         296.157         96.5069         297.816 
       0.656582         291.566         94.4643         295.972 
       0.662703         291.376         92.4799         293.223 
       0.668861          287.41          90.541         291.751 
       0.675024         283.952         88.6563         288.793 
       0.681124         280.802         86.8443         284.285 
       0.687237         278.433         85.0799         281.229 
       0.693381         273.961         83.3568         278.397 
       0.699536         270.521         81.6791         276.534 
       0.705665         268.648         80.0554         272.157 
       0.711789         267.604         78.4779         270.875 
       0.717957          264.87         76.9325         269.659 
        0.72409         263.177         75.4377         265.725 
       0.730186         259.197          73.992         262.813 
       0.736317         257.146         72.5764         261.259 
       0.742472         254.205         71.1929         259.026 
       0.748622         252.493         69.8469             256 
        0.75476         249.072         68.5387         256.084 
       0.760888         246.466         67.2662         252.457 
       0.767043         245.636         66.0211         249.752 
       0.773185         243.561         64.8103         248.046 
       0.779291         239.992         63.6368         245.423 
       0.785407         239.167         62.4909         243.454 
       0.791564         236.677         61.3662         241.481 
       0.797719         234.203         60.2698         239.486 
       0.803834         231.259         59.2074         238.092 
       0.809972         230.575         58.1668         235.904 
       0.816124         229.133         57.1492          233.55 
       0.822261         227.462         56.1588         232.619 
       0.828378          225.04         55.1949         230.336 
       0.834502         222.421          54.253         228.609 
       0.840667         221.101          53.327         226.481 
       0.846816         219.773         52.4254          224.99 
       0.852925         218.208         51.5504         223.411 
       0.859047         216.186         50.6936         221.341 
       0.865192         213.457         49.8536         219.285 
       0.871341         211.501         49.0321          217.85 
       0.877463         211.714         48.2329         216.703 
       0.883569         209.272         47.4537          216.35 
       0.889708         206.921         46.6878         213.375 
       0.895864         206.704         45.9368         212.343 
       0.902008         204.283          45.204         210.121 
       0.908149         202.281         44.4877         208.563 
       0.914301         200.557         43.7858         206.849 
       0.920448         199.105         43.0998         205.899 
       0.926574         196.962         42.4309         204.342 
       0.932687         196.886         41.7777         202.533 
       0.938823         194.229          41.136         202.165 
       0.944975          193.84         40.5063         200.281 
       0.951105         192.115         39.8922         198.968 
       0.957225         191.219         39.2919         197.421 
       0.963368         188.216         38.7019         196.119 
       0.969511         187.411         38.1241          194.91 
       0.975621         186.093         37.5613         193.612 
       0.981748         184.793         37.0084         192.755 
       0.987916         183.631         36.4632         191.136 
        0.99406         182.318         35.9311         189.884 
        1.00019         180.701         35.4107         188.516 
        1.00632         179.948         34.9011         187.052 
        1.01246         178.224         34.4009         185.564 
        1.01859         177.769         33.9113         184.741 
        1.02471         175.401         33.4318         183.588 
        1.03085         174.521           32.96         182.606 
        1.03698         173.132         32.4984         181.923 
        1.04314         171.918         32.0437         180.388 
        1.04929         171.238         31.5987         178.947 
        1.05541         169.916          31.164         178.106 
        1.06154         168.254         30.7365          177.38 
        1.06769         167.845         30.3163          176.13 
        1.07382         166.386         29.9053         175.096 
        1.07993         165.171         29.5029         174.095 
        1.08607         164.818         29.1063         172.658 
        1.09222         163.042         28.7166         171.779 
        1.09836         161.735         28.3345         170.825 
        1.10449         160.524         27.9598         170.251 
        1.11063         159.337         27.5915         168.792 
        1.11677         158.524           27.23         167.764 
         1.1229         156.806         26.8756         166.706 
        1.12903         156.267         26.5272         165.672 
        1.13518          155.42         26.1847         164.837 
        1.14131         154.016         25.8485         163.871 
        1.14745         153.939         25.5184         162.543 
        1.15359         152.063          25.194         162.109 
        1.15973         150.926         24.8751         161.031 
        1.16584         150.378         24.5632          160.55 
        1.17197         150.064         24.2561         159.525 
        1.17811         147.972         23.9534         158.365 
        1.18424         147.505         23.6568         157.425 
        1.19038         146.707         23.3643         157.059 
        1.19652         145.214          23.077         155.568 
        1.20267         145.038         22.7944         155.219 
        1.20881         143.626         22.5167         154.168 
        1.21495         142.753          22.244         153.246 
        1.22108         141.964         21.9759         152.368 
         1.2272         140.768         21.7129         151.796 
        1.23334         140.706         21.4536         150.983 
        1.23949         138.904         21.1979         150.023 
        1.24562         138.276         20.9471         148.834 
        1.25174         137.531         20.7007         148.117 
        1.25789         136.902         20.4575         147.222 
        1.26402         135.255         20.2187         146.779 
        1.27014          134.79         19.9843         145.934 
        1.27628         133.733         19.7529         145.626 
        1.28244         133.473         19.5248         144.614 
        1.28858          132.21         19.3005          143.92 
        1.29471         131.597         19.0803         143.117 
        1.30084         130.447         18.8637         142.069 
        1.30697         129.414         18.6502         141.328 
        1.31312           128.6         18.4396         140.524 
        1.31925         127.812          18.233         140.021 
        1.32537         127.582         18.0297         139.277 
        1.33151         126.514         17.8289         138.587 
        1.33765         125.644         17.6312         137.943 
        1.34378         124.934         17.4369         137.193 
        1.34992          124.34         17.2454         136.456 
        1.35606         123.809         17.0564         135.563 
         1.3622         122.338         16.8705         135.204 
        1.36833         121.901         16.6879         134.381 
        1.37445         121.258          16.508         133.514 
        1.38059         120.438         16.3303          132.92 
        1.38675         119.957         16.1548         132.141 
        1.39288          118.83         15.9825         131.651 
        1.39901         118.341         15.8128         130.979 
        1.40515         117.596         15.6452         130.226 
         1.4113         117.034         15.4801          129.58 
        1.41742          115.84          15.318         128.999 
        1.42355         115.601          15.158         128.213 
         1.4297         114.533         14.9997         127.687 
        1.43585         113.905         14.8438         127.208 
        1.44198         113.769         14.6907          126.66 
        1.44809         112.845           14.54         125.863 
        1.45423           112.4         14.3909         125.143 
        1.46036         111.368         14.2442         124.557 
        1.46649         110.758         14.0994         124.056 
        1.47263         109.981         13.9566         123.479 
        1.47877         109.204         13.8158         122.648 
        1.48491         108.495         13.6767         122.056 
        1.49104         108.156         13.5398         121.648 
        1.49718         107.057         13.4047          121.01 
        1.50333         106.443         13.2712          120.32 
        1.50947         105.907         13.1399         119.773 
         1.5156         105.418         13.0104         119.304 
        1.52172         104.801         12.8828         118.783 
        1.52787         103.969         12.7566         118.117 
          1.534         103.592         12.6322         117.573 
        1.54013         103.065         12.5096         117.141 
        1.54627         102.414         12.3884         116.607 
        1.55241         101.729         12.2688         115.972 
        1.55855         101.075          12.151         115.343 
        1.56467         100.233          12.035         114.835 
         1.5708         99.7194         11.9202         114.254 
        1.57695         99.6397         11.8068         113.713 
        1.58308          98.979         11.6951         113.289 
        1.58922           98.31         11.5847         112.773 
        1.59535         97.6434         11.4758          112.26 
         1.6015         97.3855         11.3682         111.738 
        1.60764         96.7888          11.262         111.188 
        1.61376         96.0453         11.1574         110.703 
        1.61989         95.3043         11.0541         110.239 
        1.62604         94.9125         10.9519         109.519 
        1.63218         94.5234          10.851         108.953 
        1.63831         94.0232         10.7516         108.659 
        1.64444         93.3295         10.6535         108.167 
        1.65059         92.5027         10.5563         107.638 
        1.65673         92.3032         10.4604         107.089 
        1.66285            91.9          10.366         106.647 
        1.66898         91.2117         10.2728         106.293 
        1.67512          90.351         10.1805         105.721 
        1.68127         90.1338         10.0892         105.246 
         1.6874         89.7943          9.9993         104.834 
        1.69353         89.2287         9.91052         104.279 
        1.69967         88.6456         9.82261         103.847 
        1.70581         87.8291          9.7358         103.389 
        1.71193          87.306         9.65037         102.866 
        1.71806         87.2754         9.56578         102.427 
        1.72421         86.6651         9.48205         102.077 
        1.73035         86.3525          9.3994         101.641 
        1.73649         85.7196         9.31776         101.062 
        1.74262          85.232         9.23716         100.488 
        1.74876         84.7352         9.15746         100.058 
        1.75489         84.1474         9.07886         99.7185 
        1.76101         83.6125         9.00121         99.3627 
        1.76715          83.382         8.92436         98.9332 
        1.77329         82.6342         8.84831         98.4607 
        1.77943         82.4967         8.77312         98.0308 
        1.78557         82.0532         8.69891         97.6526 
        1.79171         81.2478         8.62555         97.1755 
        1.79785         80.9784         8.55302         96.6772 
        1.80399         80.4658         8.48133         96.3018 
        1.81012         80.0187         8.41057         95.9665 
        1.81625         79.6621         8.34064         95.5223 
        1.82239         79.1321          8.2714         95.0325 
        1.82853         78.6029         8.20298         94.6553 
        1.83466          78.287          8.1354         94.2202 
        1.84078         77.9567         8.06865         93.7757 
        1.84692         77.2609         8.00254         93.5078 
        1.85306         76.9898         7.93709         93.0376 
         1.8592         76.4234         7.87247         92.5078 
        1.86533         76.0167         7.80861         92.2439 
        1.87147          75.582         7.74538         91.9003 
        1.87761         74.9969         7.68283         91.4444 
