# k  (h/Mpc)    P(k)  (Mpc/h)^3    P_linear(k)  (Mpc/h)^3     P_NL(k)  ShotnoiseSubtracted = false
     0.00783031         443.238         447.915         443.845 
       0.013688         497.923         499.448         496.384 
       0.019231         461.283         461.295         458.886 
      0.0249154         387.507         388.441          387.31 
      0.0312784         305.467         304.801         305.127 
      0.0375637         241.033         239.996         240.487 
      0.0433917         200.176         199.738         200.223 
      0.0492413         175.524         175.103         175.523 
      0.0555754         159.306         159.497         159.603 
      0.0619321         148.584         148.224         148.153 
       0.067871          136.62         136.888         136.709 
      0.0738098         122.641         122.915         122.732 
      0.0800417         105.936         106.214         106.157 
      0.0862327         89.9574           89.94         90.0309 
      0.0921407         77.0229         76.8434         77.0093 
      0.0982031          67.032         66.9835         67.2046 
       0.104506         60.8038         60.5017         60.7111 
       0.110769         57.0404         56.8752         57.0099 
       0.116806         54.6484         54.7016         54.7499 
       0.122832         52.6124         52.5781         52.5839 
       0.129052         49.4445         49.5674         49.5458 
       0.135211         45.4486         45.5629         45.5594 
       0.141259           41.07         41.0297         41.0725 
       0.147318         36.6996         36.5499         36.6553 
       0.153489         32.7638         32.6514         32.7632 
       0.159709         29.8406         29.7213          29.852 
       0.165845         28.0186         27.8025         27.9448 
       0.171974         26.6449         26.5981         26.7078 
       0.178125         25.7975         25.7353         25.8357 
       0.184229         24.9467         24.8685         24.9459 
        0.19034         23.7059         23.7579         23.8204 
       0.196428          22.386         22.3542         22.4058 
       0.202534         20.9035         20.7508         20.8186 
       0.208729         19.2045         19.1139         19.1984 
       0.214876         17.7113         17.6611         17.7747 
       0.220989         16.6289         16.4929         16.6152 
       0.227147         15.6678         15.6109         15.7265 
        0.23329         15.0156         14.9653         15.0822 
       0.239377         14.5097         14.4563         14.5638 
       0.245482         13.9791         13.9726         14.0586 
       0.251667         13.4954         13.4325         13.5228 
       0.257832         12.8586         12.8163         12.9011 
       0.263955         12.2028         12.1464           12.23 
       0.270079         11.5354         11.4654         11.5531 
        0.27624          10.936         10.8234         10.9118 
       0.282372         10.3807         10.2641         10.3637 
        0.28843         9.88416         9.80304         9.90399 
       0.294538          9.4915         9.41956         9.51623 
       0.300721         9.19154         9.08809         9.18476 
        0.30691         8.84736         8.78178         8.87625 
       0.313033         8.53822         8.47812         8.56489 
       0.319153         8.16718         8.16121         8.24773 
       0.325316         7.91681         7.82855         7.91798 
        0.33145         7.56879         7.49495         7.58139 
       0.337538         7.25167         7.17555         7.26101 
       0.343633         6.93596         6.87938         6.96438 
       0.349808         6.68437         6.61076         6.70095 
       0.355968         6.45309         6.37273         6.47106 
       0.362074         6.22754          6.1614         6.25159 
       0.368217          6.0269         5.96404         6.04482 
       0.374374         5.81783         5.77351         5.85748 
       0.380519         5.64668         5.58536         5.66416 
       0.386598         5.46672         5.39873         5.47904 
       0.392688         5.29688          5.2136          5.2938 
        0.39888         5.10035         5.03021          5.1122 
       0.405048         4.93123         4.85605         4.93156 
       0.411186         4.77029         4.69424         4.77671 
       0.417313         4.60971         4.54435         4.62484 
       0.423458         4.47745         4.40462         4.48498 
       0.429607         4.33286         4.27357         4.34983 
       0.435692         4.20873         4.14978         4.22699 
       0.441815         4.08714          4.0288         4.10858 
       0.447964         3.98369         3.91023         3.98539 
       0.454126         3.84811         3.79409         3.86848 
       0.460267         3.73913         3.68131         3.75885 
       0.466387         3.61989         3.57291         3.64562 
        0.47254         3.52248          3.4689         3.54225 
       0.478662          3.4315         3.37061         3.44174 
       0.484765         3.32576         3.27748         3.34765 
       0.490885         3.24223         3.18861         3.26433 
       0.497035         3.17215         3.10323         3.18004 
       0.503198         3.07937         3.02087          3.0902 
       0.509342         3.00417         2.94123         3.01126 
       0.515458         2.91782         2.86416         2.93709 
       0.521598          2.8442         2.78913         2.85558 
       0.527764         2.76298         2.71627         2.78241 
       0.533884         2.70783          2.6465         2.71155 
           0.54         2.63547         2.57936         2.64339 
       0.546137         2.57225         2.51456         2.58096 
       0.552299         2.50931         2.45209         2.51201 
       0.558452         2.44002         2.39214         2.45355 
       0.564573         2.38959          2.3346         2.40074 
       0.570708         2.33175         2.27878         2.34244 
       0.576825         2.27279         2.22478         2.28625 
       0.582926         2.22656         2.17252         2.23494 
       0.589034         2.16099          2.1218         2.18703 
       0.595184         2.11574         2.07235         2.12888 
       0.601379          2.0664         2.02419         2.08759 
       0.607522         2.02696         1.97801         2.03907 
       0.613639         1.98697         1.93352         1.99284 
       0.619772         1.93279         1.89033         1.95203 
       0.625918          1.8965          1.8484         1.90659 
       0.632068         1.86017         1.80773         1.86403 
       0.638161         1.81363         1.76867         1.82559 
         0.6443         1.77526         1.73048         1.78525 
       0.650464         1.73176         1.69329         1.75129 
       0.656582         1.70301         1.65745         1.71379 
       0.662703         1.66675         1.62263         1.67719 
       0.668861          1.6377         1.58861         1.64502 
       0.675024         1.59958         1.55554         1.61061 
       0.681124         1.56437         1.52375         1.57696 
       0.687237         1.53693         1.49279         1.54326 
       0.693381         1.50653         1.46256         1.51159 
       0.699536         1.46818         1.43312         1.48292 
       0.705665         1.44141         1.40463         1.45847 
       0.711789         1.41705         1.37696          1.4287 
       0.717957         1.38549         1.34984         1.39924 
        0.72409         1.35942         1.32361         1.37386 
       0.730186         1.33363         1.29825         1.34664 
       0.736317         1.31583         1.27341         1.32023 
       0.742472         1.28968         1.24914         1.29853 
       0.748622         1.26265         1.22552         1.27568 
        0.75476         1.23589         1.20257         1.24984 
       0.760888         1.21324         1.18024         1.22729 
       0.767043         1.19813         1.15839           1.206 
       0.773185           1.171         1.13715         1.18528 
       0.779291         1.15209         1.11656           1.164 
       0.785407         1.13073         1.09645         1.14252 
       0.791564         1.11275         1.07672          1.1227 
       0.797719         1.09449         1.05748         1.10143 
       0.803834         1.07682         1.03884         1.08319 
       0.809972         1.05658         1.02058         1.06669 
       0.816124         1.03588         1.00273         1.04636 
       0.822261         1.01601        0.985351         1.02789 
       0.828378         1.00159        0.968439          1.0114 
       0.834502        0.987837        0.951912        0.993462 
       0.840667        0.966026        0.935665        0.977865 
       0.846816        0.950404        0.919845        0.963962 
       0.852925        0.939117        0.904493        0.946512 
       0.859047        0.922788         0.88946        0.933234 
       0.865192        0.905678        0.874721        0.916685 
       0.871341        0.891995        0.860307        0.901621 
       0.877463        0.879785        0.846286        0.886416 
       0.883569        0.863051        0.832613        0.873892 
       0.889708        0.850007        0.819174        0.860117 
       0.895864        0.835417        0.805998        0.845798 
       0.902008        0.822016        0.793141         0.83294 
       0.908149        0.809861        0.780573        0.819921 
       0.914301        0.793779        0.768257        0.807033 
       0.920448        0.782692         0.75622        0.794497 
       0.926574        0.770475        0.744485        0.783354 
       0.932687        0.758214        0.733024        0.769641 
       0.938823        0.749723        0.721764        0.760617 
       0.944975         0.73836        0.710716        0.747214 
       0.951105        0.727313         0.69994        0.736394 
       0.957225        0.719024        0.689407        0.726427 
       0.963368        0.707036        0.679056        0.715124 
       0.969511        0.695019        0.668918        0.705134 
       0.975621         0.68405        0.659042        0.693405 
       0.981748        0.677052        0.649342        0.683325 
       0.987916        0.665601        0.639776        0.675531 
        0.99406        0.654987         0.63044        0.666549 
        1.00019        0.647879        0.621309        0.656766 
        1.00632        0.636087        0.612368        0.646403 
        1.01246        0.627451        0.603591        0.637316 
        1.01859        0.619791           0.595        0.629461 
        1.02471        0.610514        0.586588        0.620459 
        1.03085         0.60363        0.578311        0.610774 
        1.03698        0.593859        0.570211        0.602299 
        1.04314        0.586312        0.562232        0.594327 
        1.04929        0.577556        0.554425        0.586592 
        1.05541        0.570948        0.546798        0.579376 
        1.06154         0.56188        0.539296        0.571519 
        1.06769         0.55433        0.531923        0.564063 
        1.07382        0.546987        0.524713        0.556255 
        1.07993        0.538603        0.517653        0.548795 
        1.08607         0.53409        0.510694        0.542456 
        1.09222        0.525469        0.503856         0.53428 
        1.09836        0.520502        0.497152        0.527845 
        1.10449        0.513812        0.490578        0.521296 
        1.11063        0.504727        0.484116        0.513671 
        1.11677         0.49792        0.477772        0.508002 
         1.1229        0.492213        0.471554        0.501462 
        1.12903        0.485656        0.465441        0.494985 
        1.13518        0.480388        0.459432        0.488614 
        1.14131        0.473327        0.453533        0.482699 
        1.14745        0.465007        0.447741        0.475705 
        1.15359        0.461025        0.442049        0.470922 
        1.15973        0.453747        0.436454        0.465255 
        1.16584        0.450969        0.430981        0.458698 
        1.17197        0.444348        0.425594        0.453859 
        1.17811        0.439872        0.420283        0.448552 
        1.18424        0.435016        0.415078        0.442386 
        1.19038        0.428059        0.409947        0.437112 
        1.19652        0.422348        0.404904        0.432448 
        1.20267        0.418984        0.399947        0.426329 
        1.20881        0.412718        0.395074        0.421729 
        1.21495        0.409044         0.39029        0.417808 
        1.22108        0.403579        0.385586        0.411862 
         1.2272         0.39966         0.38097        0.406775 
        1.23334        0.393847         0.37642        0.402416 
        1.23949        0.389571        0.371934        0.398098 
        1.24562        0.385169        0.367534        0.393462 
        1.25174          0.3811        0.363211         0.38864 
        1.25789        0.376893        0.358945        0.384314 
        1.26402        0.371144        0.354755         0.37998 
        1.27014        0.367128        0.350642        0.375368 
        1.27628        0.364302        0.346582         0.37086 
        1.28244          0.3583        0.342578        0.366937 
        1.28858        0.354981        0.338644        0.362541 
        1.29471        0.351741        0.334779        0.358721 
        1.30084        0.346878        0.330979        0.355512 
        1.30697        0.342924        0.327232        0.351304 
        1.31312        0.338043        0.323538        0.347187 
        1.31925        0.335136        0.319913        0.343812 
        1.32537        0.331916        0.316347        0.340135 
        1.33151        0.328967        0.312822        0.336424 
        1.33765        0.324943        0.309354         0.33277 
        1.34378        0.320433        0.305945        0.329129 
        1.34992        0.317615        0.302585        0.325652 
        1.35606        0.313924        0.299268        0.321806 
         1.3622        0.310785        0.296007        0.318561 
        1.36833        0.307143        0.292803        0.315574 
        1.37445        0.302994        0.289647        0.312328 
        1.38059        0.300204        0.286529        0.308878 
        1.38675         0.29863        0.283449        0.305328 
        1.39288        0.294567        0.280426          0.3022 
        1.39901        0.291434        0.277449        0.299208 
        1.40515        0.288608        0.274509        0.295997 
         1.4113        0.284895        0.271612        0.293335 
        1.41742        0.282165        0.268768        0.290874 
        1.42355        0.280315         0.26596        0.286711 
         1.4297        0.276284        0.263183        0.284852 
        1.43585         0.27363        0.260447        0.281495 
        1.44198        0.271982         0.25776        0.277994 
        1.44809        0.268265        0.255117        0.276254 
        1.45423        0.265724        0.252501        0.272643 
        1.46036        0.262952        0.249926         0.27022 
        1.46649        0.260627        0.247386        0.268051 
        1.47263        0.257621         0.24488        0.265151 
        1.47877        0.254772        0.242409        0.262639 
        1.48491        0.252517        0.239969        0.260366 
        1.49104        0.249431        0.237567        0.257028 
        1.49718        0.247277        0.235197        0.255393 
        1.50333         0.24499        0.232855        0.252263 
        1.50947        0.242569         0.23055        0.249655 
         1.5156        0.239982        0.228279        0.247798 
        1.52172        0.237742        0.226039        0.245134 
        1.52787         0.23532        0.223825        0.242719 
          1.534        0.233067        0.221643        0.240771 
        1.54013        0.230503        0.219492         0.23842 
        1.54627        0.228683        0.217366        0.235974 
        1.55241        0.226164        0.215267        0.233768 
        1.55855        0.223976          0.2132        0.231549 
        1.56467        0.222753        0.211165        0.229566 
         1.5708        0.219916        0.209151        0.227211 
        1.57695        0.218177         0.20716        0.224918 
        1.58308        0.215804          0.2052        0.223182 
        1.58922        0.213962        0.203264        0.221279 
        1.59535        0.211791        0.201353        0.219104 
         1.6015        0.209807        0.199464        0.216855 
        1.60764        0.208058        0.197601        0.215137 
        1.61376        0.205588        0.195766        0.213675 
        1.61989        0.204127        0.193954        0.211583 
        1.62604        0.202221         0.19216        0.209545 
        1.63218        0.200544         0.19039        0.207763 
        1.63831        0.198883        0.188646        0.205902 
        1.64444        0.196748        0.186924        0.203811 
        1.65059        0.194946        0.185219        0.202084 
        1.65673        0.193273        0.183537        0.200465 
        1.66285        0.191728        0.181881        0.198699 
        1.66898        0.190228        0.180245        0.196801 
        1.67512         0.18784        0.178625        0.195089 
        1.68127        0.186167        0.177024        0.193444 
         1.6874        0.185151        0.175446        0.191935 
        1.69353        0.183038        0.173889        0.190494 
        1.69967        0.181606        0.172346        0.188477 
        1.70581        0.179748        0.170823        0.186721 
        1.71193        0.178384        0.169324        0.185316 
        1.71806        0.176654         0.16784        0.183616 
        1.72421        0.175336        0.166371        0.182263 
        1.73035         0.17351        0.164921        0.180713 
        1.73649        0.172439        0.163488        0.178835 
        1.74262        0.170767        0.162074        0.177442 
        1.74876        0.169122        0.160676        0.176262 
        1.75489        0.167862        0.159297        0.174816 
        1.76101        0.166208        0.157934        0.173154 
        1.76715        0.164848        0.156586        0.171896 
        1.77329        0.163438        0.155251        0.170589 
        1.77943        0.161798        0.153932        0.169055 
        1.78557        0.160827         0.15263        0.167498 
        1.79171        0.159517        0.151343        0.165997 
        1.79785        0.158043         0.15007         0.16471 
        1.80399        0.156762        0.148812         0.16358 
        1.81012        0.155464        0.147571         0.16196 
        1.81625        0.154175        0.146344        0.160561 
        1.82239        0.153062        0.145129        0.159659 
        1.82853        0.151364        0.143929        0.158512 
        1.83466        0.150248        0.142743         0.15708 
        1.84078        0.148954        0.141572        0.155683 
        1.84692        0.147728        0.140412        0.154605 
        1.85306        0.146977        0.139263        0.153213 
         1.8592        0.145411         0.13813        0.151759 
        1.86533        0.144484        0.137009        0.150777 
        1.87147        0.143131          0.1359        0.149674 
        1.87761        0.142118        0.134802        0.148583 
