# k  (h/Mpc)    Pcb(k)  (Mpc/h)^3    Pcb_linear(k) (Mpc/h)^3    Pcb_NL(k) (Mpc/h)^3   ShotnoiseSubtracted = false
     0.00783031         1239.63         1253.32         1242.11 
       0.013688         1395.44         1397.13         1388.57 
       0.019231         1291.36         1290.27         1283.47 
      0.0249154          1082.2         1086.44         1083.21 
      0.0312784         854.042         852.477         853.314 
      0.0375637         674.676         671.217         672.512 
      0.0433917         559.458          558.62         559.909 
      0.0492413         491.014         489.717         490.878 
      0.0555754          444.81         446.069         446.383 
      0.0619321         416.317          414.54         414.395 
       0.067871         381.783         382.836         382.395 
      0.0738098         342.709         343.755         343.207 
      0.0800417         295.825         297.048          296.94 
      0.0862327         251.562         251.534         252.018 
      0.0921407         215.775         214.906         215.655 
      0.0982031         187.555         187.331         188.378 
       0.104506         170.703         169.204         170.313 
       0.110769         160.016         159.061         159.807 
       0.116806         153.051         152.983         153.417 
       0.122832         147.516         147.044         147.346 
       0.129052         138.336         138.624         138.807 
       0.135211         127.209         127.424         127.696 
       0.141259         115.239         114.746          115.23 
       0.147318         103.175         102.218         103.026 
       0.153489         92.0758         91.3149         92.0728 
       0.159709          83.992         83.1206         83.9898 
       0.165845         79.0458         77.7545         78.7565 
       0.171974         74.9751         74.3861         75.2077 
       0.178125          72.621         71.9731         72.7937 
       0.184229          70.237         69.5489         70.2579 
        0.19034         66.4883         66.4427         67.0627 
       0.196428          63.001         62.5172         63.0455 
       0.202534         59.0448          58.033         58.6501 
       0.208729         54.2229         53.4554         54.1493 
       0.214876         49.9948         49.3924         50.2814 
       0.220989         47.0839         46.1251         47.0641 
       0.227147          44.295         43.6583         44.5587 
        0.23329         42.4548         41.8527         42.7773 
       0.239377         41.0718         40.4294         41.3028 
       0.245482         39.4111         39.0766         39.8071 
       0.251667         38.1703         37.5662         38.3363 
       0.257832         36.4058          35.843         36.5723 
       0.263955         34.5545         33.9694         34.6829 
       0.270079          32.707         32.0647         32.7996 
        0.27624          31.127         30.2693         30.9989 
       0.282372         29.5905          28.705         29.5078 
        0.28843         28.1569         27.4158         28.2274 
       0.294538         27.0175         26.3433         27.1306 
       0.300721         26.2323         25.4163         26.2066 
        0.30691         25.1974         24.5596         25.3384 
       0.313033         24.3144         23.7105         24.4357 
       0.319153         23.1827         22.8242         23.5474 
       0.325316            22.6         21.8938         22.6367 
        0.33145         21.5789         20.9608         21.6785 
       0.337538         20.7312         20.0676         20.7753 
       0.343633         19.8231         19.2393         19.9483 
       0.349808         19.1327          18.488          19.231 
       0.355968         18.4973         17.8224         18.6179 
       0.362074          17.851         17.2313         17.9734 
       0.368217          17.265         16.6794         17.3566 
       0.374374         16.6726         16.1466         16.8419 
       0.380519         16.2014         15.6203          16.281 
       0.386598         15.6929         15.0984         15.7676 
       0.392688         15.2434         14.5806          15.251 
        0.39888           14.68         14.0678         14.7431 
       0.405048         14.2204         13.5807         14.2177 
       0.411186         13.7703         13.1282         13.8114 
       0.417313         13.2956          12.709         13.3716 
       0.423458          12.912         12.3182         12.9829 
       0.429607          12.505         11.9517         12.5892 
       0.435692         12.1386         11.6055         12.2464 
       0.441815         11.8117         11.2672         11.9245 
       0.447964          11.537         10.9356         11.5608 
       0.454126         11.1053         10.6108         11.2272 
       0.460267         10.8273         10.2954         10.9348 
       0.466387         10.4613         9.99223         10.5988 
        0.47254         10.2152         9.70133         10.3147 
       0.478662         9.97594         9.42644         10.0264 
       0.484765         9.65022         9.16598         9.75334 
       0.490885          9.4113         8.91745         9.53854 
       0.497035         9.23532         8.67868         9.30705 
       0.503198         8.96518         8.44834         9.03016 
       0.509342         8.73838         8.22561          8.8122 
       0.515458          8.4885         8.01007          8.6162 
       0.521598         8.29151         7.80025         8.36193 
       0.527764          8.0613         7.59648         8.14862 
       0.533884         7.90946         7.40137           7.948 
           0.54         7.69924         7.21358         7.75533 
       0.546137         7.52752         7.03238         7.58754 
       0.552299         7.35579         6.85766         7.37327 
       0.558452         7.13137         6.68999         7.21096 
       0.564573         7.00427         6.52907          7.0762 
       0.570708         6.84099         6.37296         6.90639 
       0.576825         6.65807         6.22196         6.74267 
       0.582926         6.52425          6.0758          6.5995 
       0.589034         6.32464         5.93394         6.47326 
       0.595184         6.21034         5.79565         6.28459 
       0.601379         6.05819         5.66096         6.18867 
       0.607522         5.95277         5.53182         6.04026 
       0.613639         5.84695         5.40739         5.90618 
       0.619772         5.68049         5.28659         5.79905 
       0.625918         5.60211         5.16933         5.66243 
       0.632068         5.50121         5.05561         5.53619 
       0.638161          5.3489         4.94636          5.4271 
         0.6443         5.23512         4.83957          5.3073 
       0.650464         5.10873         4.73555         5.22155 
       0.656582         5.04767         4.63532         5.11113 
       0.662703         4.93794         4.53794          5.0023 
       0.668861          4.8449         4.44281         4.91881 
       0.675024         4.73353         4.35032         4.81068 
       0.681124         4.63961         4.26141         4.71333 
       0.687237         4.55617         4.17483         4.61129 
       0.693381          4.4708         4.09028         4.51878 
       0.699536         4.34949         4.00795         4.43949 
       0.705665         4.28184         3.92828         4.37984 
       0.711789         4.20402         3.85087         4.28603 
       0.717957         4.11465         3.77504         4.19744 
        0.72409         4.03575          3.7017         4.13007 
       0.730186         3.97305         3.63075         4.04742 
       0.736317         3.91996         3.56129         3.96896 
       0.742472          3.8472          3.4934         3.91449 
       0.748622         3.76927         3.42735         3.84647 
        0.75476          3.6833         3.36316         3.76911 
       0.760888          3.6232         3.30072         3.70687 
       0.767043         3.57465         3.23962         3.64737 
       0.773185         3.49282         3.18021         3.58722 
       0.779291         3.44895         3.12263         3.52674 
       0.785407         3.38548          3.0664         3.46066 
       0.791564          3.3314         3.01121         3.40447 
       0.797719         3.26895         2.95741         3.34057 
       0.803834         3.23172         2.90528         3.28729 
       0.809972         3.17865         2.85422         3.24607 
       0.816124         3.10699         2.80429         3.18213 
       0.822261         3.04722         2.75569          3.1281 
       0.828378         3.00782         2.70839         3.08128 
       0.834502         2.97332         2.66217         3.02891 
       0.840667         2.90532         2.61673         2.98207 
       0.846816         2.85355         2.57249          2.9422 
       0.852925         2.82503         2.52956         2.89408 
       0.859047         2.77534         2.48751         2.85619 
       0.865192         2.73674         2.44629         2.80733 
       0.871341         2.69775         2.40598         2.76609 
       0.877463         2.65382         2.36677         2.71905 
       0.883569         2.60244         2.32853         2.68141 
       0.889708         2.55984         2.29095         2.64249 
       0.895864         2.52039          2.2541          2.5998 
       0.902008         2.48525         2.21814         2.56394 
       0.908149         2.45416         2.18299         2.52235 
       0.914301         2.40595         2.14855         2.49039 
       0.920448         2.36931         2.11489         2.44816 
       0.926574         2.33245         2.08207         2.42029 
       0.932687         2.30058         2.05002         2.37129 
       0.938823          2.2699         2.01853         2.35011 
       0.944975          2.2381         1.98763         2.31126 
       0.951105         2.20637         1.95749         2.27792 
       0.957225         2.18893         1.92804         2.25065 
       0.963368         2.15192         1.89909          2.2158 
       0.969511         2.11606         1.87073         2.18786 
       0.975621          2.0838         1.84312         2.15149 
       0.981748         2.06036         1.81599         2.12155 
       0.987916         2.02912         1.78923         2.09927 
        0.99406         1.99221         1.76312         2.07309 
        1.00019         1.96848         1.73759         2.04725 
        1.00632         1.94203         1.71258         2.01541 
        1.01246         1.91632         1.68804         1.99082 
        1.01859         1.89119         1.66401         1.96318 
        1.02471         1.86578         1.64049         1.93217 
        1.03085         1.83896         1.61734         1.90721 
        1.03698         1.81197         1.59468         1.88521 
        1.04314         1.79168         1.57237         1.85992 
        1.04929         1.76767         1.55054         1.83713 
        1.05541         1.74384         1.52921         1.81637 
        1.06154         1.72098         1.50823         1.79333 
        1.06769         1.70469         1.48761         1.77325 
        1.07382         1.67685         1.46744         1.74811 
        1.07993         1.65055          1.4477         1.72419 
        1.08607         1.63966         1.42824         1.70791 
        1.09222         1.61387         1.40911         1.68278 
        1.09836         1.59657         1.39036         1.66072 
        1.10449         1.57816         1.37198         1.64427 
        1.11063         1.55207          1.3539         1.62031 
        1.11677         1.53454         1.33617         1.60307 
         1.1229         1.51532         1.31877         1.58617 
        1.12903         1.49489         1.30168          1.5673 
        1.13518         1.47923         1.28487         1.54724 
        1.14131         1.45588         1.26838         1.52687 
        1.14745         1.43171         1.25218         1.50738 
        1.15359          1.4222         1.23626         1.49541 
        1.15973          1.3989         1.22061         1.47617 
        1.16584         1.38914          1.2053         1.45855 
        1.17197         1.37077         1.19024         1.44282 
        1.17811         1.35819         1.17539         1.42654 
        1.18424         1.34168         1.16083         1.40763 
        1.19038         1.32446         1.14648         1.39208 
        1.19652         1.30942         1.13238         1.37964 
        1.20267         1.29589         1.11851         1.36026 
        1.20881         1.27819         1.10489         1.34555 
        1.21495         1.26599         1.09151         1.33494 
        1.22108         1.25099         1.07835         1.31793 
         1.2272         1.23879         1.06544         1.30099 
        1.23334         1.22035         1.05272         1.29003 
        1.23949         1.20628         1.04017          1.2783 
        1.24562         1.19575         1.02787         1.26371 
        1.25174          1.1807         1.01578         1.24686 
        1.25789         1.16881         1.00384         1.23306 
        1.26402         1.15272        0.992127         1.21942 
        1.27014         1.14018        0.980624         1.20864 
        1.27628          1.1325         0.96927         1.19507 
        1.28244         1.11477        0.958074         1.18141 
        1.28858          1.1053         0.94707         1.16885 
        1.29471         1.09114        0.936263         1.15651 
        1.30084         1.07762        0.925635         1.14805 
        1.30697         1.07007        0.915157          1.1342 
        1.31312         1.05193        0.904825          1.1219 
        1.31925         1.04448        0.894686         1.11415 
        1.32537         1.03282        0.884713         1.10198 
        1.33151         1.02538        0.874856         1.09021 
        1.33765         1.01095        0.865156         1.07973 
        1.34378         1.00087        0.855622         1.06913 
        1.34992        0.992946        0.846225         1.05781 
        1.35606         0.97705         0.83695         1.04521 
         1.3622         0.97103         0.82783         1.03529 
        1.36833        0.959553        0.818868         1.02873 
        1.37445        0.947773        0.810044         1.01789 
        1.38059        0.941301        0.801322         1.00744 
        1.38675          0.9346        0.792708        0.995267 
        1.39288        0.922142        0.784255        0.988369 
        1.39901        0.910529         0.77593        0.978265 
        1.40515        0.901902        0.767706        0.967926 
         1.4113        0.893577        0.759605        0.960255 
        1.41742         0.88529        0.751652        0.952097 
        1.42355        0.878586        0.743798        0.938946 
         1.4297        0.866897        0.736032        0.935175 
        1.43585        0.859617        0.728381        0.925761 
        1.44198        0.852957        0.720867        0.914363 
        1.44809        0.841877        0.713474        0.907913 
        1.45423        0.833979        0.706158        0.897241 
        1.46036         0.82524        0.698957        0.889449 
        1.46649         0.81793        0.691854        0.883034 
        1.47263        0.808463        0.684845        0.874752 
        1.47877        0.800187        0.677935        0.865508 
        1.48491        0.793234        0.671111        0.859195 
        1.49104        0.786065        0.664394        0.849201 
        1.49718        0.779191        0.657765        0.843522 
        1.50333        0.769996        0.651216        0.835507 
        1.50947        0.764303        0.644769        0.826828 
         1.5156        0.756273        0.638419        0.820541 
        1.52172        0.748759        0.632154        0.814456 
        1.52787        0.741355        0.625961        0.804987 
          1.534        0.734993        0.619858        0.798847 
        1.54013        0.727318        0.613843        0.791883 
        1.54627        0.719795        0.607897        0.783826 
        1.55241        0.713291        0.602029        0.777532 
        1.55855        0.707908        0.596246        0.770911 
        1.56467        0.701735        0.590555        0.764806 
         1.5708        0.693087        0.584923        0.757378 
        1.57695        0.689236        0.579355        0.751047 
        1.58308         0.68202        0.573873        0.745839 
        1.58922        0.675909        0.568458        0.738811 
        1.59535        0.669668        0.563115        0.732887 
         1.6015        0.663368        0.557833        0.726498 
        1.60764        0.658827        0.552622        0.720364 
        1.61376        0.652406        0.547491        0.715511 
        1.61989        0.646074        0.542422        0.709572 
        1.62604        0.639361        0.537405        0.703616 
        1.63218         0.63586        0.532455        0.698075 
        1.63831        0.629206        0.527579        0.692187 
        1.64444        0.623359        0.522762        0.685702 
        1.65059         0.61835        0.517994         0.68028 
        1.65673         0.61192        0.513291        0.674825 
        1.66285        0.606755        0.508659        0.668901 
        1.66898        0.603369        0.504082        0.663118 
        1.67512        0.595334        0.499553        0.658457 
        1.68127        0.591018        0.495076        0.654093 
         1.6874        0.588063        0.490663        0.649228 
        1.69353        0.580578        0.486307        0.643558 
        1.69967        0.575082        0.481993        0.637771 
        1.70581        0.572381        0.477733        0.633359 
        1.71193        0.566392        0.473541        0.629215 
        1.71806        0.562701        0.469391        0.623057 
        1.72421        0.557448        0.465282        0.618091 
        1.73035        0.551495        0.461227        0.613598 
        1.73649        0.548368        0.457221        0.608587 
        1.74262        0.543522        0.453265        0.603923 
        1.74876        0.538328        0.449354        0.600208 
        1.75489         0.53262        0.445498        0.595847 
        1.76101        0.529189        0.441687        0.590309 
        1.76715        0.525111        0.437916        0.585767 
        1.77329        0.521143        0.434185        0.581612 
        1.77943        0.515258        0.430495         0.57702 
        1.78557        0.511449        0.426854        0.572165 
        1.79171        0.508755        0.423254        0.567818 
        1.79785        0.503227        0.419695        0.563979 
        1.80399        0.499736        0.416177        0.559998 
        1.81012         0.49575        0.412705         0.55508 
        1.81625        0.491318        0.409273        0.550698 
        1.82239        0.487984        0.405876        0.547523 
        1.82853        0.482236        0.402519         0.54435 
        1.83466        0.479294        0.399202        0.540481 
        1.84078        0.475151        0.395927        0.536084 
        1.84692        0.472789        0.392683        0.531798 
        1.85306        0.468662        0.389471        0.527375 
         1.8592        0.464623        0.386301        0.523663 
        1.86533        0.460731        0.383167        0.520702 
        1.87147        0.457281        0.380064        0.516349 
