# k  (h/Mpc)    P(k)  (Mpc/h)^3    P_linear(k)  (Mpc/h)^3     P_NL(k)  ShotnoiseSubtracted = false
     0.00783031         19150.9         19446.8         19264.3 
       0.013688         21933.3         21689.9         21521.8 
       0.019231           20132         20030.3         19878.8 
      0.0249154         16560.4         16864.9         16756.3 
      0.0312784         13165.6         13232.3         13176.7 
      0.0375637         10518.3         10418.3         10398.4 
      0.0433917         8619.66         8670.36         8647.49 
      0.0492413         7629.99         7600.75         7584.05 
      0.0555754         6791.74         6923.18         6908.08 
      0.0619321         6516.09         6433.76          6415.2 
       0.067871         5852.41         5941.63         5930.09 
      0.0738098         5270.97         5335.06         5288.17 
      0.0800417         4540.78         4610.12         4602.31 
      0.0862327         3922.07         3903.73          3966.7 
      0.0921407         3450.36         3335.27         3420.32 
      0.0982031         2999.17          2907.3         3044.41 
       0.104506         2797.97         2625.96         2791.63 
       0.110769         2607.53         2468.55         2588.42 
       0.116806         2489.97         2374.21         2466.91 
       0.122832         2386.14         2282.04         2364.14 
       0.129052         2201.65         2151.36          2220.9 
       0.135211         2044.69         1977.55         2055.51 
       0.141259         1906.18         1780.79         1890.83 
       0.147318         1745.96         1586.35          1737.6 
       0.153489         1568.61         1417.14         1557.69 
       0.159709         1464.74         1289.97         1451.81 
       0.165845         1398.56         1206.69          1391.9 
       0.171974         1331.55         1154.42         1320.83 
       0.178125         1274.71         1116.97         1287.22 
       0.184229         1220.86         1079.35         1229.31 
        0.19034         1145.84         1031.14          1169.1 
       0.196428         1110.14         970.219         1102.34 
       0.202534         1058.45         900.626         1044.74 
       0.208729         991.868         829.582         972.988 
       0.214876         938.825         766.526         937.121 
       0.220989         897.487         715.824         896.977 
       0.227147         858.884         677.541         861.496 
        0.23329           823.2          649.52         836.922 
       0.239377         805.338          627.43         803.927 
       0.245482          751.61         606.436         768.702 
       0.251667         744.737         582.994         748.079 
       0.257832         712.117         556.251         714.582 
       0.263955         684.952         527.176         685.062 
       0.270079         655.141         497.617         659.177 
        0.27624          643.88         469.755          631.89 
       0.282372         617.574         445.478         613.576 
        0.28843         603.868         425.469         596.321 
       0.294538         571.583         408.825         577.632 
       0.300721         566.821         394.439         560.847 
        0.30691         541.956         381.144         550.014 
       0.313033         529.905         367.965         529.729 
       0.319153         514.215          354.21         513.423 
       0.325316         498.912         339.772         499.485 
        0.33145         483.124         325.293         479.656 
       0.337538         473.166         311.431         466.985 
       0.343633          459.14         298.576          460.01 
       0.349808         441.198         286.918          449.83 
       0.355968         436.744         276.587         439.658 
       0.362074         430.156         267.415         429.164 
       0.368217         416.882         258.849         415.797 
       0.374374          397.95          250.58         405.723 
       0.380519         396.109         242.414          394.93 
       0.386598         384.403         234.313         390.339 
       0.392688          380.85         226.279         377.873 
        0.39888           369.7         218.319         370.177 
       0.405048         361.456          210.76         363.034 
       0.411186         355.502         203.737         353.423 
       0.417313         347.978         197.232           346.1 
       0.423458         339.402         191.168         340.084 
       0.429607         334.717         185.479         333.489 
       0.435692         325.409         180.107         324.207 
       0.441815         321.546         174.856         320.754 
       0.447964         313.921          169.71         315.111 
       0.454126         307.344          164.67         305.833 
       0.460267         300.723         159.775         303.552 
       0.466387         296.564          155.07         297.859 
        0.47254         291.186         150.556          292.21 
       0.478662         289.563          146.29         286.161 
       0.484765         278.588         142.248         280.735 
       0.490885         275.523         138.391         275.868 
       0.497035         269.999         134.685         271.969 
       0.503198         266.073         131.111         267.869 
       0.509342         264.065         127.654         263.463 
       0.515458         260.079         124.309         260.046 
       0.521598         252.823         121.053         255.473 
       0.527764          249.85          117.89         252.806 
       0.533884         246.738         114.862         249.006 
           0.54         243.015         111.948          244.17 
       0.546137         241.276         109.136         241.123 
       0.552299         236.326         106.425         237.081 
       0.558452         234.782         103.822         233.864 
       0.564573         231.339         101.325         231.756 
       0.570708         226.204         98.9026         228.925 
       0.576825         222.186          96.559         224.079 
       0.582926         219.831         94.2908         221.827 
       0.589034         217.249         92.0892         219.074 
       0.595184         215.354          89.943         214.967 
       0.601379          211.19         87.8529         212.465 
       0.607522         208.609         85.8488          209.19 
       0.613639         206.547         83.9176         208.528 
       0.619772         202.649          82.043         206.573 
       0.625918         201.457         80.2232         202.458 
       0.632068         197.637         78.4584         199.953 
       0.638161         196.494         76.7628         198.745 
         0.6443         193.353         75.1055         196.132 
       0.650464         191.297         73.4913         192.081 
       0.656582         188.491         71.9358         190.697 
       0.662703         188.265         70.4247         188.771 
       0.668861         185.221         68.9482         187.275 
       0.675024         182.265         67.5129          185.24 
       0.681124          180.65         66.1331         182.169 
       0.687237         178.694         64.7894         180.245 
       0.693381         175.702         63.4773          178.12 
       0.699536         174.016         62.1997         176.647 
       0.705665         172.247         60.9632         174.246 
       0.711789         170.808         59.7619         173.286 
       0.717957         169.892         58.5851         171.883 
        0.72409         167.812         57.4468         169.829 
       0.730186         165.403         56.3458         167.915 
       0.736317         163.605         55.2679         166.205 
       0.742472         162.057         54.2143         164.362 
       0.748622         160.768         53.1893         162.717 
        0.75476         158.906         52.1931         162.194 
       0.760888         157.204         51.2241         159.558 
       0.767043         156.557         50.2759         158.372 
       0.773185         155.158         49.3539         157.126 
       0.779291         152.184         48.4603         155.162 
       0.785407         151.622         47.5877         153.723 
       0.791564         150.205         46.7311         152.329 
       0.797719          147.57         45.8963         151.244 
       0.803834         146.626         45.0872         150.107 
       0.809972         145.961         44.2948         148.693 
       0.816124         144.772         43.5199         147.303 
       0.822261         143.723         42.7657         146.316 
       0.828378         142.136         42.0317         144.695 
       0.834502          141.27         41.3144         143.325 
       0.840667         139.392         40.6092         142.057 
       0.846816         138.167         39.9226         141.154 
       0.852925         137.169         39.2563         140.086 
       0.859047         136.186         38.6038         138.984 
       0.865192         134.206         37.9641         137.377 
       0.871341         133.141         37.3386         136.377 
       0.877463         132.228           36.73         135.621 
       0.883569         131.714         36.1366         135.024 
       0.889708         129.996         35.5533          133.31 
       0.895864          128.87         34.9815         132.485 
       0.902008         127.837         34.4235         131.191 
       0.908149         127.301          33.878         130.215 
       0.914301          125.54         33.3435         129.088 
       0.920448         124.821         32.8211         128.231 
       0.926574         123.625         32.3117         127.146 
       0.932687         123.553         31.8143         126.424 
       0.938823         121.666         31.3256          125.52 
       0.944975         121.053         30.8461         124.482 
       0.951105         120.042         30.3784         123.521 
       0.957225         119.403         29.9213         122.584 
       0.963368         117.343          29.472         121.724 
       0.969511         117.036          29.032         120.679 
       0.975621         115.939         28.6034         120.233 
       0.981748         115.763         28.1824         119.423 
       0.987916         114.539         27.7672         118.468 
        0.99406         113.599          27.362         117.514 
        1.00019         113.175         26.9657         116.602 
        1.00632         111.878         26.5777         115.759 
        1.01246         111.239         26.1967         114.666 
        1.01859         110.806         25.8239         114.235 
        1.02471         109.268         25.4588         113.624 
        1.03085         108.428         25.0995         112.946 
        1.03698         107.898          24.748         112.435 
        1.04314         106.675         24.4017         111.383 
        1.04929         106.546         24.0628         110.656 
        1.05541          105.56         23.7318         110.108 
        1.06154         104.898         23.4062         109.396 
        1.06769         104.507         23.0862         108.691 
        1.07382         103.351         22.7733         108.065 
        1.07993         102.691         22.4669          107.35 
        1.08607         102.002         22.1648         106.536 
        1.09222         101.547         21.8681         105.993 
        1.09836         100.686         21.5771         105.216 
        1.10449         99.6409         21.2918         104.871 
        1.11063         99.0454         21.0113         104.016 
        1.11677         98.2878          20.736         103.255 
         1.1229         97.6715         20.4661         102.695 
        1.12903         97.3126         20.2008         102.031 
        1.13518         96.6813           19.94         101.505 
        1.14131         95.6598          19.684         100.654 
        1.14745         95.4924         19.4326         100.118 
        1.15359          94.545         19.1855         99.6824 
        1.15973         94.0835         18.9427          99.124 
        1.16584         93.2826         18.7052          98.367 
        1.17197         92.7186         18.4714         98.0217 
        1.17811         91.9791         18.2409         97.2794 
        1.18424         91.7216          18.015         96.5902 
        1.19038         91.4414         17.7923         96.3774 
        1.19652         90.5772         17.5734          95.653 
        1.20267         89.8126         17.3582          95.168 
        1.20881         89.4428         17.1467         94.4714 
        1.21495         88.4614         16.9391         94.1033 
        1.22108         88.2307          16.735         93.5053 
         1.2272         87.3938         16.5346         92.9242 
        1.23334         86.9513         16.3372         92.6422 
        1.23949         86.4906         16.1425         92.0351 
        1.24562          85.879         15.9515         91.2148 
        1.25174         85.5605         15.7639         90.7568 
        1.25789         84.9572         15.5787         90.2296 
        1.26402           83.86         15.3968         89.9824 
        1.27014         83.6418         15.2183         89.5059 
        1.27628         83.3011         15.0421         89.2129 
        1.28244         82.9155         14.8684         88.5309 
        1.28858          82.379         14.6976         88.0288 
        1.29471         81.6525         14.5299         87.5689 
        1.30084         81.5343          14.365         86.9098 
        1.30697         80.5537         14.2023         86.5069 
        1.31312          80.176          14.042         86.0696 
        1.31925         79.6597         13.8847         85.7309 
        1.32537          79.234         13.7299         85.3714 
        1.33151         78.6882         13.5769         84.8478 
        1.33765         78.1962         13.4264         84.4207 
        1.34378         77.8201         13.2784          84.014 
        1.34992          77.521         13.1326          83.465 
        1.35606          77.018         12.9886         83.0351 
         1.3622         76.3178         12.8471         82.6786 
        1.36833         75.9671          12.708         82.1361 
        1.37445          75.638         12.5711         81.8383 
        1.38059         74.9127         12.4357         81.1649 
        1.38675         74.4131         12.3021         80.8499 
        1.39288         74.3464         12.1709         80.3292 
        1.39901         73.7744         12.0417         80.0763 
        1.40515         73.1618          11.914         79.8126 
         1.4113         72.9568         11.7883         79.4581 
        1.41742          72.427         11.6649         79.0243 
        1.42355         72.0845          11.543          78.491 
         1.4297         71.6815         11.4225         78.2214 
        1.43585         71.1686         11.3038         77.7047 
        1.44198         70.7584         11.1872         77.5477 
        1.44809         70.5458         11.0724         77.0728 
        1.45423         70.1672         10.9589         76.5344 
        1.46036         69.5731         10.8471         76.1979 
        1.46649          69.178         10.7369         75.9644 
        1.47263         68.6032         10.6281         75.6398 
        1.47877         68.2911         10.5209         75.1089 
        1.48491         67.9346          10.415         74.7486 
        1.49104         67.6781         10.3107         74.5747 
        1.49718         67.2809         10.2079         74.0236 
        1.50333         66.9653         10.1062         73.6471 
        1.50947         66.4021         10.0062         73.3948 
         1.5156         66.2603         9.90763          73.046 
        1.52172         65.8033         9.81041         72.6432 
        1.52787         65.3139          9.7143         72.3169 
          1.534         64.9557         9.61959         72.0456 
        1.54013         64.6002         9.52624         71.7372 
        1.54627         64.3078         9.43396          71.381 
        1.55241         63.9507         9.34289         71.0007 
        1.55855         63.5512         9.25315         70.6358 
        1.56467         63.2665         9.16483         70.3851 
         1.5708         62.7689         9.07742         70.0407 
        1.57695         62.7263         8.99102         69.7002 
        1.58308         62.3117         8.90594         69.4449 
        1.58922         61.9245          8.8219         69.1125 
        1.59535         61.6079         8.73898         68.8384 
         1.6015         61.2547         8.65702         68.4609 
        1.60764         60.8747         8.57614         68.0997 
        1.61376         60.6108         8.49652         67.9192 
        1.61989         60.2512         8.41785         67.6191 
        1.62604         59.9179            8.34         67.1112 
        1.63218         59.7574         8.26318         66.7875 
        1.63831         59.1165          8.1875         66.6835 
        1.64444         58.7838         8.11275         66.3514 
        1.65059         58.5325         8.03875         66.0163 
        1.65673         58.1534         7.96576         65.6828 
        1.66285         57.9622         7.89387         65.4167 
        1.66898         57.7338         7.82285         65.2034 
        1.67512         57.1791         7.75257         64.8625 
        1.68127         57.0305         7.68308         64.6124 
         1.6874         56.6143          7.6146         64.3723 
        1.69353         56.3212         7.54699         63.9716 
        1.69967         56.1594         7.48005         63.7155 
        1.70581         55.7679         7.41394         63.4859 
        1.71193         55.4572         7.34889          63.207 
        1.71806         55.1893         7.28447         62.9398 
        1.72421         54.9056          7.2207         62.6606 
        1.73035         54.6171         7.15777         62.3795 
        1.73649         54.3697          7.0956         62.1028 
        1.74262         53.9698         7.03422         61.8207 
        1.74876         53.7747         6.97353         61.5665 
        1.75489         53.4523         6.91367         61.3119 
        1.76101         53.2345         6.85454         61.0352 
        1.76715         52.8078         6.79602         60.7702 
        1.77329          52.563         6.73811         60.4927 
        1.77943         52.3029         6.68085         60.2251 
        1.78557         52.1107         6.62434         59.9947 
        1.79171         51.7224         6.56847         59.7539 
        1.79785         51.3737         6.51324         59.4772 
        1.80399         51.2177         6.45865         59.1854 
        1.81012         50.9546         6.40476         58.9561 
        1.81625         50.7152         6.35151         58.7308 
        1.82239         50.3561         6.29878         58.4761 
        1.82853         50.1829         6.24668         58.2393 
        1.83466         49.9425         6.19522         57.9775 
        1.84078         49.5362         6.14439          57.731 
        1.84692         49.3857         6.09404         57.5721 
        1.85306         49.0965          6.0442         57.3022 
         1.8592         48.9363         5.99499          56.985 
        1.86533         48.5766         5.94636          56.789 
        1.87147         48.2327         5.89821         56.5656 
        1.87761         48.0548         5.85057         56.3152 
