# k  (h/Mpc)    P(k)  (Mpc/h)^3    P_linear(k)  (Mpc/h)^3     P_NL(k)  ShotnoiseSubtracted = false
     0.00783031         2739.85         2771.87         2747.23 
       0.013688         3092.46         3089.24         3069.99 
       0.019231         2857.97         2852.73         2837.18 
      0.0249154         2387.82         2401.96         2394.22 
      0.0312784         1886.99         1884.65         1885.81 
      0.0375637         1493.03         1483.89         1486.33 
      0.0433917          1235.7         1234.96         1237.38 
      0.0492413         1085.89         1082.62         1084.91 
      0.0555754         981.249         986.125         986.728 
      0.0619321          922.41         916.422         916.093 
       0.067871         843.041          846.33         845.487 
      0.0738098         756.894         759.933         758.446 
      0.0800417         652.892         656.676         656.551 
      0.0862327         556.348         556.059         558.028 
      0.0921407         478.594         475.087         477.871 
      0.0982031         415.519         414.127         418.201 
       0.104506          379.85         374.053         378.639 
       0.110769         355.727         351.632         354.804 
       0.116806         339.682         338.193          340.39 
       0.122832         327.671         325.064         326.905 
       0.129052         306.417         306.451         307.856 
       0.135211         282.087         281.692         283.448 
       0.141259         256.496         253.665         256.245 
       0.147318         230.286         225.969         229.872 
       0.153489         205.518         201.866         205.401 
       0.159709         188.054         183.751         187.786 
       0.165845          177.42         171.888         176.615 
       0.171974         167.963         164.442         168.422 
       0.178125         162.669         159.108         163.185 
       0.184229         157.284         153.749         157.366 
        0.19034         148.174         146.882          150.11 
       0.196428         141.121         138.204         141.006 
       0.202534         132.845         128.291         131.469 
       0.208729         122.127         118.171         121.617 
       0.214876         112.731         109.189         113.526 
       0.220989         106.523         101.967         106.527 
       0.227147         100.204         96.5135         100.932 
        0.23329         96.0583          92.522         97.0739 
       0.239377         93.1184         89.3753          93.696 
       0.245482         88.7571         86.3849         90.0759 
       0.251667          86.342         83.0456         86.9264 
       0.257832         82.5634         79.2361         82.9183 
       0.263955         78.3962         75.0945         78.7047 
       0.270079         74.3323         70.8839         74.5944 
        0.27624         71.1567         66.9151         70.5854 
       0.282372         67.8106         63.4569         67.4234 
        0.28843         64.5611         60.6067         64.6076 
       0.294538         61.8672         58.2359         62.1606 
       0.300721         60.2951         56.1866          60.136 
        0.30691          57.777         54.2928         58.1931 
       0.313033         55.8038         52.4155         56.0714 
       0.319153         53.0957         50.4562         54.0902 
       0.325316         51.9672         48.3995         52.1214 
        0.33145         49.5781         46.3371         49.9319 
       0.337538         47.8895         44.3624         47.9066 
       0.343633         45.8412         42.5313         46.1359 
       0.349808         44.2824         40.8706         44.6089 
       0.355968         42.9399          39.399         43.3163 
       0.362074         41.4699         38.0925         41.8132 
       0.368217         40.0827         36.8723         40.3275 
       0.374374         38.7903         35.6944         39.1859 
       0.380519         37.7353         34.5312         37.8888 
       0.386598         36.5646         33.3773         36.7578 
       0.392688         35.6175         32.2327         35.6267 
        0.39888         34.3725          31.099         34.4725 
       0.405048         33.3557         30.0222         33.3035 
       0.411186         32.3711         29.0218          32.458 
       0.417313         31.2768         28.0951         31.4122 
       0.423458         30.3685         27.2313         30.5675 
       0.429607         29.4808          26.421         29.6644 
       0.435692          28.547         25.6557         28.8886 
       0.441815         27.9326         24.9078         28.2027 
       0.447964          27.328         24.1747         27.3407 
       0.454126         26.1735         23.4567          26.555 
       0.460267         25.6525         22.7595         25.9654 
       0.466387         24.8173         22.0893         25.1718 
        0.47254          24.307         21.4462         24.5639 
       0.478662         23.8156         20.8386         23.9163 
       0.484765         23.0274         20.2628         23.2499 
       0.490885         22.4701         19.7134         22.8101 
       0.497035         22.0968         19.1855         22.3115 
       0.503198         21.4543         18.6763          21.649 
       0.509342         20.8848         18.1839         21.1739 
       0.515458         20.3404         17.7075         20.7697 
       0.521598         19.9306         17.2436         20.1295 
       0.527764         19.4369         16.7932         19.6008 
       0.533884         19.0782         16.3618         19.1643 
           0.54         18.5746         15.9467         18.7433 
       0.546137         18.2299         15.5461         18.3791 
       0.552299         17.8631         15.1599         17.8583 
       0.558452         17.2918         14.7892         17.4775 
       0.564573         16.9982         14.4335         17.1949 
       0.570708         16.6512         14.0884         16.8147 
       0.576825         16.2177         13.7546         16.4388 
       0.582926         15.8622         13.4315         16.1044 
       0.589034         15.4048         13.1179         15.8383 
       0.595184         15.1773         12.8121         15.3919 
       0.601379         14.8139         12.5144         15.1873 
       0.607522         14.5366         12.2289         14.8078 
       0.613639         14.3302         11.9538         14.5141 
       0.619772         13.9363         11.6868         14.2741 
       0.625918         13.8055         11.4276         13.9794 
       0.632068         13.5661         11.1762         13.6725 
       0.638161         13.2096         10.9347         13.4174 
         0.6443         12.9299         10.6986          13.133 
       0.650464         12.6456         10.4686         12.9442 
       0.656582         12.5385         10.2471         12.6955 
       0.662703         12.2738         10.0318         12.4301 
       0.668861          12.014         9.82149         12.2614 
       0.675024         11.7611         9.61704         11.9724 
       0.681124          11.549         9.42049         11.7588 
       0.687237         11.3236         9.22908         11.5269 
       0.693381         11.1686         9.04217         11.3088 
       0.699536         10.8685         8.86018         11.1414 
       0.705665          10.765         8.68405         10.9959 
       0.711789         10.5196         8.51293         10.7482 
       0.717957         10.3327          8.3453         10.5655 
        0.72409         10.1588         8.18315         10.4137 
       0.730186         10.0084         8.02632         10.2158 
       0.736317         9.86781         7.87277         10.0339 
       0.742472         9.68531         7.72269         9.90821 
       0.748622         9.54165         7.57668         9.72972 
        0.75476         9.33658         7.43477         9.56728 
       0.760888         9.18068         7.29673         9.43092 
       0.767043         9.04975         7.16167         9.28637 
       0.773185         8.86321         7.03033         9.13267 
       0.779291         8.78304         6.90304         9.00429 
       0.785407         8.66235         6.77874         8.84531 
       0.791564         8.49561         6.65673         8.71631 
       0.797719         8.28633          6.5378          8.5765 
       0.803834         8.25526         6.42255         8.43478 
       0.809972         8.15174         6.30968         8.33777 
       0.816124           7.951         6.19929         8.19019 
       0.822261         7.83019         6.09186         8.06523 
       0.828378         7.73818          5.9873         7.94721 
       0.834502          7.6528         5.88513         7.84025 
       0.840667         7.50545         5.78468         7.71562 
       0.846816         7.35596         5.68688         7.61259 
       0.852925         7.27906         5.59196          7.5285 
       0.859047          7.1724         5.49902         7.41625 
       0.865192         7.09644          5.4079         7.30447 
       0.871341          7.0014         5.31879         7.21502 
       0.877463         6.87647          5.2321         7.10562 
       0.883569         6.76268         5.14757         7.00139 
       0.889708         6.63668         5.06448         6.91355 
       0.895864         6.55951         4.98303         6.81093 
       0.902008         6.49881         4.90354         6.73063 
       0.908149         6.42029         4.82583         6.63142 
       0.914301         6.33509          4.7497          6.5756 
       0.920448         6.21653         4.67528         6.45646 
       0.926574         6.13887         4.60272         6.38154 
       0.932687         6.05232         4.53187         6.26277 
       0.938823         5.96647         4.46225         6.20586 
       0.944975         5.88416         4.39395         6.13373 
       0.951105         5.81109         4.32733         6.03162 
       0.957225         5.76283         4.26221          5.9808 
       0.963368         5.68496         4.19821         5.89295 
       0.969511         5.61228         4.13554         5.82607 
       0.975621         5.54316         4.07448         5.74598 
       0.981748          5.4605         4.01451         5.67522 
       0.987916         5.40753         3.95537         5.60348 
        0.99406         5.31642         3.89765         5.54418 
        1.00019         5.22704          3.8412         5.48706 
        1.00632         5.19621         3.78592         5.41503 
        1.01246         5.12898         3.73166         5.36875 
        1.01859          5.0424         3.67855         5.28985 
        1.02471         5.00298         3.62654         5.20357 
        1.03085         4.93733         3.57536         5.15387 
        1.03698         4.85367         3.52529         5.10405 
        1.04314         4.81588         3.47596          5.0383 
        1.04929         4.74971         3.42769         4.98618 
        1.05541         4.68148         3.38054         4.93731 
        1.06154         4.64162         3.33416         4.87349 
        1.06769         4.60881         3.28858         4.81845 
        1.07382         4.53609           3.244         4.76603 
        1.07993         4.47436         3.20035         4.70886 
        1.08607         4.43693         3.15733         4.66466 
        1.09222          4.3841         3.11505         4.61175 
        1.09836         4.32387          3.0736          4.5453 
        1.10449         4.28516         3.03296          4.5031 
        1.11063         4.22279         2.99301          4.4568 
        1.11677         4.19229         2.95379         4.40708 
         1.1229          4.1533         2.91535         4.36666 
        1.12903         4.09058         2.87756         4.32939 
        1.13518         4.03556         2.84041         4.27564 
        1.14131         3.99544         2.80393         4.22314 
        1.14745         3.94647         2.76812         4.17929 
        1.15359         3.91725         2.73293         4.13984 
        1.15973           3.864         2.69834         4.09354 
        1.16584         3.80961         2.66451         4.05962 
        1.17197          3.7758          2.6312         4.01891 
        1.17811         3.75148         2.59837         3.96958 
        1.18424         3.70466         2.56619         3.92893 
        1.19038         3.67935         2.53446         3.89072 
        1.19652         3.62981         2.50329         3.85331 
        1.20267         3.58793         2.47264         3.81446 
        1.20881         3.56759         2.44251         3.78042 
        1.21495         3.52661         2.41294          3.7452 
        1.22108         3.47897         2.38385         3.70873 
         1.2272         3.44651         2.35532         3.66339 
        1.23334         3.40369         2.32719         3.63519 
        1.23949         3.36696         2.29945         3.60582 
        1.24562         3.34197         2.27225         3.56803 
        1.25174         3.30906         2.24552         3.53119 
        1.25789         3.27751         2.21915         3.49333 
        1.26402         3.25268         2.19324         3.46139 
        1.27014         3.21529         2.16782         3.43353 
        1.27628         3.17763         2.14272         3.39738 
        1.28244         3.13703         2.11796          3.3676 
        1.28858         3.12916         2.09364         3.33608 
        1.29471         3.08365         2.06975         3.31032 
        1.30084         3.04727         2.04625         3.28607 
        1.30697         3.03894         2.02309         3.24409 
        1.31312         2.98318         2.00025         3.21719 
        1.31925         2.95571         1.97784         3.19892 
        1.32537         2.92936         1.95579         3.17008 
        1.33151         2.91801           1.934         3.13898 
        1.33765         2.87637         1.91256         3.10707 
        1.34378          2.8538         1.89148         3.08113 
        1.34992         2.83081         1.87071         3.05588 
        1.35606         2.79545          1.8502         3.02596 
         1.3622         2.77727         1.83004         2.99675 
        1.36833         2.74326         1.81023         2.98376 
        1.37445         2.72107         1.79072         2.95408 
        1.38059         2.70824         1.77144         2.92277 
        1.38675         2.68005          1.7524         2.89985 
        1.39288         2.66179         1.73371          2.8826 
        1.39901         2.62219         1.71531          2.8561 
        1.40515         2.60295         1.69713         2.83055 
         1.4113         2.57949         1.67922         2.80764 
        1.41742         2.55817         1.66164         2.78403 
        1.42355          2.5306         1.64427         2.76144 
         1.4297         2.51344         1.62711         2.73884 
        1.43585         2.49632         1.61019         2.72044 
        1.44198         2.47649         1.59358         2.69373 
        1.44809         2.44947         1.57724         2.67355 
        1.45423         2.42593         1.56107         2.65227 
        1.46036         2.40055         1.54515          2.6308 
        1.46649         2.38557         1.52945         2.61167 
        1.47263         2.36014         1.51395         2.59146 
        1.47877         2.34015         1.49868         2.56556 
        1.48491         2.32293         1.48359         2.55031 
        1.49104         2.30433         1.46874         2.52956 
        1.49718         2.28194         1.45409          2.5089 
        1.50333         2.26688         1.43961         2.49001 
        1.50947         2.24073         1.42536         2.47071 
         1.5156         2.22648         1.41132         2.45417 
        1.52172         2.20929         1.39747          2.4381 
        1.52787          2.1911         1.38378         2.41021 
          1.534          2.1702         1.37029         2.39451 
        1.54013         2.15544         1.35699         2.37755 
        1.54627         2.13357         1.34385          2.3582 
        1.55241          2.1132         1.33087           2.342 
        1.55855         2.10183         1.31809         2.31979 
        1.56467         2.08392         1.30551         2.30755 
         1.5708         2.06781         1.29306         2.29407 
        1.57695         2.04946         1.28075         2.27172 
        1.58308         2.02725         1.26863         2.25515 
        1.58922         2.02092         1.25666         2.24364 
        1.59535           2.005         1.24485          2.2294 
         1.6015         1.98323         1.23317         2.21082 
        1.60764         1.96798         1.22165         2.19328 
        1.61376          1.9556         1.21031         2.17946 
        1.61989         1.93672          1.1991         2.16412 
        1.62604         1.92355         1.18801         2.14828 
        1.63218         1.91473         1.17707         2.13522 
        1.63831         1.89309         1.16629         2.12136 
        1.64444         1.88226         1.15564         2.10264 
        1.65059         1.85906          1.1451         2.08893 
        1.65673         1.85487          1.1347         2.07415 
        1.66285         1.83305         1.12447         2.05875 
        1.66898         1.82096         1.11435          2.0453 
        1.67512         1.80745         1.10434         2.03152 
        1.68127         1.79392         1.09444         2.01993 
         1.6874         1.78372         1.08468         2.00933 
        1.69353         1.76383         1.07505         1.99522 
        1.69967          1.7565         1.06552         1.97688 
        1.70581         1.74374          1.0561         1.96384 
        1.71193         1.72734         1.04683         1.95463 
        1.71806          1.7169         1.03766         1.93941 
        1.72421         1.70415         1.02857         1.92556 
        1.73035         1.69158         1.01961         1.91326 
        1.73649         1.67843         1.01075         1.90091 
        1.74262         1.66418         1.00201         1.88946 
        1.74876         1.65562        0.993364         1.87866 
        1.75489         1.64341        0.984838         1.86542 
        1.76101         1.62802        0.976415         1.85007 
        1.76715         1.62054        0.968078         1.83881 
        1.77329         1.60894        0.959829         1.82833 
        1.77943         1.59158        0.951673         1.81675 
        1.78557         1.58209        0.943623         1.80488 
        1.79171         1.57416        0.935665         1.79233 
        1.79785         1.56133        0.927797         1.78051 
        1.80399         1.54965        0.920021         1.77058 
        1.81012          1.5376        0.912345         1.76006 
        1.81625         1.52995        0.904759         1.74869 
        1.82239         1.51892        0.897249         1.73826 
        1.82853         1.50349        0.889827         1.72952 
        1.83466         1.49652        0.882496          1.7197 
        1.84078         1.48921        0.875255          1.7082 
        1.84692         1.47937        0.868084         1.69652 
        1.85306         1.46474        0.860984         1.68377 
         1.8592         1.45383        0.853975         1.67335 
        1.86533         1.44401        0.847047         1.66643 
        1.87147         1.43638        0.840188         1.65613 
        1.87761         1.42528        0.833402         1.64509 
