# k  (h/Mpc)    P(k)  (Mpc/h)^3    P_linear(k)  (Mpc/h)^3     P_NL(k)  ShotnoiseSubtracted = false
     0.00783031         16925.3         17179.7         17020.2 
       0.013688         19352.7         19155.1         19010.9 
       0.019231         17774.8         17688.3         17559.8 
      0.0249154         14643.8         14892.6         14803.5 
      0.0312784         11635.8         11684.7         11643.6 
      0.0375637         9286.21         9199.76         9186.89 
      0.0433917         7617.42         7656.26          7641.1 
      0.0492413         6737.77         6711.74         6701.35 
      0.0555754         6007.32         6113.42         6102.93 
      0.0619321         5753.17         5681.24         5667.39 
       0.067871         5175.87         5246.67         5237.93 
      0.0738098         4659.65         4711.04         4674.72 
      0.0800417         4014.07          4070.9         4065.55 
      0.0862327         3461.96         3447.14         3497.93 
      0.0921407         3037.84         2945.16         3013.52 
      0.0982031         2638.86         2567.25         2676.91 
       0.104506         2457.86         2318.82         2451.01 
       0.110769         2291.54         2179.82         2274.96 
       0.116806         2186.96         2096.51         2169.93 
       0.122832         2098.42         2015.12         2080.37 
       0.129052         1938.28         1899.73         1954.74 
       0.135211         1798.79         1746.24         1808.37 
       0.141259         1672.56          1572.5         1659.93 
       0.147318          1528.3         1400.81         1521.89 
       0.153489         1371.54         1251.39         1363.19 
       0.159709         1278.71         1139.09         1267.76 
       0.165845         1219.09         1065.55         1213.51 
       0.171974         1159.48         1019.39         1151.42 
       0.178125         1111.65         986.323         1121.77 
       0.184229         1066.39           953.1          1072.5 
        0.19034         998.726         910.535         1020.06 
       0.196428         967.471         856.738         960.586 
       0.202534         922.161         795.285         909.033 
       0.208729         862.208          732.55         846.247 
       0.214876         813.209         676.869         813.267 
       0.220989         776.709         632.098         776.812 
       0.227147         741.916         598.293         744.601 
        0.23329         711.183         573.549         722.904 
       0.239377         695.185         554.043         694.581 
       0.245482          648.46         535.505         663.902 
       0.251667         641.965         514.804         645.949 
       0.257832         614.435         491.189         616.664 
       0.263955         590.405         465.515         590.516 
       0.270079         563.959         439.413         567.589 
        0.27624         553.623          414.81         543.247 
       0.282372         531.047         393.373         526.483 
        0.28843         517.195         375.704         510.692 
       0.294538          489.86         361.007         494.742 
       0.300721         485.551         348.303         480.527 
        0.30691         463.584         336.564         470.322 
       0.313033         453.176         324.926         452.849 
       0.319153         438.545          312.78         438.744 
       0.325316         425.692         300.031         426.443 
        0.33145         411.423         287.245         409.354 
       0.337538         403.228         275.005         397.836 
       0.343633         390.318         263.653         391.586 
       0.349808         375.311         253.359         382.518 
       0.355968         371.015         244.236         373.791 
       0.362074         364.657         236.137         364.261 
       0.368217         353.645         228.573         352.499 
       0.374374          337.54         221.271         343.734 
       0.380519         335.261          214.06         334.362 
       0.386598         325.647         206.907         330.113 
       0.392688         322.049         199.812         319.302 
        0.39888         312.909         192.784         312.602 
       0.405048         305.137         186.109         306.729 
       0.411186         299.678         179.907         298.081 
       0.417313          293.35         174.163         291.413 
       0.423458         286.213         168.808         286.221 
       0.429607         281.613         163.785         280.483 
       0.435692          273.64         159.041         272.761 
       0.441815          270.46         154.404         269.582 
       0.447964         263.956          149.86         264.492 
       0.454126         257.039         145.409         256.622 
       0.460267         252.038         141.087         254.521 
       0.466387         248.648         136.932         249.491 
        0.47254         243.259         132.946         244.641 
       0.478662         242.343         129.179         239.562 
       0.484765         233.132          125.61         234.464 
       0.490885         230.283         122.204         230.604 
       0.497035         225.839         118.932         227.181 
       0.503198         221.848         115.775          223.54 
       0.509342         219.878         112.723         219.961 
       0.515458         216.396         109.769         216.984 
       0.521598         210.743         106.894         212.713 
       0.527764         208.203         104.101         210.299 
       0.533884         205.424         101.428         207.107 
           0.54         202.135         98.8542         202.959 
       0.546137         200.541         96.3708         200.457 
       0.552299         196.264         93.9767         196.817 
       0.558452         194.834         91.6789         193.915 
       0.564573         191.829         89.4737         192.112 
       0.570708           187.4         87.3345         189.716 
       0.576825         184.381          85.265         185.576 
       0.582926         181.873         83.2621         183.502 
       0.589034         179.811          81.318         181.376 
       0.595184         177.907         79.4229         177.705 
       0.601379         174.808         77.5772         175.745 
       0.607522         172.293         75.8075         172.959 
       0.613639         170.505         74.1023         172.107 
       0.619772         167.131         72.4469         170.243 
       0.625918         165.953         70.8399         166.946 
       0.632068         163.002         69.2815         164.599 
       0.638161         161.923         67.7843          163.67 
         0.6443         159.344         66.3209         161.475 
       0.650464         157.595         64.8954         158.057 
       0.656582          155.22         63.5219         156.841 
       0.662703         154.749         62.1875         155.081 
       0.668861         152.042         60.8837         153.674 
       0.675024         149.554         59.6163         151.879 
       0.681124         148.416         58.3979         149.498 
       0.687237         146.513         57.2114          147.85 
       0.693381         144.041         56.0527         145.942 
       0.699536          142.83         54.9245         144.592 
       0.705665         141.457         53.8327         142.943 
       0.711789         139.719         52.7719         141.839 
       0.717957         139.234         51.7327         140.431 
        0.72409         137.182         50.7276         138.968 
       0.730186           135.2         49.7554         137.433 
       0.736317         133.708         48.8035         135.775 
       0.742472         132.547         47.8732         134.285 
       0.748622         131.351          46.968         132.872 
        0.75476         129.899         46.0884         132.091 
       0.760888         128.442         45.2327          129.97 
       0.767043         127.838         44.3954         129.082 
       0.773185          126.62         43.5812         128.054 
       0.779291         124.106         42.7921           126.4 
       0.785407         123.624         42.0216         125.076 
       0.791564         122.557         41.2653         124.018 
       0.797719         120.123          40.528         123.218 
       0.803834          119.54         39.8136         122.006 
       0.809972         118.763         39.1139         120.836 
       0.816124         117.819         38.4296         119.787 
       0.822261         116.815         37.7636         118.797 
       0.828378         115.652         37.1155         117.402 
       0.834502         115.106         36.4821         116.218 
       0.840667         113.248         35.8594          115.34 
       0.846816         112.131         35.2531         114.527 
       0.852925         111.396         34.6647         113.604 
       0.859047         110.388         34.0886         112.648 
       0.865192         108.985         33.5237         111.354 
       0.871341         108.132         32.9713         110.417 
       0.877463         106.996         32.4339         109.768 
       0.883569         106.826         31.9099         109.184 
       0.889708         105.537         31.3949         107.886 
       0.895864         104.356         30.8899         107.205 
       0.902008         103.617         30.3971         106.125 
       0.908149         103.172         29.9155          105.29 
       0.914301         101.793         29.4435          104.37 
       0.920448         101.112         28.9822         103.636 
       0.926574         100.196         28.5324         102.732 
       0.932687         100.102         28.0931         102.161 
       0.938823         98.5093         27.6616         101.232 
       0.944975         97.7658         27.2382         100.462 
       0.951105         97.0224         26.8252         99.6271 
       0.957225         96.3857         26.4215         98.8866 
       0.963368         94.8377         26.0248         98.1166 
       0.969511         94.7028         25.6363         97.2545 
       0.975621         93.8759         25.2578         97.0008 
       0.981748         93.5924          24.886         96.2821 
       0.987916         92.5242         24.5194         95.4921 
        0.99406         91.7176         24.1616          94.659 
        1.00019         91.4791         23.8117         93.9012 
        1.00632         90.3123          23.469         93.1904 
        1.01246         89.9161         23.1326         92.2969 
        1.01859         89.2616         22.8034         92.0113 
        1.02471         88.1569          22.481         91.5438 
        1.03085          87.439         22.1638         90.8954 
        1.03698          87.132         21.8533         90.3837 
        1.04314         86.1565         21.5476         89.5501 
        1.04929         85.9043         21.2483          89.052 
        1.05541         85.0002          20.956          88.575 
        1.06154         84.6328         20.6685         87.9217 
        1.06769         84.2303          20.386         87.3868 
        1.07382         83.3582         20.1096         86.8479 
        1.07993         82.8813         19.8391         86.2404 
        1.08607         82.1165         19.5723         85.6308 
        1.09222         81.9674         19.3103         85.1736 
        1.09836          81.167         19.0533         84.5133 
        1.10449         80.4056         18.8014         84.1746 
        1.11063          79.892         18.5537         83.4061 
        1.11677         79.2952         18.3106         82.8411 
         1.1229         78.7908         18.0723         82.4493 
        1.12903         78.3535          17.838         81.8357 
        1.13518         77.9921         17.6077         81.3795 
        1.14131         77.2671         17.3816         80.6928 
        1.14745         76.9153         17.1597         80.3293 
        1.15359         76.3025         16.9415         79.9263 
        1.15973         75.9248         16.7271         79.5033 
        1.16584         75.1899         16.5173         78.7774 
        1.17197          74.673         16.3109         78.5569 
        1.17811         74.3037         16.1073         77.9582 
        1.18424         73.8633         15.9079         77.4143 
        1.19038         73.6387         15.7112          77.164 
        1.19652         73.0075         15.5179         76.6543 
        1.20267         72.2468          15.328         76.2302 
        1.20881         72.0271         15.1412         75.6355 
        1.21495         71.2796         14.9578         75.3321 
        1.22108         71.1187         14.7776           74.91 
         1.2272         70.3639         14.6007         74.3918 
        1.23334         69.9588         14.4263         74.1866 
        1.23949         69.6793         14.2544          73.632 
        1.24562         69.0967         14.0857          72.993 
        1.25174         68.8296           13.92         72.6501 
        1.25789          68.413         13.7565          72.241 
        1.26402          67.571          13.596         72.0088 
        1.27014          67.444         13.4383         71.6711 
        1.27628          67.076         13.2827         71.3469 
        1.28244         66.6554         13.1293         70.7671 
        1.28858         66.3797         12.9785          70.353 
        1.29471         65.8557         12.8304         70.0282 
        1.30084         65.6037         12.6848         69.4806 
        1.30697         64.9718         12.5412         69.2102 
        1.31312         64.6025         12.3996         68.8985 
        1.31925         64.2172         12.2606         68.5397 
        1.32537         63.8095          12.124          68.257 
        1.33151          63.316         11.9889         67.8393 
        1.33765         63.0757          11.856         67.4909 
        1.34378         62.7495         11.7253         67.1452 
        1.34992         62.4049         11.5965          66.703 
        1.35606          61.955         11.4694         66.3694 
         1.3622         61.4685         11.3445         66.0895 
        1.36833         61.2966         11.2216         65.6479 
        1.37445         60.8888         11.1007         65.4482 
        1.38059          60.319         10.9812         64.9088 
        1.38675          59.987         10.8632         64.6322 
        1.39288         59.8785         10.7473         64.1957 
        1.39901         59.4149         10.6332         63.9973 
        1.40515         58.9666         10.5205         63.8297 
         1.4113          58.732         10.4095         63.5555 
        1.41742         58.4507         10.3005         63.1576 
        1.42355         58.1121         10.1929          62.757 
         1.4297         57.8846         10.0865         62.5278 
        1.43585         57.4371         9.98161         62.0653 
        1.44198         56.9953         9.87865         61.9091 
        1.44809         56.8416         9.77734         61.5821 
        1.45423         56.5636         9.67707         61.1826 
        1.46036         56.1232         9.57839         60.9003 
        1.46649         55.7506         9.48106         60.7027 
        1.47263         55.4036           9.385         60.4442 
        1.47877         55.1532         9.29032         60.0091 
        1.48491         54.8371         9.19679         59.7588 
        1.49104          54.631         9.10475         59.5823 
        1.49718          54.261         9.01391         59.1585 
        1.50333         54.1086         8.92415         58.8746 
        1.50947         53.6418         8.83581         58.6509 
         1.5156         53.4982         8.74879         58.3618 
        1.52172         53.0847         8.66294         58.0594 
        1.52787         52.8459         8.57807         57.7993 
          1.534         52.4625         8.49444         57.5878 
        1.54013         52.1399         8.41201         57.3235 
        1.54627         51.9942         8.33052         57.0157 
        1.55241         51.5668          8.2501         56.7317 
        1.55855         51.3422         8.17086         56.4829 
        1.56467         51.1337         8.09287         56.2491 
         1.5708         50.8342         8.01569          55.975 
        1.57695         50.7489         7.93939         55.7328 
        1.58308         50.3253         7.86426         55.4977 
        1.58922          49.966         7.79006         55.2159 
        1.59535         49.8586         7.71683         55.0076 
         1.6015         49.4034         7.64445         54.7087 
        1.60764         49.2432         7.57304         54.4247 
        1.61376         48.9834         7.50273         54.2945 
        1.61989         48.7058         7.43326         54.0509 
        1.62604         48.4482         7.36451         53.6735 
        1.63218         48.3111         7.29668         53.4145 
        1.63831         47.7694         7.22986          53.295 
        1.64444         47.5687         7.16385         53.0386 
        1.65059         47.4913          7.0985         52.7752 
        1.65673         47.0987         7.03405         52.5051 
        1.66285         46.8547         6.97057         52.3011 
        1.66898         46.7562         6.90786         52.1544 
        1.67512         46.3057         6.84579         51.8751 
        1.68127         46.1883         6.78443          51.627 
         1.6874         45.9051         6.72396         51.4291 
        1.69353          45.654         6.66426         51.1902 
        1.69967         45.4485         6.60515         50.9662 
        1.70581          45.245         6.54677         50.7629 
        1.71193         45.0267         6.48933         50.5659 
        1.71806         44.6989         6.43245         50.3577 
        1.72421         44.5573         6.37614         50.1275 
        1.73035         44.3222         6.32057         49.8862 
        1.73649         44.0589         6.26567         49.6608 
        1.74262         43.8008         6.21147         49.4759 
        1.74876         43.6043         6.15787         49.2714 
        1.75489         43.4119         6.10502         49.0397 
        1.76101         43.2353          6.0528         48.8048 
        1.76715          42.892         6.00113         48.5881 
        1.77329         42.6503         5.94999         48.4033 
        1.77943         42.4745         5.89943          48.224 
        1.78557         42.2553         5.84953          48.027 
        1.79171         42.0768         5.80019         47.8335 
        1.79785         41.7516         5.75142         47.6229 
        1.80399         41.6921         5.70322         47.3864 
        1.81012         41.3871         5.65563         47.2087 
        1.81625         41.1914         5.60861         47.0306 
        1.82239         40.9447         5.56205         46.8306 
        1.82853         40.7671         5.51604         46.6694 
        1.83466         40.5431          5.4706         46.4623 
        1.84078         40.2647         5.42571         46.2419 
        1.84692         40.1368         5.38126         46.1162 
        1.85306         39.9077         5.33725         45.9181 
         1.8592         39.7508         5.29379         45.6711 
        1.86533         39.4997         5.25085         45.4964 
        1.87147         39.2012         5.20833         45.2911 
        1.87761          39.137         5.16627         45.1027 
