# k  (h/Mpc)    P(k)  (Mpc/h)^3    P_linear(k)  (Mpc/h)^3     P_NL(k)  ShotnoiseSubtracted = false
     0.00783031           24482         24884.2         24643.4 
       0.013688         28151.9         27786.4         27556.2 
       0.019231         25805.3         25666.9           25454 
      0.0249154         21156.4         21612.8         21449.9 
      0.0312784         16838.1         16958.3         16859.5 
      0.0375637         13485.3         13352.2         13310.5 
      0.0433917         11027.5         11112.2         11065.6 
      0.0492413          9777.7         9741.45         9704.94 
      0.0555754         8671.75         8873.09         8843.73 
      0.0619321         8351.08         8245.86         8213.23 
       0.067871         7473.47         7615.14         7594.92 
      0.0738098         6737.86         6837.73         6759.77 
      0.0800417         5805.36         5908.62         5893.09 
      0.0862327         5031.26         5003.28         5099.94 
      0.0921407         4451.54          4274.7         4406.46 
      0.0982031         3876.59         3726.19         3940.13 
       0.104506         3628.08          3365.6         3625.03 
       0.110769         3378.42         3163.86         3354.23 
       0.116806         3231.09         3042.94         3190.97 
       0.122832         3087.23         2924.81         3054.88 
       0.129052         2842.63         2757.33          2868.8 
       0.135211          2643.3         2534.56         2657.44 
       0.141259         2478.44         2282.38         2456.53 
       0.147318         2282.71         2033.18          2268.2 
       0.153489         2056.51         1816.31         2038.04 
       0.159709         1925.72         1653.31         1908.58 
       0.165845         1845.49         1546.58         1835.47 
       0.171974         1760.94         1479.58         1743.23 
       0.178125         1680.85         1431.58         1699.42 
       0.184229         1603.29         1383.36         1619.45 
        0.19034          1514.9         1321.58          1540.1 
       0.196428         1466.52          1243.5         1457.07 
       0.202534         1398.07         1154.31         1385.05 
       0.208729         1316.56         1063.25         1291.41 
       0.214876         1256.56         982.433         1248.34 
       0.220989         1203.14         917.449          1200.2 
       0.227147         1155.66         868.384         1157.95 
        0.23329         1107.46          832.47         1125.95 
       0.239377         1085.61         804.158         1081.74 
       0.245482         1016.11         777.251         1035.57 
       0.251667         1007.89         747.206         1007.74 
       0.257832         962.618          712.93         964.326 
       0.263955         926.776         675.665         926.895 
       0.270079         889.471          637.78         893.629 
        0.27624         875.097         602.071         859.278 
       0.282372         839.432         570.955         838.318 
        0.28843         827.663          545.31           818.3 
       0.294538          783.56         523.979         792.139 
       0.300721          776.56          505.54         768.814 
        0.30691         746.001         488.501         756.993 
       0.313033           729.1          471.61         729.555 
       0.319153         711.657         453.981         707.548 
       0.325316         689.939         435.476         690.173 
        0.33145          670.91         416.919         663.589 
       0.337538         655.534         399.152         648.239 
       0.343633         640.205         382.676         638.784 
       0.349808         615.054         367.734          626.36 
       0.355968          609.71         354.493          611.96 
       0.362074         602.536         342.738         599.601 
       0.368217         582.651         331.759         583.207 
       0.374374         558.665         321.161         569.596 
       0.380519         557.659         310.695         555.666 
       0.386598         539.798         300.312         549.307 
       0.392688         536.181         290.014         534.182 
        0.39888         519.733         279.813         522.819 
       0.405048         511.718         270.125         512.021 
       0.411186         503.979         261.124          501.27 
       0.417313         493.481         252.786          492.42 
       0.423458         481.037         245.014         483.501 
       0.429607         476.454         237.724         475.384 
       0.435692         463.416         230.837         462.033 
       0.441815         457.626         224.108         458.136 
       0.447964         447.981         217.512         451.518 
       0.454126          442.44         211.052         438.374 
       0.460267         431.209         204.779         435.565 
       0.466387         425.025         198.749         428.182 
        0.47254         421.449         192.963         420.378 
       0.478662         416.144         187.495         412.218 
       0.484765         401.592         182.314           406.2 
       0.490885         397.762         177.371         398.343 
       0.497035         389.594         172.622         393.491 
       0.503198         385.801          168.04         388.352 
       0.509342         383.258          163.61         381.322 
       0.515458         378.679         159.323         376.795 
       0.521598         367.147         155.149          371.76 
       0.527764          363.33         151.097         368.261 
       0.533884         359.058         147.216         363.069 
           0.54          354.36         143.481         356.882 
       0.546137         351.584         139.876         352.482 
       0.552299         345.934         136.401         347.258 
       0.558452         342.879         133.066         343.244 
       0.564573         338.647         129.865         340.099 
       0.570708         332.513         126.761          335.63 
       0.576825           325.8         123.757         329.615 
       0.582926         324.034          120.85         326.966 
       0.589034         319.837         118.028          322.38 
       0.595184         317.889         115.277         317.403 
       0.601379         310.751         112.598         313.647 
       0.607522         307.862          110.03         308.648 
       0.613639         305.005         107.555         308.174 
       0.619772          300.72         105.152          306.01 
       0.625918         298.518          102.82         300.513 
       0.632068         293.001         100.558         297.973 
       0.638161         291.087         98.3846         295.209 
         0.6443         287.235         96.2605         291.383 
       0.650464         284.652         94.1915         286.169 
       0.656582         280.257          92.198           284.4 
       0.662703         280.107         90.2612         281.739 
       0.668861         276.253         88.3688         280.264 
       0.675024         272.821         86.5293          277.42 
       0.681124         269.808         84.7608         273.008 
       0.687237         267.467         83.0387         270.089 
       0.693381         263.178         81.3569         267.353 
       0.699536         259.938         79.7195         265.531 
       0.705665         258.018         78.1347         261.332 
       0.711789          256.99         76.5951         260.131 
       0.717957         254.443         75.0868         258.915 
        0.72409         252.696         73.6279         255.166 
       0.730186         248.866         72.2168          252.35 
       0.736317         246.847         70.8352         250.774 
       0.742472         244.053         69.4849         248.527 
       0.748622         242.412         68.1711         245.685 
        0.75476         239.148         66.8943         245.749 
       0.760888          236.65         65.6523         242.182 
       0.767043         235.849         64.4371         239.672 
       0.773185         233.851         63.2554         238.009 
       0.779291         230.291         62.1101         235.449 
       0.785407         229.531         60.9917         233.557 
       0.791564         227.127         59.8939           231.6 
       0.797719         224.617         58.8239         229.675 
       0.803834         221.913         57.7869         228.363 
       0.809972         221.258         56.7713         226.268 
       0.816124         219.824         55.7781         223.994 
       0.822261         218.265         54.8115         223.077 
       0.828378         215.872         53.8707          220.86 
       0.834502         213.467         52.9514         219.174 
       0.840667         212.127         52.0476         217.095 
       0.846816         210.803         51.1676         215.676 
       0.852925         209.256         50.3136         214.165 
       0.859047         207.398         49.4774         212.229 
       0.865192         204.697         48.6575         210.188 
       0.871341         202.836         47.8557         208.842 
       0.877463         202.968         47.0758         207.718 
       0.883569         200.722         46.3152         207.357 
       0.889708         198.349         45.5677         204.502 
       0.895864          198.07         44.8347         203.484 
       0.902008          195.81         44.1195         201.366 
       0.908149         193.994         43.4204         199.888 
       0.914301         192.213         42.7353          198.24 
       0.920448         190.901         42.0658         197.292 
       0.926574         188.824         41.4129         195.754 
       0.932687         188.799         40.7754         194.104 
       0.938823         186.211         40.1491         193.691 
       0.944975         185.783         39.5345         191.857 
       0.951105          184.16         38.9351         190.586 
       0.957225         183.323         38.3492         189.117 
       0.963368          180.39         37.7734         187.878 
       0.969511         179.625         37.2095         186.682 
       0.975621          178.29         36.6601          185.47 
       0.981748         177.148         36.1205         184.596 
       0.987916         175.972         35.5884         183.065 
        0.99406         174.744          35.069         181.838 
        1.00019         173.243         34.5611         180.509 
        1.00632         172.412         34.0638         179.127 
        1.01246         170.798         33.5755         177.664 
        1.01859         170.413         33.0977         176.888 
        1.02471         168.084         32.6298         175.811 
        1.03085         167.194         32.1693         174.855 
        1.03698         165.904         31.7187         174.195 
        1.04314         164.671         31.2749         172.721 
        1.04929         164.103         30.8406          171.34 
        1.05541         162.828         30.4164          170.54 
        1.06154         161.258          29.999         169.829 
        1.06769         160.852         29.5889         168.633 
        1.07382         159.419         29.1879         167.659 
        1.07993         158.233         28.7951          166.68 
        1.08607         157.925          28.408         165.297 
        1.09222         156.234         28.0277         164.465 
        1.09836         154.979         27.6547         163.526 
        1.10449         153.792          27.289         162.968 
        1.11063         152.691         26.9296         161.592 
        1.11677         151.847         26.5767          160.58 
         1.1229          150.26         26.2308         159.578 
        1.12903         149.767         25.8908           158.6 
        1.13518         148.923         25.5565         157.821 
        1.14131         147.532         25.2284         156.837 
        1.14745         147.483         24.9061         155.607 
        1.15359         145.677         24.5895          155.16 
        1.15973         144.601         24.2783         154.153 
        1.16584          144.06         23.9738         153.639 
        1.17197         143.743         23.6742          152.68 
        1.17811         141.734         23.3788         151.573 
        1.18424         141.339         23.0892         150.658 
        1.19038         140.632         22.8038          150.33 
        1.19652         139.185         22.5233         148.904 
        1.20267         138.915         22.2475         148.544 
        1.20881         137.656         21.9765         147.522 
        1.21495         136.742         21.7103          146.67 
        1.22108         136.039         21.4487         145.805 
         1.2272         134.863          21.192         145.237 
        1.23334         134.784         20.9389         144.496 
        1.23949         133.097         20.6893         143.571 
        1.24562         132.495         20.4445         142.419 
        1.25174         131.806         20.2041         141.717 
        1.25789         131.163         19.9667         140.867 
        1.26402         129.558         19.7337         140.459 
        1.27014         129.075         19.5049         139.651 
        1.27628         128.161          19.279         139.357 
        1.28244         127.901         19.0563         138.382 
        1.28858         126.704         18.8375         137.705 
        1.29471         126.047         18.6225         136.924 
        1.30084         125.047         18.4111         135.935 
        1.30697         123.961         18.2027         135.219 
        1.31312          123.25         17.9972         134.435 
        1.31925         122.475         17.7955         133.982 
        1.32537         122.259         17.5972         133.276 
        1.33151         121.267         17.4011         132.593 
        1.33765         120.378         17.2082          131.99 
        1.34378         119.724         17.0185         131.286 
        1.34992         119.136         16.8316         130.567 
        1.35606          118.67         16.6472         129.712 
         1.3622         117.264         16.4658         129.348 
        1.36833          116.81         16.2875         128.556 
        1.37445         116.241          16.112          127.74 
        1.38059         115.403         15.9385         127.136 
        1.38675         114.925         15.7672         126.419 
        1.39288         113.903          15.599         125.916 
        1.39901         113.478         15.4334         125.298 
        1.40515         112.663         15.2699         124.605 
         1.4113         112.198         15.1087         123.998 
        1.41742         111.038         14.9505         123.433 
        1.42355         110.812         14.7943         122.646 
         1.4297         109.801         14.6399         122.175 
        1.43585         109.182         14.4877         121.694 
        1.44198         109.045         14.3382         121.191 
        1.44809         108.206         14.1912          120.43 
        1.45423          107.75         14.0457         119.711 
        1.46036         106.749         13.9024         119.159 
        1.46649          106.17         13.7612         118.699 
        1.47263         105.419         13.6217         118.149 
        1.47877         104.664         13.4843         117.356 
        1.48491         103.994         13.3486         116.781 
        1.49104         103.675          13.215         116.401 
        1.49718         102.686         13.0831         115.764 
        1.50333         102.059         12.9528         115.116 
        1.50947         101.553         12.8246         114.609 
         1.5156         101.075         12.6983         114.144 
        1.52172         100.525         12.5737         113.626 
        1.52787         99.7198         12.4505         113.011 
          1.534         99.3527         12.3291         112.497 
        1.54013         98.8653         12.2095         112.071 
        1.54627         98.2413         12.0912         111.557 
        1.55241         97.6097         11.9745          110.95 
        1.55855         96.9688         11.8595          110.35 
        1.56467         96.1914         11.7463         109.881 
         1.5708         95.6547         11.6343         109.326 
        1.57695         95.5823         11.5235         108.803 
        1.58308         94.9678         11.4145           108.4 
        1.58922          94.314         11.3068         107.904 
        1.59535         93.6835         11.2005         107.426 
         1.6015         93.4931         11.0954          106.91 
        1.60764         92.8431         10.9918         106.382 
        1.61376          92.155         10.8897          105.95 
        1.61989         91.4746         10.7889         105.485 
        1.62604         91.0826         10.6891         104.778 
        1.63218         90.7194         10.5907         104.242 
        1.63831           90.23         10.4937         103.978 
        1.64444         89.5718         10.3979         103.511 
        1.65059          88.789          10.303             103 
        1.65673         88.5906         10.2095         102.476 
        1.66285          88.222         10.1173         102.052 
        1.66898         87.5359         10.0263           101.7 
        1.67512         86.7135         9.93623         101.156 
        1.68127         86.5101         9.84717         100.721 
         1.6874         86.1708          9.7594         100.329 
        1.69353         85.6655         9.67275         99.7735 
        1.69967         85.1326         9.58695         99.3658 
        1.70581         84.3356         9.50222         98.9392 
        1.71193         83.8221         9.41884         98.4359 
        1.71806         83.7918         9.33629          98.011 
        1.72421         83.2127         9.25456         97.6825 
        1.73035         82.9054          9.1739         97.2692 
        1.73649         82.3138         9.09422          96.714 
        1.74262         81.8336         9.01555          96.175 
        1.74876         81.3806         8.93776         95.7665 
        1.75489         80.7971         8.86105         95.4341 
        1.76101          80.299         8.78526         95.0892 
        1.76715         80.0585         8.71025         94.6921 
        1.77329         79.3728         8.63603         94.2352 
        1.77943         79.1903         8.56264         93.8092 
        1.78557         78.7914         8.49021         93.4504 
        1.79171         78.0327         8.41861         93.0033 
        1.79785         77.7268         8.34782         92.5281 
        1.80399         77.2747         8.27785           92.16 
        1.81012         76.8223         8.20879         91.8434 
        1.81625         76.5016         8.14054         91.4212 
        1.82239         75.9621         8.07296         90.9459 
        1.82853         75.4817         8.00618         90.5848 
        1.83466         75.1789         7.94022         90.1683 
        1.84078          74.864         7.87507         89.7454 
        1.84692         74.2047         7.81055         89.5007 
        1.85306         73.9173         7.74667         89.0402 
         1.8592         73.4137          7.6836          88.522 
        1.86533         73.0207         7.62127         88.2885 
        1.87147         72.5807         7.55956         87.9692 
        1.87761         72.0415          7.4985         87.5287 
