# k  (h/Mpc)    Pcb(k)  (Mpc/h)^3    Pcb_linear(k) (Mpc/h)^3    Pcb_NL(k) (Mpc/h)^3   ShotnoiseSubtracted = false
     0.00783031         28133.5         28611.3         28325.2 
       0.013688         32422.3         31967.5         31690.8 
       0.019231         29696.3         29532.8         29274.3 
      0.0249154         24299.8         24869.3         24664.9 
      0.0312784         19351.6           19514         19380.8 
      0.0375637         15520.9         15364.7         15305.1 
      0.0433917         12676.8         12787.1         12721.4 
      0.0492413           11251         11209.8         11157.3 
      0.0555754         9957.31         10210.6         10169.8 
      0.0619321         9608.64         9488.81         9445.22 
       0.067871         8581.69         8763.03         8735.84 
      0.0738098         7742.01         7868.44          7766.2 
      0.0800417         6671.64         6799.29         6777.79 
      0.0862327         5793.54         5757.47         5879.88 
      0.0921407            5143         4919.07         5086.74 
      0.0982031         4484.57         4287.88         4560.61 
       0.104506         4203.78         3872.95         4203.95 
       0.110769         3913.17         3640.79         3886.15 
       0.116806         3746.38         3501.64         3693.19 
       0.122832         3573.48          3365.7         3533.28 
       0.129052         3287.19         3172.97         3317.69 
       0.135211         3058.23         2916.62         3074.61 
       0.141259         2876.77         2626.43         2850.41 
       0.147318         2658.27         2339.67         2638.44 
       0.153489         2399.23          2090.1         2374.53 
       0.159709         2249.29         1902.54         2229.62 
       0.165845          2160.6         1779.72         2147.42 
       0.171974         2063.97         1702.62         2041.31 
       0.178125         1967.53         1647.38         1989.89 
       0.184229         1871.76          1591.9         1894.36 
        0.19034         1777.31          1520.8         1801.73 
       0.196428         1718.85         1430.95         1708.34 
       0.202534         1637.91         1328.31         1626.39 
       0.208729         1546.73         1223.53         1517.83 
       0.214876         1483.37         1130.53         1469.22 
       0.220989         1421.34         1055.75         1416.05 
       0.227147         1367.84         999.285         1369.69 
        0.23329         1310.74         957.957         1332.12 
       0.239377         1286.53         925.379         1280.64 
       0.245482         1207.13         894.417         1226.98 
       0.251667         1197.47         859.844         1193.64 
       0.257832         1143.95         820.402         1143.71 
       0.263955         1101.18         777.518         1101.04 
       0.270079         1059.19          733.92         1062.57 
        0.27624         1041.83         692.827          1023.2 
       0.282372         999.864         657.022         1001.07 
        0.28843         989.954         627.512         979.525 
       0.294538         938.233         602.965         947.845 
       0.300721         928.693         581.746         920.172 
        0.30691         895.145         562.139         907.754 
       0.313033         874.369         542.703         875.226 
       0.319153           856.3         522.416         848.984 
       0.325316         829.968         501.121         829.674 
        0.33145         808.669         479.766         798.457 
       0.337538         788.914         459.321          781.27 
       0.343633         773.484         440.362         769.597 
       0.349808         743.945         423.166         755.956 
       0.355968         737.332         407.933         738.276 
       0.362074         729.395         394.403          724.69 
       0.368217         704.584          381.77         706.893 
       0.374374         678.594         369.574         690.473 
       0.380519         677.506         357.527         674.913 
       0.386598         655.185         345.583         666.524 
       0.392688         651.073         333.731         650.635 
        0.39888         631.051         321.993         635.835 
       0.405048         623.885         310.844         622.435 
       0.411186         614.237         300.487         611.543 
       0.417313         601.723         290.892         601.527 
       0.423458         586.639         281.948         589.901 
       0.429607         582.039         273.559         581.164 
       0.435692          566.51         265.634          564.97 
       0.441815         559.226         257.891         560.922 
       0.447964         548.735           250.3         553.988 
       0.454126          543.25         242.867             538 
       0.460267         529.044         235.647          534.57 
       0.466387         521.182         228.709         525.961 
        0.47254         519.912          222.05         516.658 
       0.478662         510.931         215.759          507.29 
       0.484765         494.821         209.797         500.694 
       0.490885         490.032         204.109         490.633 
       0.497035         480.182         198.643         485.309 
       0.503198         476.011         193.371         479.437 
       0.509342         472.646         188.273         470.467 
       0.515458          467.89          183.34         465.038 
       0.521598         453.875         178.537         459.576 
       0.527764         449.552         173.873         455.455 
       0.533884         444.116         169.407         449.496 
           0.54         438.975         165.109         442.588 
       0.546137         434.692         160.962         437.452 
       0.552299         429.109         156.963         431.311 
       0.558452         424.413         153.125         426.618 
       0.564573          419.75         149.442         422.522 
       0.570708         413.073         145.868           416.5 
       0.576825         405.053         142.412          410.14 
       0.582926          403.42         139.067         407.142 
       0.589034         398.047          135.82         401.397 
       0.595184         395.482         132.655         395.812 
       0.601379         387.173         129.572         391.289 
       0.607522         383.482         126.616         384.911 
       0.613639         379.585         123.768         384.053 
       0.619772         375.709         121.003         381.618 
       0.625918         372.467         118.319         375.653 
       0.632068         366.002         115.716         373.061 
       0.638161         363.028         113.215         369.027 
         0.6443         359.175         110.771           364.1 
       0.650464         356.229          108.39          358.68 
       0.656582         350.655         106.096         356.271 
       0.662703         350.163         103.867         353.171 
       0.668861         345.622          101.69         351.648 
       0.675024         341.933         99.5729         348.007 
       0.681124         338.182         97.5379         343.189 
       0.687237           335.8         95.5562         339.446 
       0.693381         330.308         93.6209         336.068 
       0.699536         325.864         91.7366         333.983 
       0.705665         324.207          89.913          328.78 
       0.711789         322.929         88.1412         327.013 
       0.717957          319.36         86.4056         325.641 
        0.72409         317.774         84.7267         320.932 
       0.730186         313.257         83.1029          317.54 
       0.736317         310.974         81.5131         316.037 
       0.742472         307.264         79.9592         313.954 
       0.748622          305.08         78.4474          309.96 
        0.75476          300.96         76.9782         309.952 
       0.760888         297.845          75.549         306.117 
       0.767043         296.884         74.1506         302.435 
       0.773185         294.326         72.7907         300.491 
       0.779291         290.875         71.4727         297.511 
       0.785407         289.489         70.1857         295.153 
       0.791564         286.697         68.9225         293.184 
       0.797719         284.311         67.6911         290.918 
       0.803834         280.277         66.4978         289.004 
       0.809972         279.388         65.3292         286.298 
       0.816124         277.897         64.1863         283.611 
       0.822261         275.608         63.0739         282.483 
       0.828378         273.136         61.9914         279.909 
       0.834502         269.484         60.9334         277.941 
       0.840667         267.959         59.8935         275.645 
       0.846816         266.609         58.8808         273.809 
       0.852925         265.018          57.898         271.832 
       0.859047         262.271         56.9358         269.133 
       0.865192         259.331         55.9923         267.036 
       0.871341         257.022         55.0697         265.017 
       0.877463         257.263         54.1721         263.813 
       0.883569         254.069         53.2969         263.344 
       0.889708         252.047         52.4367         259.876 
       0.895864         251.921         51.5932          258.75 
       0.902008         248.744         50.7702         256.007 
       0.908149         245.969         49.9657         253.975 
       0.914301         244.338         49.1774         251.915 
       0.920448         242.233         48.4069          250.94 
       0.926574         239.958         47.6557         249.361 
       0.932687         239.414          46.922         246.743 
       0.938823         236.372         46.2013         246.448 
       0.944975         236.167         45.4941         244.458 
       0.951105         233.964         44.8043         242.926 
       0.957225         232.708         44.1301         240.919 
       0.963368         229.413         43.4675         239.282 
       0.969511         228.394         42.8185         237.894 
       0.975621         227.104         42.1864         236.262 
       0.981748         225.179         41.5654         235.508 
       0.987916         223.957         40.9531         233.414 
        0.99406         222.167         40.3554         232.053 
        1.00019         220.213          39.771         230.449 
        1.00632         219.547         39.1987          228.62 
        1.01246         217.434         38.6368         227.066 
        1.01859         216.443         38.0869         225.935 
        1.02471         214.085         37.5485         224.345 
        1.03085          213.18         37.0186         223.296 
        1.03698         211.223         36.5001         222.497 
        1.04314         210.202         35.9894         220.579 
        1.04929         208.861         35.4896         218.924 
        1.05541         207.347         35.0014         217.886 
        1.06154         205.182         34.5212         216.995 
        1.06769         204.825         34.0493         215.422 
        1.07382         203.133         33.5877         214.041 
        1.07993         201.841         33.1358          212.96 
        1.08607         201.003         32.6903          211.31 
        1.09222         199.063         32.2526         210.206 
        1.09836         197.361         31.8235         209.096 
        1.10449         196.027         31.4026         208.489 
        1.11063         194.339          30.989          206.66 
        1.11677         193.796         30.5829          205.51 
         1.1229         191.522         30.1849         204.171 
        1.12903         190.721         29.7936         202.875 
        1.13518         189.788          29.409         201.622 
        1.14131         188.369         29.0313         200.822 
        1.14745          187.94         28.6606         199.048 
        1.15359         185.848         28.2962         198.615 
        1.15973          184.65         27.9381           197.2 
        1.16584         183.801         27.5877          196.74 
        1.17197         183.393         27.2429         195.485 
        1.17811         181.222         26.9029         194.063 
        1.18424         180.123         26.5698         192.903 
        1.19038         178.987         26.2413         192.344 
        1.19652           177.4         25.9185          190.59 
        1.20267         177.517         25.6012         190.217 
        1.20881         175.438         25.2893         189.024 
        1.21495         174.652          24.983         187.797 
        1.22108         173.341         24.6819         186.859 
         1.2272         172.085         24.3865         186.226 
        1.23334         171.939         24.0952         185.065 
        1.23949         169.866         23.8081         183.935 
        1.24562         168.963         23.5264           182.6 
        1.25174         168.028         23.2497         181.794 
        1.25789         167.314         22.9766         180.608 
        1.26402          165.55         22.7084         179.984 
        1.27014         165.093         22.4451         178.975 
        1.27628         163.423         22.1852         178.543 
        1.28244         163.104          21.929         177.353 
        1.28858         161.556         21.6771         176.566 
        1.29471         161.061         21.4297         175.651 
        1.30084         159.429         21.1865         174.276 
        1.30697         158.538         20.9466         173.437 
        1.31312         157.178         20.7102         172.601 
        1.31925         156.391         20.4781         171.804 
        1.32537          155.93         20.2498         170.879 
        1.33151         154.558         20.0242         170.129 
        1.33765         153.689         19.8022         169.251 
        1.34378          152.79          19.584         168.253 
        1.34992         152.109         19.3689         167.385 
        1.35606         151.189         19.1566         166.374 
         1.3622         149.544         18.9478          165.99 
        1.36833         149.086         18.7427         165.003 
        1.37445         148.064         18.5407         163.927 
        1.38059         147.297         18.3411         163.327 
        1.38675         146.708          18.144         162.307 
        1.39288          145.34         17.9505         161.788 
        1.39901         144.322         17.7599         160.909 
        1.40515         143.921         17.5717         159.892 
         1.4113         142.835         17.3863         158.972 
        1.41742         141.745         17.2042         158.248 
        1.42355         141.182         17.0245         157.585 
         1.4297         139.918         16.8467         156.723 
        1.43585         139.129         16.6716         156.234 
        1.44198         139.083         16.4996         155.479 
        1.44809         137.681         16.3304         154.496 
        1.45423         137.218         16.1629         153.742 
        1.46036         136.081         15.9981         152.979 
        1.46649         135.348         15.8355         152.305 
        1.47263         134.418         15.6751           151.6 
        1.47877         133.639          15.517         150.517 
        1.48491         132.743         15.3608         149.873 
        1.49104         132.262          15.207         149.324 
        1.49718          130.71         15.0553         148.654 
        1.50333         130.101         14.9054         147.698 
        1.50947         129.329         14.7578         146.977 
         1.5156         128.874         14.6125         146.518 
        1.52172         127.906         14.4691         145.941 
        1.52787         126.993         14.3273         145.044 
          1.534         126.458         14.1877         144.335 
        1.54013          125.65           14.05         143.864 
        1.54627         124.905         13.9139          143.25 
        1.55241         124.039         13.7796          142.46 
        1.55855         123.283         13.6472         141.654 
        1.56467         122.199          13.517         140.992 
         1.5708          121.69          13.388         140.272 
        1.57695         121.466         13.2606         139.619 
        1.58308         120.602         13.1351         139.126 
        1.58922         119.921         13.0112         138.499 
        1.59535         118.944         12.8889         137.767 
         1.6015         118.365          12.768         137.194 
        1.60764          117.97         12.6487         136.549 
        1.61376         117.017         12.5313         135.795 
        1.61989         116.164         12.4152         135.323 
        1.62604         115.544         12.3004         134.533 
        1.63218         115.075         12.1871           133.8 
        1.63831         114.379         12.0755         133.356 
        1.64444          113.69         11.9653         132.783 
        1.65059         112.634         11.8561         132.171 
        1.65673         112.309         11.7485         131.467 
        1.66285         111.658         11.6425         130.903 
        1.66898         111.091         11.5377         130.519 
        1.67512         110.039          11.434         129.821 
        1.68127         109.779         11.3316         129.168 
         1.6874         109.331         11.2306         128.645 
        1.69353         108.468         11.1308         128.085 
        1.69967         107.786         11.0321         127.532 
        1.70581         106.822         10.9346         126.902 
        1.71193         106.157         10.8387         126.275 
        1.71806         106.041         10.7437          125.82 
        1.72421         105.211         10.6496         125.322 
        1.73035         104.826         10.5568          124.76 
        1.73649         104.171         10.4651         124.107 
        1.74262         103.551         10.3746         123.313 
        1.74876         102.708         10.2851         122.771 
        1.75489         102.234         10.1968          122.42 
        1.76101         101.521         10.1096          121.99 
        1.76715          101.26         10.0233         121.352 
        1.77329         100.311         9.93785         120.801 
        1.77943         100.093         9.85339          120.37 
        1.78557         99.5852         9.77005         119.871 
        1.79171         98.5811         9.68765         119.212 
        1.79785         98.4286         9.60619         118.613 
        1.80399         97.6151         9.52568         118.255 
        1.81012         97.2632          9.4462         117.774 
        1.81625         96.6529         9.36766         117.191 
        1.82239         96.2145          9.2899         116.677 
        1.82853         95.4434         9.21305         116.211 
        1.83466         95.0562         9.13715         115.685 
        1.84078         94.5149         9.06218         115.143 
        1.84692         93.7713         8.98793         114.707 
        1.85306         93.5925         8.91442          114.19 
         1.8592          92.818         8.84185         113.642 
        1.86533         92.2786         8.77012         113.195 
        1.87147         91.8261         8.69911         112.673 
