# k  (h/Mpc)    Pcb(k)  (Mpc/h)^3    Pcb_linear(k) (Mpc/h)^3    Pcb_NL(k) (Mpc/h)^3   ShotnoiseSubtracted = false
     0.00783031         795.273         803.859          796.62 
       0.013688         894.297         896.203          890.72 
       0.019231          828.04         827.696         823.365 
      0.0249154         694.764         696.956         694.918 
      0.0312784         547.982         546.876         547.451 
      0.0375637         432.639         430.598          431.46 
      0.0433917         359.028         358.367         359.222 
      0.0492413         314.956         314.165         314.922 
      0.0555754         285.591         286.165         286.364 
      0.0619321         266.831         265.939         265.833 
       0.067871         245.023           245.6         245.298 
      0.0738098         219.945         220.529         220.193 
      0.0800417         189.918         190.565         190.479 
      0.0862327         161.382         161.366         161.596 
      0.0921407         138.292         137.869         138.249 
      0.0982031         120.275         120.179         120.697 
       0.104506         109.282         108.549         109.074 
       0.110769         102.479         102.043         102.389 
       0.116806         98.0968         98.1431          98.314 
       0.122832         94.4998         94.3331         94.4243 
       0.129052         88.7159         88.9316         88.9613 
       0.135211         81.5579         81.7468         81.8198 
       0.141259         73.7875         73.6135         73.7924 
       0.147318         65.9973         65.5761         65.9098 
       0.153489         58.9056         58.5815         58.9073 
       0.159709         53.6858         53.3245         53.7005 
       0.165845          50.468          49.882         50.3076 
       0.171974         47.9256         47.7211         48.0625 
       0.178125         46.4134         46.1731          46.505 
       0.184229         44.8883         44.6179         44.8954 
        0.19034         42.5749         42.6251         42.8626 
       0.196428         40.2691         40.1068         40.3069 
       0.202534         37.6715         37.2301         37.4716 
       0.208729          34.597         34.2933         34.5735 
       0.214876          31.899         31.6868         32.0516 
       0.220989         29.9969         29.5907         29.9783 
       0.227147         28.2371         28.0082         28.3778 
        0.23329         27.0626         26.8499         27.2276 
       0.239377          26.164         25.9368         26.2909 
       0.245482         25.1613         25.0689         25.3606 
       0.251667         24.3288         24.0999         24.4073 
       0.257832         23.1886         22.9945         23.2848 
       0.263955         22.0081         21.7925         22.0769 
       0.270079         20.8174         20.5705          20.865 
        0.27624         19.7714         19.4188         19.7124 
       0.282372         18.7802         18.4152         18.7415 
        0.28843         17.8737         17.5881         17.9183 
       0.294538         17.1575         16.9001         17.2186 
       0.300721         16.6365         16.3054         16.6246 
        0.30691         15.9964         15.7558         16.0697 
       0.313033         15.4356         15.2111         15.5019 
       0.319153         14.7389         14.6424         14.9327 
       0.325316         14.3309         14.0456         14.3443 
        0.33145         13.6918         13.4471         13.7357 
       0.337538          13.133          12.874         13.1588 
       0.343633         12.5576         12.3426         12.6267 
       0.349808         12.1121         11.8607         12.1599 
       0.355968         11.7004         11.4337         11.7568 
       0.362074         11.2906         11.0545         11.3536 
       0.368217         10.9236         10.7004         10.9711 
       0.374374         10.5442         10.3585         10.6383 
       0.380519          10.241         10.0209         10.2853 
       0.386598         9.91748         9.68613         9.95469 
       0.392688         9.62138         9.35395         9.62252 
        0.39888         9.26352         9.02495         9.29732 
       0.405048         8.96476         8.71247         8.96633 
       0.411186         8.67579         8.42216         8.69683 
       0.417313         8.37931         8.15324         8.42044 
       0.423458         8.13895         7.90254         8.16995 
       0.429607          7.8776         7.66741         7.92258 
       0.435692         7.65053         7.44529         7.70276 
       0.441815         7.43477         7.22827         7.49321 
       0.447964         7.25476         7.01552         7.26645 
       0.454126         6.99617         6.80717         7.05513 
       0.460267         6.80831         6.60482         6.86247 
       0.466387         6.58352         6.41034         6.65337 
        0.47254         6.41714         6.22372          6.4692 
       0.478662         6.25878         6.04737         6.28653 
       0.484765         6.05933         5.88028         6.11532 
       0.490885         5.90855         5.72084         5.97173 
       0.497035         5.79019         5.56766         5.82176 
       0.503198         5.62017         5.41989         5.65235 
       0.509342         5.48121           5.277         5.51158 
       0.515458         5.32283         5.13872         5.38199 
       0.521598         5.19338         5.00411          5.2278 
       0.527764         5.04581         4.87339         5.09463 
       0.533884         4.94898         4.74822         4.96652 
           0.54         4.81676         4.62775         4.84337 
       0.546137         4.70446          4.5115         4.73369 
       0.552299         4.59273         4.39941         4.60304 
       0.558452         4.45888         4.29185           4.499 
       0.564573          4.3736         4.18862         4.40874 
       0.570708         4.26901         4.08846         4.30175 
       0.576825         4.15759         3.99159         4.19874 
       0.582926         4.07452         3.89783         4.10716 
       0.589034         3.95066         3.80682         4.02384 
       0.595184         3.87337          3.7181         3.91071 
       0.601379         3.78057         3.63169          3.8434 
       0.607522         3.71244         3.54885          3.7528 
       0.613639         3.64268         3.46902         3.66817 
       0.619772         3.54019         3.39153         3.59738 
       0.625918         3.48209          3.3163         3.51237 
       0.632068          3.4179         3.24334         3.43387 
       0.638161          3.3269         3.17325         3.36473 
         0.6443          3.2564         3.10474         3.29014 
       0.650464         3.17637         3.03801         3.23239 
       0.656582         3.13117         2.97371         3.16329 
       0.662703         3.06344         2.91124         3.09568 
       0.668861         3.00898         2.85021         3.03995 
       0.675024         2.93869         2.79087         2.97518 
       0.681124         2.87687         2.73384         2.91346 
       0.687237         2.82633         2.67829         2.85027 
       0.693381         2.77089         2.62405         2.79213 
       0.699536         2.69742         2.57123         2.74109 
       0.705665         2.65134         2.52012         2.70064 
       0.711789         2.60561         2.47046         2.64422 
       0.717957         2.54814         2.42181         2.58905 
        0.72409         2.49938         2.37476         2.54468 
       0.730186          2.4563         2.32925         2.49378 
       0.736317         2.42441         2.28469         2.44484 
       0.742472         2.37782         2.24113          2.4082 
       0.748622         2.32774         2.19876         2.36655 
        0.75476         2.27591         2.15758         2.31804 
       0.760888         2.23678         2.11752         2.27774 
       0.767043         2.20824         2.07833         2.23982 
       0.773185         2.15743         2.04021         2.20236 
       0.779291         2.12642         2.00327         2.16367 
       0.785407         2.08638          1.9672         2.12328 
       0.791564         2.05386         1.93179         2.08751 
       0.797719         2.01874         1.89728         2.04767 
       0.803834         1.98999         1.86383         2.01468 
       0.809972         1.95434         1.83108         1.98682 
       0.816124         1.91312         1.79904         1.94791 
       0.822261         1.87569         1.76786         1.91394 
       0.828378         1.85062         1.73752         1.88434 
       0.834502         1.82759         1.70787         1.85114 
       0.840667         1.78555         1.67872         1.82265 
       0.846816         1.75554         1.65034         1.79795 
       0.852925         1.73686         1.62279         1.76613 
       0.859047         1.70615         1.59582         1.74283 
       0.865192         1.67769         1.56938         1.71202 
       0.871341         1.65343         1.54352         1.68513 
       0.877463         1.62889         1.51836         1.65634 
       0.883569         1.59707         1.49383         1.63365 
       0.889708         1.57245         1.46972         1.60871 
       0.895864         1.54623         1.44608         1.58211 
       0.902008         1.52241         1.42301         1.55905 
       0.908149         1.50185         1.40046         1.53428 
       0.914301         1.47144         1.37837         1.51194 
       0.920448         1.45034         1.35677          1.4876 
       0.926574         1.42743         1.33572         1.46887 
       0.932687         1.40641         1.31515         1.44093 
       0.938823         1.38954         1.29495         1.42637 
       0.944975         1.36941         1.27513         1.40127 
       0.951105         1.34921          1.2558          1.3814 
       0.957225         1.33619          1.2369         1.36356 
       0.963368          1.3136         1.21833         1.34233 
       0.969511          1.2911         1.20014         1.32444 
       0.975621         1.27062         1.18242         1.30202 
       0.981748         1.25752         1.16501         1.28344 
       0.987916         1.23665         1.14785         1.26993 
        0.99406         1.21548          1.1311         1.25354 
        1.00019         1.20263         1.11472         1.23632 
        1.00632         1.18244         1.09868         1.21664 
        1.01246         1.16694         1.08293         1.20032 
        1.01859         1.15247         1.06752         1.18501 
        1.02471         1.13555         1.05243         1.16735 
        1.03085         1.12093         1.03757         1.15016 
        1.03698         1.10377         1.02304         1.13536 
        1.04314         1.09052         1.00873         1.12034 
        1.04929         1.07503        0.994721         1.10618 
        1.05541         1.06177        0.981036         1.09319 
        1.06154         1.04594        0.967577         1.07886 
        1.06769          1.0337        0.954349         1.06573 
        1.07382         1.01873        0.941413         1.05056 
        1.07993         1.00255        0.928746         1.03633 
        1.08607         0.99516         0.91626         1.02564 
        1.09222        0.979144        0.903992         1.01002 
        1.09836        0.969721        0.891964        0.997605 
        1.10449        0.957755        0.880169        0.986546 
        1.11063        0.940815        0.868575        0.971581 
        1.11677        0.928886        0.857194        0.961201 
         1.1229        0.917559        0.846038        0.950008 
        1.12903         0.90553        0.835071        0.937894 
        1.13518        0.896208        0.824289        0.925979 
        1.14131        0.882195        0.813705        0.914342 
        1.14745        0.866563        0.803313        0.901574 
        1.15359        0.860269        0.793101        0.893676 
        1.15973        0.845956        0.783062        0.882578 
        1.16584        0.841552        0.773243        0.870666 
        1.17197        0.829167        0.763578        0.861716 
        1.17811        0.821039        0.754049        0.851876 
        1.18424        0.811772        0.744711        0.840145 
        1.19038        0.799253        0.735505        0.830423 
        1.19652        0.789744        0.726458        0.822341 
        1.20267        0.782737        0.717564        0.810529 
        1.20881        0.770774         0.70882        0.801618 
        1.21495         0.76399        0.700237        0.795142 
        1.22108        0.754454        0.691797        0.784181 
         1.2272        0.747194        0.683517          0.7742 
        1.23334        0.736058        0.675354        0.766858 
        1.23949        0.727717        0.667305         0.75925 
        1.24562        0.720554        0.659409        0.750374 
        1.25174        0.712265        0.651654        0.740706 
        1.25789        0.704356           0.644        0.732496 
        1.26402        0.693859        0.636482        0.724316 
        1.27014         0.68639        0.629103        0.716675 
        1.27628        0.681894        0.621819        0.708134 
        1.28244        0.670626        0.614636        0.700286 
        1.28858        0.664412        0.607577        0.692272 
        1.29471        0.657213        0.600644        0.684888 
        1.30084        0.648555        0.593826        0.679618 
        1.30697        0.642145        0.587103        0.671565 
        1.31312        0.632415        0.580475        0.663907 
        1.31925        0.627718        0.573971         0.65837 
        1.32537        0.621104        0.567573         0.65107 
        1.33151        0.615953        0.561249        0.644063 
        1.33765        0.607884        0.555026        0.637512 
        1.34378        0.600247         0.54891        0.630902 
        1.34992        0.595469        0.542882        0.624199 
        1.35606        0.587242        0.536931        0.616539 
         1.3622        0.582377         0.53108        0.610616 
        1.36833        0.575543        0.525331        0.605828 
        1.37445        0.567887         0.51967        0.599461 
        1.38059        0.563109        0.514075        0.593177 
        1.38675        0.560184        0.508549        0.586015 
        1.39288        0.552138        0.503126        0.580951 
        1.39901        0.545887        0.497785        0.575123 
        1.40515        0.540527        0.492509        0.568742 
         1.4113         0.53448        0.487312        0.563958 
        1.41742        0.529309         0.48221        0.559562 
        1.42355        0.526132        0.477171        0.551222 
         1.4297        0.518296        0.472189        0.548803 
        1.43585        0.513495         0.46728        0.542492 
        1.44198        0.510479         0.46246        0.535587 
        1.44809        0.503266        0.457717         0.53223 
        1.45423        0.498588        0.453023        0.525444 
        1.46036        0.493454        0.448404        0.520856 
        1.46649         0.48874        0.443847        0.516988 
        1.47263        0.483115        0.439351        0.511677 
        1.47877        0.478093        0.434918        0.506373 
        1.48491        0.473757         0.43054        0.502517 
        1.49104        0.468652        0.426231        0.496347 
        1.49718        0.464942        0.421978        0.493187 
        1.50333        0.459329        0.417776         0.48757 
        1.50947        0.455834         0.41364        0.482436 
         1.5156         0.45088        0.409567        0.478845 
        1.52172        0.446343        0.405548         0.47435 
        1.52787        0.441805        0.401575        0.469389 
          1.534        0.438175         0.39766        0.465764 
        1.54013        0.432987        0.393801        0.461456 
        1.54627        0.428858        0.389986        0.456695 
        1.55241         0.42485        0.386221        0.452647 
        1.55855        0.421142        0.382512        0.448644 
        1.56467        0.418045        0.378861        0.444859 
         1.5708        0.412638        0.375247        0.440305 
        1.57695        0.410214        0.371676         0.43635 
        1.58308         0.40579        0.368159        0.433199 
        1.58922        0.401967        0.364685        0.429185 
        1.59535        0.398159        0.361257        0.425289 
         1.6015        0.394413        0.357869        0.421256 
        1.60764         0.39131        0.354525        0.417765 
        1.61376        0.386905        0.351234        0.414898 
        1.61989        0.383867        0.347982        0.411234 
        1.62604        0.379946        0.344763        0.407565 
        1.63218        0.377328        0.341588        0.404209 
        1.63831        0.373883         0.33846        0.400663 
        1.64444         0.36994        0.335369        0.396679 
        1.65059        0.366695         0.33231        0.393352 
        1.65673         0.36307        0.329293        0.390251 
        1.66285        0.360058        0.326321        0.386846 
        1.66898         0.35801        0.323385        0.383214 
        1.67512        0.353099         0.32048        0.380192 
        1.68127        0.350289        0.317607        0.377294 
         1.6874        0.348412        0.314777        0.374356 
        1.69353        0.344435        0.311982        0.371335 
        1.69967        0.341111        0.309214        0.367762 
        1.70581        0.338665        0.306482        0.364858 
        1.71193         0.33562        0.303792        0.362291 
        1.71806        0.332815         0.30113        0.358694 
        1.72421        0.329848        0.298494        0.355899 
        1.73035        0.326325        0.295892        0.353062 
        1.73649        0.324658        0.293322         0.34972 
        1.74262        0.321565        0.290785        0.347065 
        1.74876        0.318184        0.288276        0.344881 
        1.75489        0.315368        0.285801        0.342243 
        1.76101        0.312879        0.283357        0.339067 
        1.76715        0.310291        0.280938        0.336498 
        1.77329        0.307941        0.278544        0.334023 
        1.77943        0.304524        0.276177        0.331157 
        1.78557        0.302355        0.273841        0.328081 
        1.79171        0.300253        0.271531        0.325317 
        1.79785        0.297371        0.269248        0.322987 
        1.80399        0.295061        0.266991        0.320714 
        1.81012        0.292626        0.264764        0.317685 
        1.81625        0.290022        0.262562        0.315092 
        1.82239          0.2882        0.260383        0.313396 
        1.82853        0.284687        0.258229        0.311439 
        1.83466        0.282752        0.256102        0.308837 
        1.84078        0.280119           0.254        0.306038 
        1.84692        0.278558        0.251919        0.303744 
        1.85306        0.276578        0.249859        0.301169 
         1.8592        0.273993        0.247825          0.2987 
        1.86533        0.271891        0.245814         0.29685 
        1.87147        0.269496        0.243824        0.294423 
