# k  (h/Mpc)    P(k)  (Mpc/h)^3    P_linear(k)  (Mpc/h)^3     P_NL(k)  ShotnoiseSubtracted = false
     0.00783031         26762.4         27212.6         26944.2 
       0.013688           30824         30401.5         30142.1 
       0.019231         28239.7         28085.5         27843.7 
      0.0249154         23121.5         23650.4           23461 
      0.0312784         18409.9         18557.5         18436.6 
      0.0375637           14759         14611.5         14558.3 
      0.0433917         12058.9         12160.3         12101.4 
      0.0492413         10699.3         10660.3         10613.4 
      0.0555754         9475.17         9710.04         9673.33 
      0.0619321         9137.73         9023.66         8983.98 
       0.067871         8166.02         8333.46         8308.77 
      0.0738098         7365.47         7482.73         7389.22 
      0.0800417         6346.78         6465.98         6446.57 
      0.0862327         5508.03         5475.23         5588.28 
      0.0921407         4884.59         4677.94         4832.56 
      0.0982031         4257.46         4077.68         4329.11 
       0.104506            3989         3683.09         3988.17 
       0.110769         3713.56         3462.31         3687.71 
       0.116806          3554.1         3329.99         3505.72 
       0.122832         3391.82         3200.71         3354.66 
       0.129052         3120.91         3017.43         3150.04 
       0.135211         2903.12         2773.65         2918.86 
       0.141259         2728.18         2497.68         2703.57 
       0.147318         2518.43         2224.97         2500.63 
       0.153489          2271.7         1987.64         2249.33 
       0.159709         2129.02         1809.27         2110.34 
       0.165845         2043.58         1692.47         2031.63 
       0.171974         1951.52         1619.15         1930.65 
       0.178125         1860.99         1566.63         1882.09 
       0.184229         1771.87         1513.86         1792.25 
        0.19034          1679.8         1446.25         1704.54 
       0.196428         1625.08          1360.8         1615.06 
       0.202534         1548.79         1263.19         1536.87 
       0.208729         1461.31         1163.55         1433.84 
       0.214876         1399.41         1075.11          1387.4 
       0.220989         1340.59         1003.99         1336.18 
       0.227147         1289.41         950.301         1291.43 
        0.23329         1235.57         910.999         1255.95 
       0.239377         1212.27         880.016         1207.11 
       0.245482         1136.52         850.571         1156.24 
       0.251667         1127.45         817.691         1124.94 
       0.257832         1076.89         780.182         1077.43 
       0.263955         1036.71         739.402         1036.72 
       0.270079         996.487         697.943          1000.2 
        0.27624         980.276         658.866         962.733 
       0.282372         940.608         624.815         941.085 
        0.28843         930.142         596.751         920.157 
       0.294538         881.185         573.407         890.489 
       0.300721         872.611         553.229          864.38 
        0.30691         840.195         534.582         852.245 
       0.313033         820.847         516.098         821.588 
       0.319153          803.05         496.806         796.919 
       0.325316         778.395         476.555         778.333 
        0.33145         757.992         456.248          748.82 
       0.337538         739.818         436.805         732.341 
       0.343633         724.489         418.775         721.499 
       0.349808         696.497         402.423         708.319 
       0.355968         690.384         387.933         691.829 
       0.362074         682.794         375.069         678.746 
       0.368217         659.737         363.055          661.47 
       0.374374         634.479         351.456         646.102 
       0.380519         633.482         340.003         631.123 
       0.386598         612.744         328.642         623.504 
       0.392688         608.866         317.372         607.893 
        0.39888           590.1         306.209         594.363 
       0.405048         582.681         295.607         581.888 
       0.411186          573.77         285.757         571.076 
       0.417313         562.001         276.632         561.519 
       0.423458         547.829         268.127         550.893 
       0.429607         543.301         260.149         542.394 
       0.435692         528.656         252.613         527.223 
       0.441815         521.908         245.249         523.239 
       0.447964         511.738         238.031         516.428 
       0.454126         506.346         230.961         501.471 
       0.460267         493.135         224.096         498.293 
       0.466387         485.904         217.497         490.141 
        0.47254         483.842         211.165         481.376 
       0.478662         476.164         205.182         472.445 
       0.484765         460.588         199.513         466.103 
       0.490885         456.179         194.103         456.824 
       0.497035          446.93         188.906         451.676 
       0.503198         442.955         183.892         446.089 
       0.509342         439.921         179.044         437.797 
       0.515458         435.246         174.352          432.71 
       0.521598         422.057         169.785         427.446 
       0.527764         417.943          165.35         423.552 
       0.533884         412.928         161.103         417.858 
           0.54         407.952         157.016         411.221 
       0.546137         404.245         153.071          406.34 
       0.552299         398.658         149.268         400.536 
       0.558452         394.531         145.619         396.102 
       0.564573         390.048         142.116         392.353 
       0.570708         383.604         138.718         386.905 
       0.576825         375.983         135.431          380.67 
       0.582926         374.362          132.25         377.819 
       0.589034         369.404         129.162          372.46 
       0.595184          367.12         126.152         367.109 
       0.601379         359.137          123.22         362.864 
       0.607522         355.779         120.409         356.978 
       0.613639         352.289         117.701         356.293 
       0.619772         348.293         115.071         353.978 
       0.625918         345.386         112.519         348.186 
       0.632068         339.264         110.044         345.638 
       0.638161         336.675         107.666         342.024 
         0.6443         332.834         105.341         337.521 
       0.650464         330.032         103.077         332.145 
       0.656582          324.88         100.895         330.009 
       0.662703         324.525         98.7757         327.044 
       0.668861         320.235         96.7049         325.564 
       0.675024         316.679         94.6918         322.236 
       0.681124         313.173         92.7565         317.534 
       0.687237         310.785         90.8719         314.081 
       0.693381         305.739         89.0315         310.946 
       0.699536         301.714         87.2396         308.965 
       0.705665         299.989         85.5054         304.104 
       0.711789         298.838         83.8205         302.552 
       0.717957         295.599         82.1699         301.281 
        0.72409         294.017         80.5734         296.871 
       0.730186         289.693         79.0292         293.688 
       0.736317         287.524         77.5173         292.182 
       0.742472         284.147         76.0395         290.039 
       0.748622         282.184         74.6019         286.458 
        0.75476         278.347         73.2047         286.522 
       0.760888         275.437         71.8455         282.774 
       0.767043         274.526         70.5156         279.496 
       0.773185           272.2         69.2224          277.66 
       0.779291         268.694         67.9691         274.846 
       0.785407         267.577         66.7452         272.651 
       0.791564         264.896         65.5439         270.679 
       0.797719          262.51         64.3729         268.519 
       0.803834         258.901         63.2381         266.837 
       0.809972         258.104         62.1267         264.361 
       0.816124         256.644         61.0398         261.809 
       0.822261         254.619          59.982         260.789 
       0.828378          252.17         58.9525         258.333 
       0.834502         248.931         57.9464         256.477 
       0.840667         247.553         56.9574          254.25 
       0.846816         246.221         55.9944         252.558 
       0.852925         244.641         55.0598         250.758 
       0.859047         242.171         54.1447         248.309 
       0.865192         239.351         53.2475         246.235 
       0.871341         237.165         52.3701         244.481 
       0.877463         237.474         51.5165         243.298 
       0.883569         234.552         50.6842         242.909 
       0.889708         232.374         49.8662         239.631 
       0.895864         232.257         49.0641         238.553 
       0.902008         229.375         48.2814         236.031 
       0.908149         226.888         47.5164         234.212 
       0.914301         225.272         46.7667         232.302 
       0.920448         223.415         46.0339         231.347 
       0.926574         221.174         45.3195         229.776 
       0.932687          220.85         44.6219         227.487 
       0.938823         217.987         43.9365         227.194 
       0.944975         217.724         43.2639         225.234 
       0.951105         215.704          42.608         223.796 
       0.957225         214.601         41.9668         221.994 
       0.963368         211.434         41.3367           220.5 
       0.969511         210.512         40.7195         219.215 
       0.975621         209.238         40.1183         217.705 
       0.981748         207.531         39.5278         216.915 
       0.987916         206.366         38.9455         215.024 
        0.99406         204.777         38.3772          213.71 
        1.00019         202.915         37.8214          212.22 
        1.00632         202.286         37.2771          210.53 
        1.01246          200.31         36.7428         209.003 
        1.01859         199.559         36.2199         208.014 
        1.02471          197.18         35.7078         206.616 
        1.03085         196.311         35.2039         205.588 
        1.03698         194.597         34.7108         204.839 
        1.04314         193.483         34.2251         203.095 
        1.04929          192.42         33.7499         201.519 
        1.05541         190.985         33.2856         200.561 
        1.06154         189.045         32.8289         199.755 
        1.06769         188.659         32.3801         198.331 
        1.07382         187.084         31.9412         197.103 
        1.07993         185.817         31.5114         196.055 
        1.08607         185.217         31.0878         194.488 
        1.09222         183.306         30.6716         193.475 
        1.09836         181.807         30.2635         192.449 
        1.10449         180.523         29.8633         191.851 
        1.11063         179.049         29.4699         190.167 
        1.11677         178.394         29.0837         189.082 
         1.1229         176.326         28.7052          187.86 
        1.12903         175.642         28.3331         186.668 
        1.13518         174.765         27.9673         185.614 
        1.14131          173.35         27.6082          184.74 
        1.14745         173.106         27.2556         183.137 
        1.15359         171.076         26.9091         182.724 
        1.15973         169.869         26.5685         181.442 
        1.16584         169.187         26.2354         181.008 
        1.17197         168.848         25.9074         179.835 
        1.17811         166.648         25.5841         178.517 
        1.18424         165.858         25.2673         177.475 
        1.19038          164.83         24.9549         176.992 
        1.19652         163.268          24.648         175.338 
        1.20267         163.306         24.3462         174.994 
        1.20881         161.477         24.0496         173.865 
        1.21495         160.679         23.7583         172.756 
        1.22108         159.602          23.472         171.846 
         1.2272         158.366         23.1911          171.25 
        1.23334         158.285         22.9141         170.226 
        1.23949         156.285          22.641         169.171 
        1.24562          155.52         22.3731          167.89 
        1.25174         154.643           22.11          167.13 
        1.25789         153.996         21.8503         166.078 
        1.26402         152.272         21.5952          165.53 
        1.27014         151.843         21.3448         164.587 
        1.27628         150.396         21.0977         164.214 
        1.28244         150.108          20.854         163.099 
        1.28858         148.677         20.6145         162.357 
        1.29471         148.153         20.3792         161.497 
        1.30084         146.664         20.1479          160.26 
        1.30697         145.766         19.9198         159.459 
        1.31312         144.616         19.6949          158.63 
        1.31925         143.818         19.4742         157.959 
        1.32537         143.475         19.2572         157.112 
        1.33151         142.221         19.0426         156.392 
        1.33765         141.393         18.8315         155.615 
        1.34378         140.537         18.6239         154.722 
        1.34992         139.923         18.4194         153.918 
        1.35606         139.161         18.2175         152.951 
         1.3622         137.571          18.019         152.588 
        1.36833         137.142         17.8239         151.674 
        1.37445          136.27         17.6319          150.68 
        1.38059         135.505          17.442         150.093 
        1.38675         134.977         17.2545         149.162 
        1.39288         133.663         17.0705         148.677 
        1.39901         132.871         16.8893         147.871 
        1.40515         132.372         16.7103         146.952 
         1.4113         131.496          16.534          146.16 
        1.41742         130.314         16.3609         145.516 
        1.42355          129.93         16.1899         144.786 
         1.4297         128.739         16.0209         144.068 
        1.43585         128.038         15.8543          143.59 
        1.44198         127.931         15.6908         142.921 
        1.44809         126.741         15.5299         142.012 
        1.45423         126.303         15.3706         141.284 
        1.46036         125.218         15.2139         140.596 
        1.46649         124.525         15.0593         139.988 
        1.47263         123.661         14.9067         139.337 
        1.47877         122.868         14.7563         138.372 
        1.48491          122.06         14.6078          137.74 
        1.49104         121.647         14.4616         137.255 
        1.49718         120.249         14.3173         136.608 
        1.50333         119.663         14.1747         135.773 
        1.50947         119.001         14.0344         135.121 
         1.5156         118.517         13.8962         134.655 
        1.52172         117.701         13.7598         134.111 
        1.52787         116.804          13.625         133.304 
          1.534         116.364         13.4922         132.667 
        1.54013         115.669         13.3612         132.218 
        1.54627         114.965         13.2318         131.636 
        1.55241         114.162         13.1041         130.914 
        1.55855         113.455         12.9782         130.186 
        1.56467         112.445         12.8543         129.581 
         1.5708         111.973         12.7317         128.923 
        1.57695         111.827         12.6106         128.322 
        1.58308         111.043         12.4912         127.852 
        1.58922         110.361         12.3734         127.274 
        1.59535         109.524         12.2571         126.638 
         1.6015         109.063         12.1421         126.094 
        1.60764         108.624         12.0287          125.49 
        1.61376         107.742          11.917         124.844 
        1.61989         106.895         11.8066         124.383 
        1.62604         106.413         11.6974         123.625 
        1.63218         105.975         11.5897         122.965 
        1.63831         105.385         11.4836         122.587 
        1.64444         104.667         11.3787         122.037 
        1.65059         103.699         11.2749         121.459 
        1.65673          103.46         11.1726         120.825 
        1.66285         102.918         11.0717         120.321 
        1.66898         102.294         10.9721         119.957 
        1.67512         101.313         10.8735          119.31 
        1.68127         101.073         10.7761         118.728 
         1.6874         100.683           10.68         118.251 
        1.69353         99.9303         10.5852         117.698 
        1.69967         99.2674         10.4913         117.197 
        1.70581         98.3796         10.3986         116.641 
        1.71193         97.7949         10.3073         116.059 
        1.71806         97.7277          10.217         115.608 
        1.72421         96.9997         10.1276         115.173 
        1.73035          96.645         10.0393         114.665 
        1.73649         95.9835          9.9521         114.043 
        1.74262         95.4348         9.86601         113.343 
        1.74876         94.7456         9.78088         112.847 
        1.75489         94.2244         9.69693         112.501 
        1.76101         93.5655         9.61399         112.106 
        1.76715         93.3391         9.53191          111.56 
        1.77329         92.4544         9.45069         111.042 
        1.77943         92.3275         9.37037         110.613 
        1.78557         91.8254         9.29111         110.172 
        1.79171         90.8955         9.21276         109.592 
        1.79785         90.7208         9.13529         109.031 
        1.80399         90.0298         9.05872         108.661 
        1.81012         89.6286         8.98314         108.248 
        1.81625         89.1333         8.90845          107.73 
        1.82239         88.6641          8.8345         107.222 
        1.82853         87.9959         8.76142          106.79 
        1.83466         87.6258         8.68924         106.301 
        1.84078         87.1963         8.61795         105.803 
        1.84692         86.4559         8.54734         105.445 
        1.85306         86.2418         8.47743          104.95 
         1.8592         85.5385         8.40841         104.407 
        1.86533         85.0548          8.3402         104.036 
        1.87147         84.6249         8.27267         103.595 
        1.87761         83.9399         8.20586         103.103 
