# k  (h/Mpc)    Pcb(k)  (Mpc/h)^3    Pcb_linear(k) (Mpc/h)^3    Pcb_NL(k) (Mpc/h)^3   ShotnoiseSubtracted = false
     0.00783031         20115.8         20429.3         20236.8 
       0.013688         23050.6         22788.5         22610.3 
       0.019231         21153.4         21045.4         20884.1 
      0.0249154         17392.3         17719.7           17603 
      0.0312784         13829.1         13903.1         13841.6 
      0.0375637         11052.2         10946.4         10923.8 
      0.0433917         9054.41         9109.92         9083.97 
      0.0492413          8016.7         7986.09         7966.87 
      0.0555754         7132.32         7274.17         7257.21 
      0.0619321         6846.59         6759.94         6739.46 
       0.067871         6146.06         6242.87         6230.16 
      0.0738098         5536.22         5605.54          5554.3 
      0.0800417         4769.34         4843.86         4835.03 
      0.0862327         4121.43         4101.65         4169.62 
      0.0921407         3628.64         3504.37         3596.28 
      0.0982031         3154.86          3054.7         3203.08 
       0.104506         2944.64          2759.1         2938.49 
       0.110769         2743.87         2593.71         2723.73 
       0.116806         2620.68         2494.58         2595.21 
       0.122832         2510.38         2397.73         2486.76 
       0.129052         2315.54         2260.43         2335.96 
       0.135211          2150.9         2077.81         2162.28 
       0.141259         2006.83         1871.07         1990.39 
       0.147318         1839.56         1666.78         1830.37 
       0.153489          1653.3         1488.99         1641.34 
       0.159709         1544.53         1355.37         1530.81 
       0.165845         1475.46         1267.87         1468.33 
       0.171974         1405.22         1212.95         1393.45 
       0.178125         1344.63          1173.6          1358.1 
       0.184229         1287.14         1134.07         1296.57 
        0.19034            1209         1083.42         1233.04 
       0.196428          1171.3         1019.41         1163.14 
       0.202534         1116.81         946.288         1102.85 
       0.208729         1047.29         871.644         1027.25 
       0.214876         992.419         805.392         989.996 
       0.220989         948.964         752.115         948.189 
       0.227147         908.653         711.891         911.259 
        0.23329         870.872         682.449         885.415 
       0.239377           852.2          659.24         850.475 
       0.245482         795.568         637.183         813.325 
       0.251667         788.468         612.554         791.536 
       0.257832         753.736         584.455         756.253 
       0.263955         725.161         553.904          725.27 
       0.270079         693.906         522.845         698.081 
        0.27624         682.165          493.57         669.497 
       0.282372          654.28         468.063         650.506 
        0.28843         640.551          447.04         632.601 
       0.294538         606.238         429.553         612.734 
       0.300721         601.213         414.436         594.869 
        0.30691         575.156         400.468         583.731 
       0.313033         562.369         386.622         562.256 
       0.319153          546.18         372.169         545.007 
       0.325316         529.859         356.999         530.381 
        0.33145         513.406         341.786         509.397 
       0.337538         502.684          327.22         496.201 
       0.343633          488.19         313.714         488.865 
       0.349808          469.04         301.464         478.214 
       0.355968         464.466         290.611         467.409 
       0.362074         457.725         280.973         456.495 
       0.368217         443.478         271.973         442.474 
       0.374374         423.464         263.284         431.832 
       0.380519          421.75         254.703         420.441 
       0.386598         409.141         246.194         415.644 
       0.392688         405.561          237.75          402.54 
        0.39888         393.581         229.388         394.365 
       0.405048         385.155         221.446         386.677 
       0.411186         378.946         214.067         376.696 
       0.417313         370.925         207.232         369.074 
       0.423458         361.746          200.86         362.674 
       0.429607         356.996         194.883         355.739 
       0.435692         347.103         189.238          345.81 
       0.441815         342.955         183.722         342.235 
       0.447964         334.894         178.314         336.353 
       0.454126         328.384         173.018         326.474 
       0.460267           321.1         167.875         324.106 
       0.466387          316.63         162.932         318.122 
        0.47254         311.283         158.189         312.127 
       0.478662         309.304         153.707         305.692 
       0.484765         297.638         149.459         300.111 
       0.490885         294.459         145.407          294.82 
       0.497035         288.508         141.514         290.724 
       0.503198         284.564         137.758         286.428 
       0.509342         282.501         134.126         281.659 
       0.515458         278.335         130.611         278.056 
       0.521598         270.425          127.19         273.347 
       0.527764         267.281         123.867          270.55 
       0.533884         264.012         120.686         266.504 
           0.54         260.095         117.624         261.397 
       0.546137         258.265         114.669         258.124 
       0.552299         253.077          111.82          253.89 
       0.558452         251.414         109.086         250.532 
       0.564573         247.796         106.462         248.287 
       0.570708         242.408         103.917          245.25 
       0.576825         237.978         101.455         240.134 
       0.582926          235.67         99.0713         237.798 
       0.589034         232.855         96.7581         234.783 
       0.595184         230.953         94.5031         230.499 
       0.601379         226.337          92.307         227.785 
       0.607522         223.713         90.2013         224.279 
       0.613639         221.543         88.1723          223.67 
       0.619772         217.457         86.2026         221.666 
       0.625918         216.198         84.2905         217.252 
       0.632068         212.063         82.4362         214.689 
       0.638161         210.861         80.6547         213.325 
         0.6443         207.527         78.9134         210.533 
       0.650464         205.356         77.2172         206.233 
       0.656582         202.335         75.5829         204.786 
       0.662703         202.162         73.9952         202.762 
       0.668861         198.982         72.4438         201.235 
       0.675024         195.874         70.9358         199.084 
       0.681124         194.055          69.486         195.754 
       0.687237         192.037         68.0742         193.701 
       0.693381         188.845         66.6956         191.483 
       0.699536         186.959         65.3532         189.949 
       0.705665         185.074         64.0541         187.259 
       0.711789         183.719         62.7918         186.311 
       0.717957         182.601         61.5554         184.912 
        0.72409         180.509         60.3594         182.618 
       0.730186         177.904         59.2026         180.552 
       0.736317         176.028           58.07         178.822 
       0.742472         174.308          56.963         176.853 
       0.748622         172.975          55.886         175.081 
        0.75476         170.924         54.8393         174.649 
       0.760888         169.108         53.8211         171.821 
       0.767043         168.443         52.8249         170.493 
       0.773185         166.958         51.8561         169.166 
       0.779291         163.826         50.9172         167.084 
       0.785407         163.235         50.0003         165.589 
       0.791564         161.665         49.1004         164.067 
       0.797719         158.974         48.2232         162.854 
       0.803834         157.847         47.3731         161.726 
       0.809972         157.199         46.5405          160.21 
       0.816124         155.935         45.7263         158.679 
       0.822261         154.855         44.9339         157.693 
       0.828378         153.101         44.1627         155.975 
       0.834502         152.065          43.409         154.539 
       0.840667          150.22         42.6681         153.122 
       0.846816         148.954         41.9467          152.16 
       0.852925         147.844         41.2466         151.028 
       0.859047         146.824          40.561         149.848 
       0.865192         144.652         39.8889         148.131 
       0.871341         143.483         39.2316         147.098 
       0.877463         142.687         38.5922         146.283 
       0.883569         141.987         37.9687         145.699 
       0.889708         140.094         37.3559         143.815 
       0.895864         139.045          36.755          142.94 
       0.902008         137.868         36.1687         141.539 
       0.908149         137.238         35.5956         140.499 
       0.914301         135.363          35.034         139.293 
       0.920448         134.616         34.4851         138.398 
       0.926574         133.293         33.9499         137.227 
       0.932687         133.239         33.4273         136.423 
       0.938823          131.23         32.9138         135.551 
       0.944975         130.644           32.41         134.389 
       0.951105         129.543         31.9186         133.376 
       0.957225         128.891         31.4383         132.363 
       0.963368         126.662         30.9662         131.459 
       0.969511         126.281         30.5039         130.358 
       0.975621          125.09         30.0536         129.821 
       0.981748         124.885         29.6112         128.975 
       0.987916         123.618          29.175         127.948 
        0.99406         122.652         28.7492         126.943 
        1.00019         122.106         28.3329         125.961 
        1.00632         120.803         27.9251         125.059 
        1.01246         120.042         27.5249         123.891 
        1.01859         119.664         27.1331         123.405 
        1.02471          117.98         26.7495         122.735 
        1.03085           117.1          26.372         122.026 
        1.03698         116.466         26.0027         121.501 
        1.04314         115.184         25.6388         120.374 
        1.04929          115.06         25.2828         119.551 
        1.05541         114.042          24.935         118.974 
        1.06154         113.251         24.5929         118.248 
        1.06769         112.862         24.2567         117.466 
        1.07382         111.622         23.9279         116.802 
        1.07993         110.871         23.6059         116.043 
        1.08607         110.245         23.2886         115.142 
        1.09222         109.625         22.9768          114.56 
        1.09836         108.725         22.6711         113.739 
        1.10449         107.619         22.3713         113.374 
        1.11063         106.966         22.0766          112.47 
        1.11677         106.164         21.7873         111.644 
         1.1229         105.451         21.5037         111.023 
        1.12903         105.108          21.225          110.33 
        1.13518         104.396          20.951         109.774 
        1.14131          103.28         20.6819         108.867 
        1.14745         103.163         20.4178         108.251 
        1.15359         102.072         20.1582         107.798 
        1.15973         101.553         19.9031         107.188 
        1.16584          100.76         19.6535          106.43 
        1.17197         100.214         19.4079         106.018 
        1.17811         99.2808         19.1657         105.224 
        1.18424         99.0556         18.9283         104.487 
        1.19038         98.7576         18.6943         104.274 
        1.19652          97.807         18.4644         103.451 
        1.20267         97.0452         18.2383          102.96 
        1.20881         96.5999         18.0161         102.215 
        1.21495         95.5559         17.7979         101.801 
        1.22108          95.286         17.5834         101.144 
         1.2272         94.3885          17.373         100.551 
        1.23334         93.9678         17.1655         100.225 
        1.23949          93.393         16.9609         99.5776 
        1.24562         92.7809         16.7602         98.6979 
        1.25174         92.4309         16.5631         98.1958 
        1.25789          91.772         16.3685         97.6205 
        1.26402         90.5849         16.1775         97.3627 
        1.27014         90.3042         15.9899         96.8341 
        1.27628         89.9596         15.8048         96.5441 
        1.28244         89.5914         15.6222         95.8188 
        1.28858         88.9491         15.4428         95.2853 
        1.29471         88.1695         15.2665           94.77 
        1.30084         88.0531         15.0933         94.0681 
        1.30697         86.9627         14.9224         93.6134 
        1.31312         86.5676         14.7539         93.1198 
        1.31925         85.9967         14.5886         92.7845 
        1.32537         85.5971          14.426         92.3849 
        1.33151         85.0199         14.2653         91.8198 
        1.33765         84.4294         14.1071         91.3677 
        1.34378          84.016         13.9516         90.9312 
        1.34992         83.7018         13.7984         90.3431 
        1.35606         83.2159         13.6472         89.8635 
         1.3622         82.4181         13.4985         89.4848 
        1.36833         82.0014         13.3523          88.904 
        1.37445         81.6811         13.2084         88.5495 
        1.38059         80.9147         13.0662          87.849 
        1.38675         80.3734         12.9258         87.5045 
        1.39288          80.253         12.7879         86.9573 
        1.39901         79.6926         12.6522         86.6735 
        1.40515         78.9982         12.5181         86.3631 
         1.4113         78.8053          12.386          85.972 
        1.41742          78.176         12.2563         85.5191 
        1.42355         77.8357         12.1282         84.9344 
         1.4297         77.3457         12.0016         84.6496 
        1.43585         76.8092         11.8768         84.1227 
        1.44198          76.431         11.7543         83.9438 
        1.44809         76.1751         11.6338         83.4168 
        1.45423         75.7542         11.5145         82.8272 
        1.46036         75.1013         11.3971         82.4681 
        1.46649         74.6959         11.2813         82.2183 
        1.47263         74.0589          11.167          81.864 
        1.47877         73.6798         11.0543         81.2913 
        1.48491         73.3196          10.943         80.8879 
        1.49104         73.0346         10.8335         80.7051 
        1.49718           72.61         10.7254         80.1165 
        1.50333         72.2243         10.6186         79.7038 
        1.50947          71.653         10.5135         79.4334 
         1.5156         71.4761         10.4099         79.0599 
        1.52172         71.0433         10.3078         78.6181 
        1.52787         70.4584         10.2068         78.2652 
          1.534         70.1021         10.1073         77.9643 
        1.54013         69.7358         10.0092         77.6354 
        1.54627         69.3813         9.91226         77.2589 
        1.55241         69.0407         9.81657         76.8406 
        1.55855         68.5742         9.72228         76.4343 
        1.56467         68.2345         9.62948         76.1729 
         1.5708         67.6806         9.53764         75.7955 
        1.57695         67.6383         9.44686         75.4185 
        1.58308         67.2401         9.35747         75.1549 
        1.58922         66.8203         9.26917         74.7971 
        1.59535         66.4188         9.18205         74.4935 
         1.6015         66.1337         9.09593         74.0862 
        1.60764         65.6557         9.01095         73.7012 
        1.61376         65.3702         8.92729         73.5007 
        1.61989         64.9906         8.84463         73.1674 
        1.62604         64.6078         8.76283         72.6119 
        1.63218         64.4477         8.68212          72.262 
        1.63831         63.8084         8.60261         72.1576 
        1.64444         63.4253         8.52406         71.8055 
        1.65059         63.0822         8.44631          71.438 
        1.65673         62.7357         8.36962         71.0751 
        1.66285          62.533         8.29409          70.783 
        1.66898         62.2387         8.21947         70.5409 
        1.67512         61.6374         8.14562         70.1752 
        1.68127         61.4859         8.07261         69.9187 
         1.6874         61.0395         8.00066         69.6592 
        1.69353         60.7271         7.92962         69.2033 
        1.69967         60.5771         7.85928         68.9343 
        1.70581         60.1043         7.78983         68.6903 
        1.71193         59.7437         7.72147         68.3767 
        1.71806         59.5021         7.65379         68.0854 
        1.72421         59.1774         7.58679         67.7928 
        1.73035         58.8597         7.52067         67.4959 
        1.73649         58.6074         7.45535         67.1897 
        1.74262         58.1748         7.39086         66.8649 
        1.74876         57.9372         7.32708         66.5889 
        1.75489         57.5908         7.26419         66.3276 
        1.76101         57.3227         7.20206         66.0405 
        1.76715         56.9014         7.14057         65.7564 
        1.77329         56.6495         7.07973          65.444 
        1.77943         56.3347         7.01956         65.1439 
        1.78557         56.1596         6.96019         64.8969 
        1.79171         55.6935         6.90149         64.6294 
        1.79785         55.3408         6.84346         64.3262 
        1.80399         55.1446          6.7861         64.0245 
        1.81012         54.8783         6.72948         63.7736 
        1.81625         54.6061         6.67353         63.5206 
        1.82239         54.2242         6.61813         63.2412 
        1.82853         54.0452         6.56339         62.9759 
        1.83466         53.7895         6.50931         62.6906 
        1.84078         53.3656          6.4559         62.4295 
        1.84692         53.1687         6.40301         62.2571 
        1.85306         52.8709         6.35064         61.9546 
         1.8592         52.6958         6.29894         61.6097 
        1.86533         52.2935         6.24784          61.414 
        1.87147         51.9453         6.19725         61.1801 
