# k  (h/Mpc)    Pcb(k)  (Mpc/h)^3    Pcb_linear(k) (Mpc/h)^3    Pcb_NL(k) (Mpc/h)^3   ShotnoiseSubtracted = false
     0.00783031           22213         22567.7         22352.7 
       0.013688         25493.4         25184.4         24982.2 
       0.019231         23382.6         23260.1         23075.3 
      0.0249154         19199.7         19585.2         19447.8 
      0.0312784           15273           15367         15289.3 
      0.0375637         12217.8         12099.1         12068.3 
      0.0433917         10000.9         10069.3         10034.4 
      0.0492413         8860.53          8827.1         8800.53 
      0.0555754         7871.71         8040.22         8017.94 
      0.0619321         7567.72         7471.85         7446.08 
       0.067871         6783.65         6900.33         6884.38 
      0.0738098         6112.97         6195.88         6132.95 
      0.0800417         5266.48         5353.99         5342.27 
      0.0862327         4557.05         4533.62         4614.39 
      0.0921407         4021.24         3873.43         3983.07 
      0.0982031         3498.64         3376.41         3553.95 
       0.104506         3269.73         3049.68         3264.66 
       0.110769         3045.79         2866.87         3023.52 
       0.116806         2910.76          2757.3         2878.79 
       0.122832         2785.02         2650.25          2757.4 
       0.129052         2566.69         2498.49          2589.8 
       0.135211         2385.45         2296.63         2398.08 
       0.141259         2230.75         2068.13         2211.69 
       0.147318         2049.25         1842.32         2037.77 
       0.153489         1843.71         1645.81          1828.9 
       0.159709         1724.43         1498.12         1708.97 
       0.165845         1649.67          1401.4         1641.28 
       0.171974         1572.52         1340.69         1558.03 
       0.178125         1502.91          1297.2         1518.74 
       0.184229         1436.42          1253.5         1448.64 
        0.19034         1352.57         1197.52         1377.62 
       0.196428         1310.09         1126.77         1301.21 
       0.202534         1249.16         1045.95         1235.25 
       0.208729         1173.68         963.442         1151.06 
       0.214876         1115.82         890.213         1111.03 
       0.220989         1067.67         831.326            1066 
       0.227147         1023.85         786.865         1026.32 
        0.23329         981.204         754.323         997.615 
       0.239377         960.909          728.67         958.237 
       0.245482          897.97         704.289         916.788 
       0.251667         890.395         677.066         892.254 
       0.257832         850.682         646.008         853.042 
       0.263955         818.828         612.239         818.925 
       0.270079         784.565          577.91         788.861 
        0.27624         771.705         545.552         757.514 
       0.282372         740.148         517.358         737.378 
        0.28843          727.07         494.121          718.32 
       0.294538         688.076         474.792         695.594 
       0.300721         682.293         458.083         675.167 
        0.30691         653.873         442.644         663.606 
       0.313033         639.264         427.339         639.358 
       0.319153         622.306         411.365         619.915 
       0.325316         603.509         394.597         603.879 
        0.33145         585.768         377.781         580.248 
       0.337538         573.026         361.682         565.996 
       0.343633         557.888         346.753          557.76 
       0.349808         535.868         333.213         546.181 
       0.355968         531.031         321.218         533.786 
       0.362074         524.079         310.564          522.11 
       0.368217         507.326         300.616         506.808 
       0.374374          485.13         291.013         494.825 
       0.380519         483.811         281.527         482.146 
       0.386598          468.85         272.122         476.766 
       0.392688         465.286         262.789          462.47 
        0.39888         451.249         253.547          452.99 
       0.405048         442.794         244.768         443.901 
       0.411186         435.965         236.612         433.369 
       0.417313          426.77         229.057         425.152 
       0.423458         416.105         222.013          417.72 
       0.429607         411.376         215.408         410.121 
       0.435692         400.041         209.168         398.614 
       0.441815         395.166         203.071         394.842 
       0.447964         386.226         197.094         388.528 
       0.454126         380.174          191.24          377.17 
       0.460267         371.105         185.555          374.62 
       0.466387         365.868         180.092         367.982 
        0.47254         361.059         174.849         361.155 
       0.478662          357.82         169.894         353.861 
       0.484765         344.648           165.2         348.054 
       0.490885         341.219         160.721         341.627 
       0.497035         334.219         156.417         337.133 
       0.503198         330.365         152.266         332.424 
       0.509342         328.143         148.252         326.667 
       0.515458         323.704         144.367         322.645 
       0.521598           314.1         140.585         317.749 
       0.527764         310.601         136.913         314.637 
       0.533884         306.934         133.396         310.029 
           0.54         302.601         130.012         304.359 
       0.546137         300.469         126.746         300.536 
       0.552299         294.912         123.597          295.86 
       0.558452          292.77         120.575         292.206 
       0.564573         288.816         117.675          289.59 
       0.570708         282.991         114.861         285.973 
       0.576825         277.473         112.139         280.332 
       0.582926         275.411         109.505         277.841 
       0.589034          271.97         106.948         274.118 
       0.595184         270.101         104.456         269.492 
       0.601379         264.263         102.028         266.267 
       0.607522         261.578          99.701         262.128 
       0.613639         259.153         97.4583         261.652 
       0.619772         254.798         95.2812         259.574 
       0.625918         253.234         93.1677         254.541 
       0.632068         248.396         91.1181         251.954 
       0.638161         246.967          89.149         250.045 
         0.6443         243.281         87.2243           246.8 
       0.650464         240.894         85.3495         241.979 
       0.656582         237.274         83.5431         240.409 
       0.662703         237.179         81.7881         238.112 
       0.668861         233.709         80.0734         236.587 
       0.675024         230.369         78.4065         234.141 
       0.681124         227.985         76.8041         230.227 
       0.687237         225.811         75.2436         227.816 
       0.693381         222.145         73.7197         225.387 
       0.699536         219.679          72.236          223.72 
       0.705665         217.653            70.8         220.298 
       0.711789         216.533         69.4049          219.32 
       0.717957         214.783         68.0382         218.008 
        0.72409          212.79         66.7162         215.053 
       0.730186         209.635         65.4376         212.623 
       0.736317         207.675         64.1857         210.935 
       0.742472         205.474         62.9621         208.741 
       0.748622          204.04         61.7717         206.559 
        0.75476         201.442         60.6148         206.401 
       0.760888         199.333         59.4894         203.159 
       0.767043         198.622         58.3882          201.37 
       0.773185         196.914         57.3174          199.87 
       0.779291         193.502         56.2796         197.548 
       0.785407         192.864         55.2662         195.909 
       0.791564         190.878         54.2715         194.111 
       0.797719         188.213         53.3019         192.546 
       0.803834         186.454         52.3623          191.42 
       0.809972         185.838         51.4421         189.653 
       0.816124         184.459         50.5421         187.756 
       0.822261         183.248         49.6662         186.817 
       0.828378         181.106         48.8137         184.868 
       0.834502         179.511         47.9807          183.31 
       0.840667         177.912         47.1618         181.529 
       0.846816         176.598         46.3644         180.383 
       0.852925         175.222         45.5905         179.094 
       0.859047         173.958         44.8328         177.646 
       0.865192         171.424         44.0899         175.718 
       0.871341         169.955         43.3634           174.6 
       0.877463         169.598         42.6566         173.623 
       0.883569         168.237         41.9675         173.142 
       0.889708         165.976         41.2901         170.809 
       0.895864         165.291          40.626         169.844 
       0.902008         163.661         39.9779         168.133 
       0.908149         162.594         39.3444         166.921 
       0.914301         160.618         38.7237          165.52 
       0.920448         159.731         38.1169         164.578 
       0.926574         158.047         37.5254         163.195 
       0.932687         158.059         36.9477         162.095 
       0.938823         155.757         36.3802         161.416 
       0.944975         155.233         35.8233         159.905 
       0.951105         153.927         35.2802         158.776 
       0.957225         153.232         34.7492         157.573 
       0.963368         150.635         34.2275         156.543 
       0.969511          150.06         33.7165         155.371 
       0.975621         148.716         33.2187         154.538 
       0.981748         148.214         32.7298          153.64 
       0.987916          146.94         32.2476         152.414 
        0.99406         145.931          31.777         151.297 
        1.00019         144.967         31.3168          150.14 
        1.00632         143.797         30.8661         149.059 
        1.01246         142.666         30.4237         147.728 
        1.01859         142.381         29.9907          147.11 
        1.02471         140.349         29.5667          146.28 
        1.03085         139.431         29.1495         145.464 
        1.03698         138.495         28.7412         144.889 
        1.04314          137.19          28.339         143.606 
        1.04929         136.961         27.9455         142.516 
        1.05541         135.859         27.5611         141.859 
        1.06154         134.696          27.183         141.144 
        1.06769         134.315         26.8113         140.163 
        1.07382         132.946         26.4479         139.384 
        1.07993         131.954          26.092         138.515 
        1.08607         131.562         25.7413         137.382 
        1.09222         130.408         25.3966         136.702 
        1.09836         129.368         25.0587         135.808 
        1.10449         128.215         24.7273         135.355 
        1.11063         127.382         24.4016         134.283 
        1.11677         126.524         24.0819         133.338 
         1.1229         125.448         23.7684         132.553 
        1.12903         125.105         23.4603         131.768 
        1.13518         124.268         23.1575         131.136 
        1.14131         122.971         22.8601          130.14 
        1.14745         122.946         22.5681         129.274 
        1.15359          121.48         22.2812         128.796 
        1.15973         120.742         21.9992         128.035 
        1.16584         120.068         21.7234         127.356 
        1.17197         119.655         21.4518         126.709 
        1.17811         118.159         21.1841         125.784 
        1.18424         117.924         20.9218         124.954 
        1.19038         117.528         20.6631         124.726 
        1.19652         116.345          20.409         123.616 
        1.20267         115.706         20.1591         123.167 
        1.20881         114.989         19.9135         122.288 
        1.21495         113.906         19.6723         121.707 
        1.22108         113.485         19.4352         120.927 
         1.2272         112.429         19.2026         120.343 
        1.23334         112.164         18.9733         119.862 
        1.23949         111.119         18.7471          119.09 
        1.24562         110.537         18.5253         118.084 
        1.25174         110.067         18.3074         117.471 
        1.25789         109.348         18.0924         116.776 
        1.26402         107.946         17.8812         116.476 
        1.27014         107.496         17.6739         115.817 
        1.27628         107.044         17.4693         115.539 
        1.28244         106.738         17.2675         114.702 
        1.28858         105.825         17.0691         114.099 
        1.29471         105.009         16.8744         113.442 
        1.30084         104.654         16.6828         112.632 
        1.30697         103.428          16.494         112.045 
        1.31312         102.962         16.3078         111.396 
        1.31925         102.277          16.125         111.061 
        1.32537         101.995         15.9453         110.526 
        1.33151         101.292         15.7676          109.88 
        1.33765         100.464         15.5928         109.382 
        1.34378         99.9588          15.421         108.843 
        1.34992           99.51         15.2516          108.18 
        1.35606         99.1218         15.0844         107.533 
         1.3622         98.0429         14.9201          107.14 
        1.36833         97.5278         14.7585         106.463 
        1.37445         97.1689         14.5995         105.905 
        1.38059         96.3256         14.4423         105.219 
        1.38675         95.7873         14.2871         104.748 
        1.39288         95.3112         14.1347         104.184 
        1.39901         94.8848         13.9847          103.78 
        1.40515         94.0068         13.8365         103.315 
         1.4113         93.7924         13.6904         102.829 
        1.41742         92.8804         13.5471         102.326 
        1.42355         92.5959         13.4055         101.614 
         1.4297         91.8607         13.2656         101.286 
        1.43585         91.2671         13.1277         100.772 
        1.44198         91.0327         12.9923          100.47 
        1.44809         90.5569          12.859         99.8354 
        1.45423         90.0695         12.7271          99.145 
        1.46036         89.2465         12.5974         98.7153 
        1.46649         88.7774         12.4694         98.3995 
        1.47263         88.0823          12.343         97.9602 
        1.47877         87.4854         12.2185         97.2904 
        1.48491         87.0302         12.0955         96.7923 
        1.49104         86.7318         11.9744         96.5365 
        1.49718          86.125          11.855         95.9014 
        1.50333         85.5502         11.7369         95.3927 
        1.50947         85.0418         11.6207          95.042 
         1.5156         84.7035         11.5063         94.6156 
        1.52172         84.3289         11.3934         94.1068 
        1.52787         83.5892         11.2818         93.6685 
          1.534         83.2396         11.1718          93.274 
        1.54013          82.835         11.0634         92.8921 
        1.54627         82.3334         10.9562         92.4604 
        1.55241         81.9355         10.8504         91.9503 
        1.55855         81.3536         10.7462         91.4512 
        1.56467         80.8236         10.6436           91.13 
         1.5708          80.214         10.5421         90.6697 
        1.57695         80.1528         10.4418         90.2119 
        1.58308         79.7318          10.343         89.9047 
        1.58922         79.1753         10.2454          89.485 
        1.59535         78.6248         10.1491         89.1058 
         1.6015         78.5262         10.0539         88.6339 
        1.60764         77.8426         9.95995          88.194 
        1.61376          77.397         9.86748         87.9218 
        1.61989         76.9546         9.77612          87.499 
        1.62604         76.4986          9.6857         86.8485 
        1.63218          76.274         9.59649         86.4225 
        1.63831         75.7239         9.50861         86.2777 
        1.64444         75.2304         9.42179          85.889 
        1.65059         74.6312         9.33585         85.4451 
        1.65673         74.4012         9.25108         85.0083 
        1.66285         74.1272          9.1676         84.6505 
        1.66898         73.6107         9.08512         84.3368 
        1.67512         72.9004         9.00349         83.9022 
        1.68127         72.7546         8.92279         83.5984 
         1.6874         72.3294         8.84326         83.2823 
        1.69353         71.9593         8.76474         82.7369 
        1.69967         71.7047           8.687         82.4218 
        1.70581         71.0382         8.61023         82.1124 
        1.71193         70.5726         8.53467         81.7031 
        1.71806         70.4494         8.45987         81.3526 
        1.72421          69.993         8.38581         81.0519 
        1.73035         69.6542         8.31272         80.7136 
        1.73649         69.3148         8.24052         80.3009 
        1.74262         68.8279         8.16924          79.869 
        1.74876         68.4746         8.09875         79.5334 
        1.75489         68.0359         8.02924         79.2461 
        1.76101         67.6343         7.96056         78.9378 
        1.76715         67.3042          7.8926         78.6173 
        1.77329         66.9258         7.82534         78.2273 
        1.77943         66.5421         7.75884         77.8509 
        1.78557          66.358         7.69321         77.5589 
        1.79171         65.7405         7.62833         77.2116 
        1.79785         65.3703         7.56419         76.8323 
        1.80399         65.0863         7.50079         76.5144 
        1.81012         64.7369         7.43821         76.2282 
        1.81625         64.4246         7.37636         75.8933 
        1.82239         63.9671         7.31513         75.5275 
        1.82853         63.6945         7.25462         75.2053 
        1.83466         63.4212         7.19485         74.8587 
        1.84078         63.0482         7.13582         74.5391 
        1.84692         62.6396         7.07735         74.3407 
        1.85306         62.3271         7.01947         73.9484 
         1.8592         62.0781         6.96232         73.5209 
        1.86533         61.6503         6.90584         73.3409 
        1.87147         61.2501         6.84992         73.0759 
