# k  (h/Mpc)    Pcb(k)  (Mpc/h)^3    Pcb_linear(k) (Mpc/h)^3    Pcb_NL(k) (Mpc/h)^3   ShotnoiseSubtracted = false
     0.00783031           24167         24561.4         24324.7 
       0.013688         27776.8         27421.8         27196.3 
       0.019231         25465.1         25329.2         25121.2 
      0.0249154         20885.1         21328.2         21170.1 
      0.0312784         16620.2         16734.9         16640.5 
      0.0375637         13307.2         13176.3         13136.9 
      0.0433917         10884.3         10965.8         10921.7 
      0.0492413         9648.97         9613.05         9578.71 
      0.0555754         8561.03         8756.13         8728.27 
      0.0619321         8241.18         8137.16         8105.95 
       0.067871         7377.99         7514.75         7495.42 
      0.0738098            6651         6747.59         6672.67 
      0.0800417         5730.38         5830.73            5816 
      0.0862327         4964.42         4937.31         5030.93 
      0.0921407         4389.63         4218.35         4345.82 
      0.0982031         3821.81         3677.06         3883.95 
       0.104506         3575.65         3321.24         3572.03 
       0.110769         3329.86         3122.15         3305.87 
       0.116806         3184.06         3002.83         3145.58 
       0.122832         3043.29         2886.25         3011.79 
       0.129052         2802.75         2720.98         2828.42 
       0.135211         2605.91         2501.14         2619.81 
       0.141259         2441.86         2252.29         2420.42 
       0.147318         2247.64         2006.37         2233.76 
       0.153489         2024.25         1792.36         2006.53 
       0.159709         1895.02         1631.52          1878.1 
       0.165845          1815.3         1526.19          1805.6 
       0.171974         1731.74         1460.07         1714.64 
       0.178125         1653.44         1412.71         1671.53 
       0.184229         1577.91         1365.13          1593.2 
        0.19034         1489.64         1304.15         1515.12 
       0.196428         1442.28          1227.1         1432.87 
       0.202534         1375.05         1139.09         1361.63 
       0.208729         1294.19         1049.23         1269.39 
       0.214876         1234.07         969.484         1226.67 
       0.220989         1181.43         905.353         1178.79 
       0.227147         1134.37         856.933         1136.73 
        0.23329         1087.07         821.493         1105.24 
       0.239377         1065.38         793.556         1061.76 
       0.245482         996.764         767.004          1016.3 
       0.251667         988.647         737.357         989.032 
       0.257832         944.274         703.533         946.208 
       0.263955         909.097         666.758         909.213 
       0.270079         872.153         629.371         876.409 
        0.27624         858.042         594.132         842.462 
       0.282372         823.029         563.427         821.474 
        0.28843         810.803         538.121          801.48 
       0.294538         767.499         517.071         775.921 
       0.300721         760.768         498.874         753.071 
        0.30691         730.395          482.06         741.194 
       0.313033         713.913         465.393         714.278 
       0.319153         696.396         447.996         692.696 
       0.325316         675.189         429.735          675.46 
        0.33145          656.29         411.422         649.338 
       0.337538         641.437         393.889         634.107 
       0.343633          625.97         377.631         624.878 
       0.349808         601.317         362.885         612.525 
       0.355968         596.074         349.821         598.496 
       0.362074         588.897         338.219         586.177 
       0.368217         569.602         327.385         569.862 
       0.374374         545.758         316.927         556.532 
       0.380519         544.692         306.596         542.747 
       0.386598         527.378         296.354         536.604 
       0.392688         523.754          286.19         521.488 
        0.39888         507.736         276.124         510.515 
       0.405048         499.506         266.564         500.033 
       0.411186          491.94         257.681         489.204 
       0.417313         481.655         249.454         480.427 
       0.423458         469.532         241.783         471.814 
       0.429607         464.867         234.589         463.727 
       0.435692         452.116         227.794         450.698 
       0.441815         446.501         221.154         446.788 
       0.447964          436.91         214.644         440.165 
       0.454126         431.216          208.27         427.338 
       0.460267         420.402         202.079         424.574 
       0.466387         414.399         196.128         417.305 
        0.47254          410.44         190.419         409.665 
       0.478662         405.639         185.023         401.627 
       0.484765         391.246         179.911         395.608 
       0.490885         387.495         175.033         388.031 
       0.497035         379.526         170.346         383.212 
       0.503198         375.701         165.825         378.127 
       0.509342         373.228         161.453         371.347 
       0.515458          368.63         157.222         366.906 
       0.521598         357.441         153.104         361.859 
       0.527764         353.657         149.104         358.423 
       0.533884         349.511         145.275         353.315 
           0.54         344.845         141.589         347.185 
       0.546137         342.233         138.032         342.875 
       0.552299         336.526         134.603          337.74 
       0.558452         333.693         131.312         333.781 
       0.564573         329.481         128.153         330.745 
       0.570708         323.356         125.089         326.458 
       0.576825          316.85         122.125         320.457 
       0.582926         315.004         119.256         317.822 
       0.589034         310.953         116.472         313.401 
       0.595184         309.027         113.757         308.462 
       0.601379         302.104         111.114         304.794 
       0.607522         299.261         108.579         299.965 
       0.613639         296.504         106.137         299.508 
       0.619772         292.126         103.766         297.348 
       0.625918         290.078         101.464         291.888 
       0.632068         284.664          99.232         289.313 
       0.638161         282.875         97.0875         286.743 
         0.6443         279.002         94.9914         283.031 
       0.650464         276.442         92.9497         277.839 
       0.656582         272.197         90.9824         276.115 
       0.662703         272.074         89.0711         273.516 
       0.668861         268.285         87.2038         272.016 
       0.675024         264.837         85.3884          269.25 
       0.681124         261.936         83.6433         264.896 
       0.687237         259.605         81.9439         262.079 
       0.693381         255.442         80.2843         259.403 
       0.699536         252.366         78.6684         257.602 
       0.705665         250.382         77.1046         253.542 
       0.711789         249.345         75.5852         252.401 
       0.717957         246.963         74.0968         251.159 
        0.72409         245.135         72.6571         247.562 
       0.730186         241.426         71.2647         244.811 
       0.736317         239.409         69.9013         243.193 
       0.742472         236.732         68.5688         240.916 
       0.748622         235.138         67.2723         238.223 
        0.75476         232.001         66.0124         238.252 
       0.760888          229.58         64.7868         234.713 
       0.767043         228.797         63.5876         232.369 
       0.773185         226.852         62.4214         230.728 
       0.779291         223.273         61.2912         228.201 
       0.785407         222.555         60.1875         226.362 
       0.791564         220.217         59.1043         224.408 
       0.797719          217.64         58.0483          222.54 
       0.803834         215.152          57.025         221.283 
       0.809972         214.511         56.0228         219.254 
       0.816124         213.071         55.0427         217.042 
       0.822261         211.599         54.0888         216.119 
       0.828378         209.221         53.1605         213.946 
       0.834502         207.002         52.2533         212.278 
       0.840667         205.607         51.3614         210.235 
       0.846816         204.271          50.493         208.872 
       0.852925         202.734         49.6503         207.408 
       0.859047          201.02         48.8251         205.584 
       0.865192         198.319          48.016         203.539 
       0.871341         196.535         47.2248         202.255 
       0.877463         196.568         46.4551         201.147 
       0.883569         194.508         45.7046         200.763 
       0.889708         192.104         44.9669         198.004 
       0.895864         191.744         44.2436         196.987 
       0.902008          189.62         43.5378         194.949 
       0.908149         187.976         42.8479          193.53 
       0.914301         186.115         42.1719         191.929 
       0.920448          184.92         41.5112         190.972 
       0.926574         182.904         40.8669         189.443 
       0.932687         182.911         40.2378         187.929 
       0.938823         180.363         39.6198         187.456 
       0.944975         179.897         39.0133         185.665 
       0.951105         178.352         38.4218         184.419 
       0.957225         177.555         37.8436         183.008 
       0.963368         174.665         37.2754         181.814 
       0.969511         173.934         36.7189         180.615 
       0.975621         172.571         36.1768          179.48 
       0.981748         171.581         35.6443         178.582 
       0.987916         170.371         35.1192         177.119 
        0.99406         169.205         34.6067         175.905 
        1.00019         167.815         34.1055         174.601 
        1.00632         166.887         33.6147         173.287 
        1.01246         165.373         33.1329         171.834 
        1.01859         165.037         32.6613         171.093 
        1.02471         162.738         32.1996         170.075 
        1.03085         161.828         31.7452          169.14 
        1.03698         160.615         31.3005         168.496 
        1.04314         159.352         30.8626         167.061 
        1.04929          158.88          30.434          165.73 
        1.05541          157.64         30.0153         164.961 
        1.06154         156.147         29.6035         164.251 
        1.06769         155.743         29.1988         163.095 
        1.07382         154.313          28.803         162.166 
        1.07993         153.151         28.4155         161.201 
        1.08607         152.859         28.0335          159.86 
        1.09222         151.256         27.6581         159.063 
        1.09836         150.039         27.2901         158.126 
        1.10449         148.857         26.9292         157.582 
        1.11063         147.822         26.5745         156.275 
        1.11677         146.951         26.2263         155.265 
         1.1229         145.478          25.885         154.309 
        1.12903         145.026         25.5494         153.376 
        1.13518         144.171         25.2196         152.636 
        1.14131         142.781         24.8957         151.628 
        1.14745         142.751         24.5778         150.481 
        1.15359             141         24.2653         150.016 
        1.15973          139.99         23.9582         149.067 
        1.16584          139.43         23.6578          148.51 
        1.17197           139.1         23.3621         147.611 
        1.17811         137.171         23.0705         146.542 
        1.18424         136.828         22.7848          145.64 
        1.19038         136.205         22.5032         145.343 
        1.19652         134.799         22.2264         143.973 
        1.20267         134.426         21.9542         143.591 
        1.20881         133.305         21.6867         142.589 
        1.21495         132.333         21.4241         141.798 
        1.22108         131.703         21.1659         140.941 
         1.2272         130.538         20.9126         140.367 
        1.23334         130.428         20.6628         139.689 
        1.23949         128.861         20.4165         138.789 
        1.24562         128.269          20.175         137.663 
        1.25174         127.631         19.9377         136.971 
        1.25789          126.96         19.7035         136.153 
        1.26402         125.382         19.4735         135.773 
        1.27014         124.882         19.2477         134.994 
        1.27628           124.1         19.0249         134.707 
        1.28244         123.831         18.8051         133.757 
        1.28858         122.689         18.5891         133.091 
        1.29471         121.978          18.377         132.326 
        1.30084          121.13         18.1684         131.379 
        1.30697         119.982         17.9627         130.685 
        1.31312         119.351         17.7599         129.917 
        1.31925         118.585         17.5609         129.503 
        1.32537         118.367         17.3652         128.829 
        1.33151         117.445         17.1717         128.146 
        1.33765         116.534         16.9813         127.572 
        1.34378         115.923         16.7942         126.905 
        1.34992         115.345         16.6097         126.192 
        1.35606         114.925         16.4277         125.373 
         1.3622         113.579         16.2487         124.999 
        1.36833         113.098         16.0728         124.227 
        1.37445         112.592         15.8996          123.46 
        1.38059          111.73         15.7284         122.833 
        1.38675         111.243         15.5593         122.172 
        1.39288         110.331         15.3934         121.649 
        1.39901         109.941           15.23          121.08 
        1.40515         109.064         15.0686         120.439 
         1.4113         108.681         14.9095         119.859 
        1.41742         107.555         14.7534         119.303 
        1.42355         107.325         14.5993         118.516 
         1.4297         106.367         14.4468         118.089 
        1.43585         105.745         14.2967         117.596 
        1.44198         105.601         14.1492         117.136 
        1.44809          104.84         14.0041         116.402 
        1.45423         104.367         13.8605         115.676 
        1.46036         103.393         13.7191         115.152 
        1.46649         102.836         13.5797         114.728 
        1.47263           102.1         13.4421           114.2 
        1.47877         101.364         13.3065         113.432 
        1.48491         100.733         13.1726         112.869 
        1.49104         100.427         13.0407         112.514 
        1.49718         99.5336         12.9106         111.868 
        1.50333         98.8927         12.7821         111.254 
        1.50947         98.4002         12.6555         110.782 
         1.5156          97.937         12.5309         110.318 
        1.52172         97.4432         12.4079         109.795 
        1.52787          96.652         12.2864         109.225 
          1.534         96.2884         12.1666         108.734 
        1.54013          95.824         12.0485         108.311 
        1.54627         95.2238         11.9318         107.814 
        1.55241         94.6435         11.8166         107.225 
        1.55855         94.0083         11.7031         106.646 
        1.56467          93.286         11.5914         106.213 
         1.5708         92.7205         11.4809         105.676 
        1.57695         92.6491         11.3716         105.163 
        1.58308          92.079          11.264          104.78 
        1.58922         91.4346         11.1577         104.299 
        1.59535         90.8245         11.0528         103.845 
         1.6015          90.689         10.9492         103.331 
        1.60764         89.9902         10.8469         102.821 
        1.61376         89.3527         10.7462         102.432 
        1.61989         88.7324         10.6467         101.964 
        1.62604         88.3237         10.5482         101.262 
        1.63218         87.9876          10.451          100.75 
        1.63831         87.4912         10.3553         100.514 
        1.64444         86.8715         10.2608         100.067 
        1.65059         86.1192         10.1672         99.5666 
        1.65673         85.9183         10.0749         99.0613 
        1.66285         85.5738         9.98395          98.649 
        1.66898         84.8984         9.89412         98.2974 
        1.67512         84.0997         9.80523         97.7763 
        1.68127         83.9114         9.71734         97.3739 
         1.6874         83.5584         9.63073         96.9984 
        1.69353         83.0972         9.54522         96.4348 
        1.69967          82.621         9.46055         96.0475 
        1.70581         81.8375         9.37694         95.6471 
        1.71193          81.325         9.29466         95.1591 
        1.71806         81.2873          9.2132         94.7464 
        1.72421         80.7302         9.13254         94.4302 
        1.73035          80.417         9.05295         94.0342 
        1.73649         79.8759         8.97432         93.5025 
        1.74262         79.3904         8.89669         92.9879 
        1.74876         78.9665         8.81992         92.5947 
        1.75489         78.3964         8.74422         92.2682 
        1.76101         77.9223         8.66943           91.93 
        1.76715         77.6635         8.59541         91.5554 
        1.77329         77.0418         8.52217         91.1091 
        1.77943         76.7988         8.44975         90.6855 
        1.78557         76.4515         8.37828         90.3412 
        1.79171         75.7278         8.30762         89.9167 
        1.79785         75.3874         8.23776         89.4599 
        1.80399         74.9849         8.16872         89.0991 
        1.81012         74.5335         8.10056         88.7928 
        1.81625         74.2321         8.03321         88.3871 
        1.82239         73.6884         7.96652         87.9268 
        1.82853         73.2541         7.90063          87.574 
        1.83466         72.9577         7.83554         87.1712 
        1.84078          72.643         7.77125         86.7684 
        1.84692         72.0252         7.70757         86.5391 
        1.85306         71.7199         7.64454         86.0852 
         1.8592         71.2802          7.5823         85.5779 
        1.86533         70.8856         7.52079         85.3665 
        1.87147         70.4394         7.45989         85.0627 
