# k  (h/Mpc)    P(k)  (Mpc/h)^3    P_linear(k)  (Mpc/h)^3     P_NL(k)  ShotnoiseSubtracted = false
     0.00783031         4369.09         4422.47         4383.12 
       0.013688         4942.03         4928.32         4896.87 
       0.019231         4562.39         4550.78         4525.01 
      0.0249154         3802.61         3831.59         3818.09 
      0.0312784          3008.2         3006.33         3006.85 
      0.0375637         2383.37         2367.03         2370.14 
      0.0433917         1969.56         1969.93         1972.98 
      0.0492413         1732.62         1726.93         1729.98 
      0.0555754         1562.36         1572.99         1573.69 
      0.0619321         1473.76          1461.8         1461.12 
       0.067871         1343.27         1349.99         1348.76 
      0.0738098         1206.34         1212.18         1209.22 
      0.0800417         1040.13         1047.47         1047.35 
      0.0862327          887.95         886.975         891.533 
      0.0921407         765.987         757.815         764.061 
      0.0982031         664.633         660.577         669.948 
       0.104506         609.737         596.653         607.469 
       0.110769         570.575         560.889         568.451 
       0.116806         544.328         539.453         544.976 
       0.122832         525.153         518.511         523.336 
       0.129052         489.967          488.82         492.675 
       0.135211         451.627         449.328         453.977 
       0.141259         412.052         404.622         411.197 
       0.147318         370.869         360.443         370.101 
       0.153489         331.103         321.997         330.682 
       0.159709         303.913         293.101         303.018 
       0.165845         287.227         274.179         285.824 
       0.171974         271.778         262.301         272.223 
       0.178125         263.027         253.793         264.023 
       0.184229         254.173         245.244         254.359 
        0.19034         238.613         234.292         242.479 
       0.196428         228.235         220.449         227.652 
       0.202534         215.549         204.637         212.738 
       0.208729         198.531         188.494         197.112 
       0.214876         183.619         174.167         184.938 
       0.220989         173.909         162.647         173.974 
       0.227147         163.802         153.948         165.003 
        0.23329         157.044         147.582          158.97 
       0.239377         152.512         142.562          153.36 
       0.245482          144.51         137.792         147.133 
       0.251667         141.094         132.466         142.252 
       0.257832         135.211         126.389         135.677 
       0.263955         128.513         119.783         128.919 
       0.270079         121.999         113.067         122.469 
        0.27624         117.392         106.736         116.037 
       0.282372         112.104          101.22         111.146 
        0.28843          106.89         96.6736         106.671 
       0.294538         102.282         92.8919         102.772 
       0.300721         100.024         89.6231         99.5709 
        0.30691         95.6664         86.6024         96.4431 
       0.313033         92.5652         83.6078         92.8668 
       0.319153         88.0926         80.4825         89.6599 
       0.325316         86.2527          77.202         86.5743 
        0.33145         82.3313         73.9121         82.9636 
       0.337538         79.9139         70.7624         79.6975 
       0.343633         76.6079         67.8416         77.0386 
       0.349808         73.9943         65.1926         74.6616 
       0.355968         71.9917         62.8453         72.6198 
       0.362074         69.6083         60.7612         70.1556 
       0.368217         67.2842         58.8149          67.645 
       0.374374         65.1805          56.936          65.765 
       0.380519         63.5061         55.0806         63.6348 
       0.386598         61.5615           53.24         61.8448 
       0.392688         60.0804         51.4143         60.0265 
        0.39888         58.1403         49.6059         58.1212 
       0.405048         56.4393         47.8883         56.3448 
       0.411186         54.8816         46.2926         54.9659 
       0.417313         53.1504         44.8145          53.195 
       0.423458         51.6505         43.4366         51.8574 
       0.429607         50.2258         42.1441         50.4161 
       0.435692         48.5364         40.9233         49.1208 
       0.441815         47.7341         39.7304         48.0609 
       0.447964         46.7196          38.561         46.6321 
       0.454126         44.5964         37.4157         45.2685 
       0.460267         43.8731         36.3036         44.4139 
       0.466387         42.6491         35.2346         43.1074 
        0.47254         41.7569         34.2088         42.1446 
       0.478662         41.0257         33.2395         41.1176 
       0.484765         39.6922         32.3211         39.9374 
       0.490885         38.7821         31.4447         39.2478 
       0.497035         38.1679         30.6028         38.4667 
       0.503198         37.0328         29.7906         37.3963 
       0.509342         36.0756         29.0051         36.6368 
       0.515458         35.2459         28.2451         36.0081 
       0.521598         34.6051         27.5052         34.9028 
       0.527764         33.8465         26.7867         33.9838 
       0.533884         33.2474         26.0987         33.3158 
           0.54         32.3646         25.4366          32.647 
       0.546137         31.8641         24.7975         32.0618 
       0.552299         31.2812         24.1815         31.1825 
       0.558452         30.3196         23.5902         30.5189 
       0.564573         29.7671         23.0228         30.0696 
       0.570708         29.2388         22.4724         29.4658 
       0.576825         28.5805         21.9399         28.8421 
       0.582926         27.9119         21.4245         28.2679 
       0.589034         27.1766         20.9243         27.8558 
       0.595184         26.8007         20.4366         27.1684 
       0.601379          26.231         19.9617         26.7836 
       0.607522         25.6594         19.5063         26.1037 
       0.613639         25.4001         19.0675         25.6719 
       0.619772         24.7507         18.6416         25.2347 
       0.625918         24.4948         18.2281         24.8111 
       0.632068         24.1069         17.8271         24.2902 
       0.638161         23.5754         17.4418         23.8662 
         0.6443         23.1084         17.0653         23.3842 
       0.650464         22.6495         16.6985          23.019 
       0.656582         22.4389         16.3451         22.6526 
       0.662703         21.9658         16.0017         22.1895 
       0.668861         21.5475         15.6662         21.9171 
       0.675024         21.1386         15.3401         21.4225 
       0.681124         20.7587         15.0266         21.0746 
       0.687237         20.3403         14.7213         20.7112 
       0.693381         20.1371         14.4231         20.3296 
       0.699536         19.6426         14.1328         20.1006 
       0.705665         19.5694         13.8519         19.8144 
       0.711789         19.0423         13.5789         19.3587 
       0.717957         18.7582         13.3116         19.1249 
        0.72409         18.4868         13.0529         18.8558 
       0.730186         18.1784         12.8028         18.5309 
       0.736317         17.9744         12.5578          18.221 
       0.742472         17.6334         12.3184         17.9805 
       0.748622         17.4256         12.0855         17.6752 
        0.75476         17.1069         11.8592         17.4317 
       0.760888          16.804          11.639         17.1965 
       0.767043         16.5665         11.4236         16.9615 
       0.773185         16.2768         11.2141         16.6911 
       0.779291         16.1587          11.011         16.4819 
       0.785407          15.993         10.8127         16.2069 
       0.791564         15.6697         10.6181         15.9842 
       0.797719         15.2638         10.4284         15.7931 
       0.803834         15.2316         10.2446         15.5311 
       0.809972         15.0334         10.0646         15.3325 
       0.816124         14.7061         9.88847         15.1105 
       0.822261         14.5244          9.7171         14.8944 
       0.828378            14.4         9.55033         14.6674 
       0.834502         14.2204         9.38734         14.5209 
       0.840667         13.9936         9.22713         14.3099 
       0.846816         13.7198         9.07112          14.124 
       0.852925          13.583         8.91971         14.0003 
       0.859047         13.4095         8.77147         13.7857 
       0.865192         13.2449         8.62612         13.5952 
       0.871341         13.1184         8.48398         13.4484 
       0.877463         12.8745          8.3457         13.2724 
       0.883569         12.6972         8.21087         13.0991 
       0.889708         12.4942         8.07834         12.9369 
       0.895864         12.3542         7.94841          12.754 
       0.902008         12.2459         7.82161         12.6194 
       0.908149         12.1018         7.69767         12.4818 
       0.914301          12.021         7.57622         12.3809 
       0.920448         11.7885         7.45752         12.1695 
       0.926574         11.6563         7.34178         12.0171 
       0.932687         11.4933         7.22876         11.8548 
       0.938823         11.3389         7.11772         11.7182 
       0.944975         11.2107         7.00878         11.6045 
       0.951105         11.0783         6.90251         11.4325 
       0.957225         10.9441         6.79863         11.3322 
       0.963368         10.8676         6.69656         11.1932 
       0.969511         10.7338         6.59658         11.0622 
       0.975621         10.6383         6.49919         10.9495 
       0.981748         10.4555         6.40353         10.8313 
       0.987916         10.3671         6.30919         10.6923 
        0.99406          10.238         6.21712         10.5839 
        1.00019         10.0821         6.12708         10.4774 
        1.00632         10.0161         6.03891         10.3703 
        1.01246         9.93433         5.95235           10.28 
        1.01859         9.74513         5.86763         10.1643 
        1.02471         9.69021         5.78468         10.0279 
        1.03085         9.59338         5.70305          9.9238 
        1.03698         9.40923         5.62317         9.82662 
        1.04314         9.35671         5.54449         9.71577 
        1.04929         9.23012          5.4675         9.63923 
        1.05541          9.1081         5.39228         9.56167 
        1.06154         9.05449          5.3183         9.42718 
        1.06769         8.98314          5.2456         9.31501 
        1.07382         8.87078         5.17449         9.24307 
        1.07993         8.77555         5.10487         9.14824 
        1.08607         8.66707         5.03624         9.06649 
        1.09222         8.60146         4.96881         8.98917 
        1.09836         8.48907          4.9027         8.87869 
        1.10449         8.42187         4.83786         8.78795 
        1.11063         8.29483         4.77414         8.71079 
        1.11677         8.25545         4.71158         8.61442 
         1.1229         8.19931         4.65026         8.55127 
        1.12903         8.08249         4.58998         8.47545 
        1.13518         7.97069         4.53072         8.38312 
        1.14131         7.93636         4.47254         8.30214 
        1.14745         7.84874         4.41542         8.23313 
        1.15359         7.79347         4.35929         8.13854 
        1.15973         7.68867         4.30411         8.07281 
        1.16584         7.58207         4.25014         8.00691 
        1.17197         7.55333         4.19702          7.9579 
        1.17811          7.4725         4.14465         7.84282 
        1.18424         7.40083         4.09332         7.78399 
        1.19038         7.35272         4.04271         7.72588 
        1.19652         7.27514         3.99299         7.63962 
        1.20267         7.20056          3.9441         7.58512 
        1.20881         7.15022         3.89604         7.51972 
        1.21495         7.08941         3.84886         7.45331 
        1.22108         6.99931         3.80248         7.39257 
         1.2272         6.93091         3.75696         7.32211 
        1.23334         6.88153         3.71209         7.26812 
        1.23949         6.80119         3.66785         7.19847 
        1.24562         6.76265         3.62445         7.13635 
        1.25174         6.71013         3.58183         7.08147 
        1.25789         6.63769         3.53975         7.01465 
        1.26402         6.60937         3.49843         6.95435 
        1.27014         6.52841         3.45787         6.90056 
        1.27628         6.45681         3.41784         6.83026 
        1.28244         6.39903         3.37836         6.79433 
        1.28858         6.38448         3.33955          6.7338 
        1.29471         6.30822         3.30145         6.68348 
        1.30084         6.23811         3.26397         6.64638 
        1.30697         6.20251         3.22702           6.575 
        1.31312         6.11693         3.19059         6.52214 
        1.31925         6.06475         3.15484          6.4846 
        1.32537         6.03425         3.11967         6.43727 
        1.33151         5.99226         3.08491          6.3817 
        1.33765         5.93639         3.05071         6.32126 
        1.34378           5.883         3.01709         6.27261 
        1.34992         5.82211         2.98396         6.23358 
        1.35606         5.79956         2.95125         6.17739 
         1.3622         5.75648         2.91909         6.12595 
        1.36833         5.67851         2.88749         6.10195 
        1.37445         5.65372         2.85637         6.04415 
        1.38059         5.60391         2.82562           5.989 
        1.38675         5.54219         2.79525         5.95921 
        1.39288         5.52581         2.76544         5.91024 
        1.39901         5.46563         2.73608         5.86526 
        1.40515         5.43559         2.70708         5.82147 
         1.4113         5.38261         2.67852         5.78079 
        1.41742         5.33565         2.65047         5.74609 
        1.42355         5.29239         2.62278         5.70411 
         1.4297         5.27447         2.59539         5.65298 
        1.43585         5.23135         2.56841         5.62091 
        1.44198          5.1928         2.54192         5.58042 
        1.44809         5.14604         2.51585         5.54063 
        1.45423         5.10243         2.49005         5.49939 
        1.46036         5.06056         2.46466         5.45837 
        1.46649         5.03723         2.43961         5.42685 
        1.47263         4.98258          2.4149         5.39687 
        1.47877         4.94856         2.39053         5.34759 
        1.48491         4.92293         2.36647         5.30876 
        1.49104         4.88586         2.34278         5.27871 
        1.49718         4.84662         2.31941         5.24439 
        1.50333          4.8088         2.29631         5.20824 
        1.50947         4.76551         2.27358          5.1756 
         1.5156         4.74268         2.25119         5.14298 
        1.52172         4.71516          2.2291          5.1056 
        1.52787         4.67409         2.20726         5.06492 
          1.534         4.63746         2.18574         5.03276 
        1.54013         4.60177         2.16453         4.99602 
        1.54627         4.56401         2.14356         4.96202 
        1.55241         4.53321         2.12287         4.93427 
        1.55855         4.50838         2.10248         4.90009 
        1.56467           4.471         2.08241         4.87365 
         1.5708         4.45664         2.06255         4.84826 
        1.57695         4.41445         2.04292         4.81172 
        1.58308          4.3778         2.02359         4.78018 
        1.58922         4.36026         2.00449         4.75868 
        1.59535          4.3293         1.98565          4.7304 
         1.6015         4.28724         1.96703         4.69475 
        1.60764         4.25778         1.94865         4.66146 
        1.61376         4.23881         1.93056         4.63653 
        1.61989           4.201         1.91269         4.61247 
        1.62604         4.18592           1.895         4.58355 
        1.63218         4.15806         1.87754         4.55684 
        1.63831         4.12265         1.86035          4.5313 
        1.64444         4.09291         1.84336          4.4985 
        1.65059           4.058         1.82655         4.47092 
        1.65673         4.05175         1.80996         4.44749 
        1.66285         4.00659         1.79363         4.42044 
        1.66898         3.98536         1.77749         4.38804 
        1.67512         3.96694         1.76152         4.36271 
        1.68127         3.93928         1.74573         4.34054 
         1.6874         3.91121         1.73017         4.31811 
        1.69353         3.87475         1.71481          4.2934 
        1.69967         3.86485          1.6996         4.26384 
        1.70581         3.84515         1.68458         4.23903 
        1.71193         3.80738          1.6698         4.21969 
        1.71806         3.78558         1.65516         4.19714 
        1.72421         3.76568         1.64067         4.17224 
        1.73035         3.74133         1.62637         4.14872 
        1.73649         3.71967         1.61225         4.12573 
        1.74262         3.69217          1.5983         4.09915 
        1.74876         3.67592         1.58451          4.0753 
        1.75489         3.65041         1.57091         4.05079 
        1.76101         3.62384         1.55747         4.02553 
        1.76715          3.6045         1.54418          4.0101 
        1.77329         3.57487         1.53102         3.98836 
        1.77943         3.55577         1.51801         3.96173 
        1.78557         3.54128         1.50517         3.94002 
        1.79171         3.52098         1.49247         3.91655 
        1.79785         3.48973         1.47992         3.89355 
        1.80399         3.47633         1.46752         3.87627 
        1.81012         3.45806         1.45528         3.86031 
        1.81625         3.43121         1.44318         3.84093 
        1.82239         3.41199          1.4312         3.81984 
        1.82853         3.38631         1.41936         3.80134 
        1.83466         3.36882         1.40766         3.78249 
        1.84078         3.35467         1.39612         3.76155 
        1.84692         3.33695         1.38468         3.73918 
        1.85306         3.31095         1.37335         3.71574 
         1.8592         3.29401         1.36217         3.69549 
        1.86533         3.27332         1.35112           3.679 
        1.87147          3.2542         1.34018         3.65898 
        1.87761         3.23884         1.32936         3.64121 
