# k  (h/Mpc)    P(k)  (Mpc/h)^3    P_linear(k)  (Mpc/h)^3     P_NL(k)  ShotnoiseSubtracted = false
     0.00783031         18419.6         18701.7         18526.8 
       0.013688         21084.4         20856.3         20696.3 
       0.019231         19356.8         19260.1         19116.3 
      0.0249154         15930.6         16216.2         16114.3 
      0.0312784         12662.8         12723.3         12672.7 
      0.0375637         10113.1         10017.5         10000.1 
      0.0433917         8290.18         8336.82         8316.64 
      0.0492413         7336.56         7308.36         7293.86 
      0.0555754         6533.99         6656.85         6643.36 
      0.0619321         6265.22         6186.25         6169.32 
       0.067871         5630.12         5713.06         5702.49 
      0.0738098         5070.06         5129.82         5086.56 
      0.0800417         4367.65         4432.77         4425.82 
      0.0862327         3770.71         3753.56          3812.4 
      0.0921407         3314.47         3206.96         3286.35 
      0.0982031          2880.4         2795.46         2923.25 
       0.104506          2685.8         2524.94         2679.24 
       0.110769         2503.33         2373.59         2485.03 
       0.116806            2390         2282.87            2369 
       0.122832         2291.29         2194.25         2270.61 
       0.129052         2114.85          2068.6         2133.18 
       0.135211         1963.64         1901.47         1974.05 
       0.141259         1829.08         1712.28         1814.63 
       0.147318         1674.02         1525.33         1666.35 
       0.153489         1503.43         1362.63          1493.4 
       0.159709          1403.2         1240.34         1390.91 
       0.165845         1339.12         1160.27         1332.84 
       0.171974         1274.54         1110.01         1264.72 
       0.178125         1220.72            1074         1232.42 
       0.184229         1169.77         1037.82          1177.4 
        0.19034         1097.06         991.474         1119.76 
       0.196428         1062.87         932.894         1055.36 
       0.202534         1013.31         865.979         999.737 
       0.208729         948.881         797.668          930.95 
       0.214876         897.093         737.038         896.031 
       0.220989         857.355         688.286         857.075 
       0.227147         819.994         651.476         822.638 
        0.23329         785.957         624.533          799.02 
       0.239377         768.698         603.293         767.569 
       0.245482         717.245         583.107         733.839 
       0.251667         710.505         560.566         714.113 
       0.257832         679.583         534.852         681.998 
       0.263955         653.471         506.895         653.583 
       0.270079         624.753         478.473         628.677 
        0.27624         613.815         451.684         602.354 
       0.282372         588.752          428.34         584.521 
        0.28843         574.946         409.101         567.726 
       0.294538         544.295         393.098         549.963 
       0.300721         539.708         379.265          534.04 
        0.30691         515.764         366.482         523.395 
       0.313033         504.278         353.809         504.045 
       0.319153         488.915         340.584         488.472 
       0.325316         474.431         326.701         475.062 
        0.33145         459.128         312.779         456.141 
       0.337538         449.781          299.45         443.844 
       0.343633         436.088          287.09         437.126 
       0.349808         419.126          275.88         427.301 
       0.355968         414.727         265.947         417.623 
       0.362074         408.212         257.127         407.432 
       0.368217         395.717         248.891         394.575 
       0.374374         377.678          240.94         384.938 
       0.380519         375.688         233.088         374.611 
       0.386598         364.707         225.299         370.152 
       0.392688         361.137         217.574         358.202 
        0.39888         350.668          209.92         350.862 
       0.405048          342.54         202.652         344.158 
       0.411186         336.757           195.9          334.83 
       0.417313         329.633         189.644         327.719 
       0.423458         321.546         183.813         321.992 
       0.429607         316.876         178.344         315.669 
       0.435692         308.024         173.178         306.912 
       0.441815         304.392          168.13         303.544 
       0.447964         297.125         163.181         298.078 
       0.454126         290.412         158.335         289.275 
       0.460267         284.351         153.628         287.054 
       0.466387          280.45         149.105          281.58 
        0.47254         275.021         144.764           276.2 
       0.478662         273.683         140.662         270.467 
       0.484765         263.279         136.775         265.138 
       0.490885         260.286         133.067         260.621 
       0.497035         255.121         129.504         256.874 
       0.503198         251.168         126.067         252.923 
       0.509342         249.178         122.743         248.809 
       0.515458         245.343         119.527         245.535 
       0.521598         238.635         116.396         241.051 
       0.527764         235.802         113.355         238.475 
       0.533884         232.802         110.444         234.875 
           0.54         229.225         107.642         230.259 
       0.546137         227.544         104.937         227.397 
       0.552299         222.794          102.33         223.492 
       0.558452         221.318         99.8284         220.377 
       0.564573         218.014         97.4271         218.375 
       0.570708          213.09         95.0979         215.699 
       0.576825         209.421         92.8443         211.076 
       0.582926         207.001         90.6634         208.882 
       0.589034         204.606         88.5465         206.347 
       0.595184           202.7         86.4829         202.373 
       0.601379         198.915         84.4732         200.054 
       0.607522         196.349         82.5461         196.955 
       0.613639         194.371         80.6893         196.228 
       0.619772         190.631         78.8868           194.3 
       0.625918         189.465          77.137         190.447 
       0.632068         185.924         75.4401          187.98 
       0.638161         184.813         73.8098         186.888 
         0.6443         181.844         72.2162         184.418 
       0.650464         179.884          70.664         180.573 
       0.656582          177.24         69.1684         179.239 
       0.662703         176.945         67.7154         177.377 
       0.668861         174.003         66.2957         175.901 
       0.675024         171.183         64.9157         173.951 
       0.681124         169.741          63.589         171.106 
       0.687237         167.812          62.297          169.28 
       0.693381         164.986         61.0353         167.223 
       0.699536         163.468         59.8069          165.79 
       0.705665         161.814          58.618         163.647 
       0.711789         160.272         57.4629         162.648 
       0.717957         159.524         56.3314         161.234 
        0.72409          157.44         55.2368         159.385 
       0.730186         155.184         54.1782         157.598 
       0.736317         153.464         53.1417         155.896 
       0.742472         152.057         52.1287         154.165 
       0.748622         150.798         51.1431          152.61 
        0.75476         149.085         50.1852         151.994 
       0.760888         147.472         49.2535         149.525 
       0.767043         146.835         48.3418         148.449 
       0.773185         145.501         47.4552         147.274 
       0.779291         142.663          46.596         145.407 
       0.785407         142.126          45.757         144.005 
       0.791564         140.836         44.9334         142.725 
       0.797719         138.245         44.1306         141.745 
       0.803834         137.447         43.3527         140.581 
       0.809972          136.75         42.5908         139.249 
       0.816124         135.632         41.8457         137.979 
       0.822261         134.596         41.1205         136.985 
       0.828378         133.154         40.4147         135.439 
       0.834502         132.424          39.725         134.124 
       0.840667         130.519          39.047         132.988 
       0.846816         129.324         38.3868         132.125 
       0.852925         128.423         37.7461         131.105 
       0.859047         127.442         37.1188         130.057 
       0.865192         125.645         36.5037         128.549 
       0.871341         124.662         35.9022         127.568 
       0.877463         123.644          35.317         126.855 
       0.883569         123.279         34.7464         126.249 
       0.889708         121.712         34.1856         124.679 
       0.895864         120.529         33.6358         123.899 
       0.902008         119.611         33.0992         122.686 
       0.908149         119.131         32.5747         121.759 
       0.914301         117.483         32.0608         120.697 
       0.920448         116.776         31.5584         119.875 
       0.926574         115.685         31.0687         118.857 
       0.932687         115.599         30.5904         118.196 
       0.938823          113.81         30.1205         117.265 
       0.944975         113.154         29.6595         116.329 
       0.951105         112.228         29.2098         115.409 
       0.957225         111.591         28.7702         114.537 
       0.963368         109.687         28.3382         113.707 
       0.969511         109.446         27.9151         112.714 
       0.975621         108.437          27.503         112.344 
       0.981748         108.252         27.0982         111.561 
       0.987916         107.069          26.699         110.663 
        0.99406         106.157         26.3094         109.749 
        1.00019         105.823         25.9283         108.892 
        1.00632         104.541         25.5552         108.094 
        1.01246         104.002         25.1889         107.066 
        1.01859         103.498         24.8304         106.685 
        1.02471         102.095         24.4794         106.123 
        1.03085         101.291         24.1339          105.46 
        1.03698          100.85         23.7959         104.951 
        1.04314         99.6922         23.4629         103.967 
        1.04929         99.5363         23.1371         103.322 
        1.05541         98.5701         22.8189         102.797 
        1.06154         98.0193         22.5058         102.097 
        1.06769         97.6219         22.1981         101.455 
        1.07382         96.5496         21.8972         100.857 
        1.07993         95.9634         21.6026         100.177 
        1.08607         95.2217         21.3122         99.4366 
        1.09222         94.9007         21.0268          98.924 
        1.09836         94.0607          20.747         98.1841 
        1.10449         93.0871         20.4727         97.8468 
        1.11063         92.5333          20.203         97.0245 
        1.11677         91.8195         19.9383         96.3246 
         1.1229         91.2664         19.6788         95.8191 
        1.12903         90.8827         19.4237         95.1733 
        1.13518         90.3352         19.1729         94.6696 
        1.14131         89.4046         18.9267         93.8695 
        1.14745         89.1778          18.685         93.3996 
        1.15359         88.3544         18.4475         92.9757 
        1.15973         87.9329          18.214         92.4613 
        1.16584         87.1329         17.9856         91.7062 
        1.17197          86.565         17.7608         91.4117 
        1.17811         85.9844         17.5391         90.7141 
        1.18424         85.6718         17.3219         90.0687 
        1.19038         85.4068         17.1078         89.8492 
        1.19652         84.6181         16.8974         89.2059 
        1.20267         83.8496         16.6905         88.7307 
        1.20881          83.541         16.4871         88.0696 
        1.21495         82.6252         16.2875         87.7332 
        1.22108         82.4227         16.0912         87.1917 
         1.2272         81.6257         15.8986         86.6222 
        1.23334         81.1755         15.7087         86.3733 
        1.23949         80.7953         15.5215         85.7908 
        1.24562         80.1839         15.3378         85.0253 
        1.25174         79.8867         15.1574         84.6049 
        1.25789         79.3403         14.9794         84.1188 
        1.26402          78.322         14.8045         83.8775 
        1.27014         78.1531         14.6329         83.4474 
        1.27628         77.8041         14.4635         83.1457 
        1.28244         77.3993         14.2964         82.4975 
        1.28858         76.9587         14.1322         82.0221 
        1.29471          76.289         13.9709         81.6102 
        1.30084         76.1384         13.8123         80.9868 
        1.30697         75.2713          13.656         80.6294 
        1.31312         74.8991         13.5018         80.2392 
        1.31925         74.4313         13.3505          79.893 
        1.32537         73.9902         13.2017         79.5628 
        1.33151         73.4644         13.0546         79.0754 
        1.33765         73.0634         12.9099         78.6713 
        1.34378         72.7135         12.7676         78.2857 
        1.34992         72.4061         12.6274         77.7714 
        1.35606         71.8998          12.489         77.3786 
         1.3622         71.2803         12.3529         77.0455 
        1.36833         70.9956         12.2192         76.5347 
        1.37445         70.6417         12.0875         76.2794 
        1.38059         69.9568         11.9573         75.6386 
        1.38675         69.5077         11.8288          75.342 
        1.39288         69.4555         11.7027         74.8456 
        1.39901         68.8922         11.5784         74.6149 
        1.40515         68.3464         11.4557         74.3891 
         1.4113         68.1259         11.3348         74.0648 
        1.41742         67.6839         11.2161         73.6436 
        1.42355         67.3403         11.0989         73.1539 
         1.4297         67.0103         10.9831         72.8975 
        1.43585         66.5145         10.8689         72.3908 
        1.44198         66.0799         10.7568         72.2421 
        1.44809          65.895         10.6465         71.8173 
        1.45423         65.5547         10.5373         71.3251 
        1.46036         65.0093         10.4298         71.0061 
        1.46649         64.6153         10.3238         70.7842 
        1.47263          64.115         10.2192         70.4831 
        1.47877         63.8457         10.1161          69.987 
        1.48491         63.4864         10.0143         69.6654 
        1.49104         63.2573         9.91409         69.4914 
        1.49718         62.8706         9.81517         68.9782 
        1.50333         62.6169         9.71744          68.633 
        1.50947         62.0722         9.62124         68.3917 
         1.5156         61.9458         9.52648         68.0635 
        1.52172         61.4775           9.433         67.6958 
        1.52787         61.0814         9.34059         67.3913 
          1.534         60.7158         9.24952         67.1432 
        1.54013         60.3666         9.15976         66.8502 
        1.54627         60.1297         9.07103         66.5088 
        1.55241         59.7451         8.98347         66.1612 
        1.55855         59.4115         8.89718         65.8355 
        1.56467         59.1669         8.81226         65.5896 
         1.5708         58.7281         8.72821         65.2718 
        1.57695         58.6785         8.64513         64.9646 
        1.58308         58.2441         8.56333         64.7133 
        1.58922         57.8712         8.48253         64.4006 
        1.59535         57.6385          8.4028         64.1505 
         1.6015         57.2274         8.32398         63.7989 
        1.60764         56.9382         8.24622         63.4603 
        1.61376         56.6776         8.16966         63.2965 
        1.61989          56.341         8.09401          63.021 
        1.62604         56.0443         8.01916         62.5565 
        1.63218         55.8811         7.94529         62.2542 
        1.63831         55.2538         7.87253         62.1455 
        1.64444         54.9676         7.80065         61.8341 
        1.65059          54.794          7.7295         61.5256 
        1.65673         54.3928         7.65932         61.2149 
        1.66285          54.196          7.5902         60.9705 
        1.66898         54.0197         7.52191         60.7822 
        1.67512          53.503         7.45432         60.4621 
        1.68127          53.363         7.38751          60.212 
         1.6874         52.9848         7.32166         59.9865 
        1.69353         52.7049         7.25666          59.641 
        1.69967         52.5195         7.19229         59.3938 
        1.70581         52.2025         7.12873         59.1727 
        1.71193         51.9342         7.06617         58.9235 
        1.71806           51.64         7.00424          58.677 
        1.72421         51.3973         6.94292         58.4115 
        1.73035         51.1336         6.88241         58.1427 
        1.73649          50.883         6.82263         57.8867 
        1.74262         50.5212         6.76362         57.6421 
        1.74876         50.3462         6.70526         57.4054 
        1.75489         50.0531          6.6477         57.1547 
        1.76101         49.8667         6.59085         56.8876 
        1.76715         49.4518         6.53458         56.6396 
        1.77329         49.2055         6.47889         56.3943 
        1.77943         48.9887         6.42384         56.1561 
        1.78557         48.7784          6.3695         55.9382 
        1.79171         48.4664         6.31578         55.7172 
        1.79785         48.1178         6.26267         55.4628 
        1.80399         48.0018         6.21019         55.1826 
        1.81012         47.7266         6.15837         54.9727 
        1.81625          47.509         6.10717         54.7682 
        1.82239         47.1791         6.05647         54.5325 
        1.82853         47.0029         6.00637         54.3218 
        1.83466         46.7739         5.95689         54.0791 
        1.84078         46.4003         5.90801         53.8418 
        1.84692         46.2695         5.85961         53.6944 
        1.85306         45.9936         5.81168         53.4508 
         1.8592         45.8417         5.76437         53.1567 
        1.86533         45.5239         5.71761         52.9631 
        1.87147         45.1804         5.67131         52.7456 
        1.87761         45.0594          5.6255         52.5194 
