# k  (h/Mpc)    Pcb(k)  (Mpc/h)^3    Pcb_linear(k) (Mpc/h)^3    Pcb_NL(k) (Mpc/h)^3   ShotnoiseSubtracted = false
     0.00783031         22880.9         23248.9         23026.7 
       0.013688         26273.1         25948.5         25738.6 
       0.019231         24093.8         23966.7         23774.1 
      0.0249154         19775.6         20180.4         20036.1 
      0.0312784         15733.2         15834.1         15750.9 
      0.0375637         12589.8         12466.9         12433.3 
      0.0433917         10302.7         10375.4         10337.5 
      0.0492413         9129.77         9095.48         9066.35 
      0.0555754         8107.27         8284.68         8260.56 
      0.0619321         7797.73         7699.03         7671.46 
       0.067871         6986.76         7110.13         7093.07 
      0.0738098         6296.79         6384.27         6317.36 
      0.0800417         5424.96         5516.78         5504.06 
      0.0862327         4696.12         4671.47         4756.53 
      0.0921407         4146.87         3991.21          4106.8 
      0.0982031         3608.78         3479.07         3666.41 
       0.104506         3373.97          3142.4         3369.34 
       0.110769         3142.58         2954.04          3119.7 
       0.116806         3003.85         2841.14         2969.69 
       0.122832         2873.03         2730.84          2844.1 
       0.129052         2647.14         2574.46         2671.12 
       0.135211         2460.59         2366.47         2473.65 
       0.141259         2302.63         2131.01         2282.76 
       0.147318         2116.73         1898.34         2104.46 
       0.153489         1905.08         1695.85          1889.3 
       0.159709         1782.42         1543.67         1766.44 
       0.165845         1705.92         1444.01          1697.1 
       0.171974         1626.58         1381.45          1611.2 
       0.178125         1554.03         1336.64         1570.62 
       0.184229         1484.52         1291.62         1497.73 
        0.19034         1399.06         1233.93         1424.31 
       0.196428         1354.96         1161.03         1345.88 
       0.202534         1291.91         1077.75         1278.12 
       0.208729         1214.57         992.737         1191.18 
       0.214876         1155.89         917.282         1150.24 
       0.220989         1106.21         856.603         1104.22 
       0.227147         1061.28         810.791         1063.71 
        0.23329         1017.06         777.259         1034.07 
       0.239377         996.272         750.826         993.279 
       0.245482          931.37         725.704         950.459 
       0.251667         923.621         697.653         925.011 
       0.257832         882.314         665.651         884.558 
       0.263955         849.354         630.855         849.453 
       0.270079         814.162         595.482         818.458 
        0.27624         800.899          562.14         786.227 
       0.282372         768.162         533.089         765.776 
        0.28843         755.351         509.145         746.384 
       0.294538         714.875         489.228         722.707 
       0.300721         708.797         472.012         701.454 
        0.30691         679.681         456.103         689.777 
       0.313033         664.452         440.333         664.626 
       0.319153         647.285         423.873         644.464 
       0.325316         627.674         406.595         628.004 
        0.33145         609.535         389.268         603.525 
       0.337538         596.097          372.68         588.938 
       0.343633         580.817         357.297         580.379 
       0.349808         557.888         343.345         568.525 
       0.355968         552.933         330.985         555.588 
       0.362074         545.909         320.007         543.686 
       0.368217         528.307         309.757         528.017 
       0.374374         505.505         299.861         515.586 
       0.380519         504.287         290.087         502.515 
       0.386598         488.537         280.396           496.9 
       0.392688         484.962          270.78         482.291 
        0.39888         470.253         261.256         472.332 
       0.405048         461.849          252.21         462.775 
       0.411186         454.788         243.806         452.119 
       0.417313         445.219         236.022         443.712 
       0.423458         434.064         228.764         435.901 
       0.429607         429.353         221.958          428.12 
       0.435692         417.537         215.528         416.098 
       0.441815         412.417         209.245         412.274 
       0.447964         403.235         203.087         405.842 
       0.454126         397.319         197.055         393.991 
       0.460267         387.658         191.197         391.375 
       0.466387         382.167         185.568         384.523 
        0.47254          377.61         180.165         377.422 
       0.478662         373.879          175.06         369.867 
       0.484765         360.267         170.223          363.99 
       0.490885         356.739         165.608         357.178 
       0.497035         349.405         161.174         352.568 
       0.503198         345.572         156.896         347.729 
       0.509342         343.275         152.759         341.632 
       0.515458         338.774         148.757         337.472 
       0.521598         328.624          144.86         332.524 
       0.527764         325.022         141.076         329.303 
       0.533884         321.206         137.452          324.52 
           0.54         316.751         133.965         318.686 
       0.546137         314.479           130.6         314.692 
       0.552299         308.851         127.355         309.864 
       0.558452         306.497         124.241          306.11 
       0.564573         302.449         121.253         303.359 
       0.570708         296.513         118.353         299.527 
       0.576825          290.65         115.549         293.749 
       0.582926         288.665         112.835         291.209 
       0.589034         285.018           110.2         287.249 
       0.595184         283.143         107.632         282.517 
       0.601379         276.918         105.131         279.137 
       0.607522         274.194         102.733         274.771 
       0.613639         271.671         100.422         274.316 
       0.619772         267.281         98.1783         272.212 
       0.625918         265.571         96.0006         267.016 
       0.632068         260.529         93.8887         264.432 
       0.638161         258.995         91.8597          262.31 
         0.6443         255.228         89.8765         258.911 
       0.650464         252.781         87.9447         253.949 
       0.656582         248.952         86.0833         252.334 
       0.662703         248.858          84.275         249.936 
       0.668861         245.286         82.5082         248.419 
       0.675024         241.901         80.7906         245.868 
       0.681124         239.335         79.1394         241.791 
       0.687237         237.104         77.5315         239.248 
       0.693381         233.279         75.9613         236.742 
       0.699536          230.61         74.4324          235.03 
       0.705665         228.581         72.9528         231.384 
       0.711789         227.507         71.5152         230.364 
       0.717957         225.541          70.107         229.081 
        0.72409         223.598         68.7448         225.906 
       0.730186         220.254         67.4273         223.365 
       0.736317         218.277         66.1374           221.7 
       0.742472         215.915         64.8766         219.462 
       0.748622         214.435           63.65         217.118 
        0.75476         211.652         62.4579         217.034 
       0.760888         209.441         61.2982          213.68 
       0.767043         208.709         60.1636         211.714 
       0.773185         206.922         59.0602         210.164 
       0.779291         203.441         57.9909         207.771 
       0.785407         202.784         56.9467         206.072 
       0.791564         200.672         55.9217         204.208 
       0.797719         198.031         54.9226         202.533 
       0.803834         196.035         53.9544         201.379 
       0.809972         195.418         53.0062         199.527 
       0.816124         194.014         52.0789         197.518 
       0.822261         192.728         51.1763         196.589 
       0.828378         190.489          50.298         194.564 
       0.834502         188.692         49.4396         192.969 
       0.840667         187.173         48.5958         191.088 
       0.846816          185.85         47.7742         189.871 
       0.852925         184.407         46.9768         188.528 
       0.859047         183.008          46.196         186.963 
       0.865192         180.402         45.4305         184.986 
       0.871341         178.828         44.6819         183.823 
       0.877463         178.613         43.9537         182.797 
       0.883569         177.014         43.2436         182.353 
       0.889708         174.679         42.5456         179.874 
       0.895864         174.115         41.8613         178.889 
       0.902008         172.322         41.1935         177.069 
       0.908149          171.07         40.5407         175.792 
       0.914301         169.114         39.9011         174.325 
       0.920448         168.143         39.2759         173.375 
       0.926574         166.341         38.6664         171.934 
       0.932687         166.364         38.0712         170.707 
       0.938823         163.973         37.4864         170.101 
       0.944975         163.464         36.9126         168.484 
       0.951105         162.087         36.3529         167.317 
       0.957225         161.365         35.8058         166.047 
       0.963368         158.663         35.2682         164.967 
       0.969511         158.032         34.7417         163.784 
       0.975621         156.669         34.2288         162.848 
       0.981748         156.014          33.725         161.944 
       0.987916         154.758         33.2281         160.643 
        0.99406         153.712         32.7432         159.492 
        1.00019         152.602          32.269         158.281 
        1.00632         151.505         31.8047         157.128 
        1.01246         150.246         31.3488         155.751 
        1.01859         149.961         30.9026         155.093 
        1.02471         147.827         30.4657         154.204 
        1.03085         146.908         30.0358         153.347 
        1.03698         145.878         29.6151          152.75 
        1.04314         144.586         29.2007         151.418 
        1.04929         144.287         28.7953         150.243 
        1.05541         143.145         28.3991         149.551 
        1.06154         141.865         28.0095         148.842 
        1.06769         141.478         27.6266         147.799 
        1.07382         140.086         27.2521         146.974 
        1.07993         139.028         26.8854         146.071 
        1.08607         138.693          26.524         144.865 
        1.09222         137.371         26.1688         144.149 
        1.09836         136.271         25.8206         143.238 
        1.10449         135.113         25.4792         142.752 
        1.11063         134.216         25.1436         141.607 
        1.11677         133.348         24.8141         140.636 
         1.1229          132.14         24.4912         139.794 
        1.12903         131.771         24.1737         138.966 
        1.13518          130.92         23.8616         138.303 
        1.14131         129.583         23.5552         137.295 
        1.14745         129.567         23.2544         136.338 
        1.15359         127.995         22.9587          135.86 
        1.15973         127.167         22.6681          135.04 
        1.16584         126.539         22.3839           134.4 
        1.17197         126.163         22.1041         133.667 
        1.17811         124.504         21.8283         132.696 
        1.18424         124.242          21.558         131.841 
        1.19038         123.784         21.2914         131.597 
        1.19652         122.521         21.0296         130.394 
        1.20267         121.959         20.7721         129.967 
        1.20881         121.122          20.519         129.044 
        1.21495         120.064         20.2705         128.396 
        1.22108         119.581         20.0262         127.586 
         1.2272         118.481         19.7865         127.006 
        1.23334         118.275         19.5502         126.464 
        1.23949         117.049         19.3172         125.648 
        1.24562          116.47         19.0886         124.602 
        1.25174         115.948         18.8641         123.958 
        1.25789         115.237         18.6425         123.222 
        1.26402         113.771         18.4249           122.9 
        1.27014         113.288         18.2113           122.2 
        1.27628          112.75         18.0004         121.922 
        1.28244         112.458         17.7925         121.048 
        1.28858         111.467         17.5882         120.423 
        1.29471         110.673         17.3875         119.725 
        1.30084         110.166         17.1901         118.874 
        1.30697         108.949         16.9955         118.248 
        1.31312         108.444         16.8036         117.553 
        1.31925         107.728         16.6153         117.201 
        1.32537         107.478         16.4301         116.619 
        1.33151         106.711         16.2471         115.957 
        1.33765         105.833         16.0669         115.439 
        1.34378         105.299         15.8899         114.859 
        1.34992         104.797         15.7154         114.178 
        1.35606         104.419         15.5431          113.47 
         1.3622         103.248         15.3737         113.082 
        1.36833         102.734         15.2073         112.373 
        1.37445         102.338         15.0434         111.741 
        1.38059         101.478         14.8815         111.075 
        1.38675         100.961         14.7215         110.544 
        1.39288         100.336         14.5645          109.99 
        1.39901         99.9437         14.4099         109.535 
        1.40515         99.0398         14.2572         109.013 
         1.4113         98.7867         14.1067         108.496 
        1.41742         97.7923          13.959         107.975 
        1.42355         97.5309         13.8132          107.23 
         1.4297         96.7196         13.6689         106.877 
        1.43585         96.1119         13.5268         106.371 
        1.44198         95.9188         13.3873         106.016 
        1.44809         95.3482           13.25          105.35 
        1.45423         94.8587         13.1141         104.641 
        1.46036         93.9811         12.9804         104.181 
        1.46649         93.4831         12.8485         103.833 
        1.47263         92.7787         12.7183         103.365 
        1.47877          92.125           12.59         102.663 
        1.48491         91.6113         12.4633         102.141 
        1.49104         91.3173         12.3385         101.851 
        1.49718         90.6213         12.2154          101.21 
        1.50333         90.0069         12.0938         100.669 
        1.50947         89.5158         11.9741          100.28 
         1.5156          89.126         11.8561         99.8394 
        1.52172         88.7292         11.7398          99.322 
        1.52787         87.9711         11.6248         98.8447 
          1.534         87.6189         11.5115         98.4168 
        1.54013          87.196         11.3998         98.0193 
        1.54627         86.6606         11.2893         97.5667 
        1.55241         86.2056         11.1803         97.0295 
        1.55855         85.6028          11.073         96.5035 
        1.56467         85.0073         10.9673         96.1492 
         1.5708         84.4075         10.8627         95.6633 
        1.57695         84.3398         10.7593         95.1847 
        1.58308         83.8763         10.6575         94.8537 
        1.58922         83.2814         10.5569         94.4135 
        1.59535         82.7101         10.4577         94.0108 
         1.6015         82.6271         10.3596         93.5219 
        1.60764         81.9134         10.2628         93.0602 
        1.61376          81.402         10.1675          92.755 
        1.61989         80.9124         10.0734         92.3102 
        1.62604         80.4664         9.98021         91.6393 
        1.63218         80.2032         9.88829         91.1857 
        1.63831         79.6779         9.79773         91.0132 
        1.64444         79.1494         9.70827         90.6081 
        1.65059         78.4867         9.61972         90.1442 
        1.65673         78.2758         9.53237         89.6844 
        1.66285         77.9775         9.44635         89.3073 
        1.66898         77.3942         9.36136          88.977 
        1.67512         76.6534         9.27725         88.5146 
        1.68127         76.4988          9.1941         88.1822 
         1.6874         76.1005         9.11215         87.8466 
        1.69353         75.7074         9.03125         87.2895 
        1.69967         75.3801         8.95114         86.9521 
        1.70581         74.6654         8.87203         86.6136 
        1.71193         74.1777         8.79418         86.1755 
        1.71806         74.0943          8.7171         85.8041 
        1.72421          73.598         8.64079         85.5024 
        1.73035         73.2674         8.56548          85.147 
        1.73649         72.8655         8.49109         84.6927 
        1.74262         72.3737         8.41763         84.2319 
        1.74876         71.9983           8.345          83.877 
        1.75489          71.511         8.27338         83.5764 
        1.76101         71.0826         8.20261          83.259 
        1.76715         70.7807         8.13258         82.9245 
        1.77329         70.3234         8.06328          82.514 
        1.77943         69.9686         7.99476         82.1178 
        1.78557         69.7416         7.92714         81.8094 
        1.79171           69.09         7.86028         81.4365 
        1.79785         68.7199         7.79419         81.0308 
        1.80399         68.4028         7.72886            80.7 
        1.81012         68.0111         7.66438         80.4086 
        1.81625         67.7096         7.60065         80.0488 
        1.82239         67.2144         7.53756         79.6486 
        1.82853         66.8889         7.47521         79.3152 
        1.83466         66.6097         7.41362         78.9493 
        1.84078         66.2641         7.35279         78.6027 
        1.84692         65.7795         7.29255          78.397 
        1.85306         65.4626         7.23291         77.9796 
         1.8592         65.1604         7.17402         77.5222 
        1.86533         64.7469         7.11582         77.3395 
        1.87147         64.3242         7.05821         77.0635 
