# k  (h/Mpc)    Pcb(k)  (Mpc/h)^3    Pcb_linear(k) (Mpc/h)^3    Pcb_NL(k) (Mpc/h)^3   ShotnoiseSubtracted = false
     0.00783031         2088.22         2112.08         2093.29 
       0.013688         2354.44         2354.09         2339.54 
       0.019231         2177.08         2173.92         2162.26 
      0.0249154         1821.14         1830.44         1824.76 
      0.0312784         1438.39         1436.23         1437.37 
      0.0375637         1137.36         1130.84         1132.85 
      0.0433917         942.045         941.134         943.131 
      0.0492413          827.41         825.047         826.894 
      0.0555754         748.442         751.508         752.007 
      0.0619321         702.338          698.39         698.153 
       0.067871         642.778         644.975         644.295 
      0.0738098          577.04         579.134         578.102 
      0.0800417          497.88         500.444         500.316 
      0.0862327         423.893         423.765         424.967 
      0.0921407         364.196         362.058         363.802 
      0.0982031         316.327           315.6         318.114 
       0.104506         288.661         285.061         287.838 
       0.110769         270.433         267.974         269.878 
       0.116806         258.391         257.733         258.991 
       0.122832         249.192         247.727         248.737 
       0.129052         233.293         233.542         234.278 
       0.135211         214.657         214.674         215.626 
       0.141259         194.878         193.315         194.773 
       0.147318         174.762         172.208         174.472 
       0.153489         155.954          153.84         155.907 
       0.159709         142.508         140.035         142.397 
       0.165845         134.322         130.994         133.751 
       0.171974         127.236         125.319         127.623 
       0.178125         123.244         121.254         123.599 
       0.184229         119.185          117.17         119.238 
        0.19034         112.495         111.937         113.772 
       0.196428         106.914         105.324         106.906 
       0.202534          100.47         97.7691         99.5773 
       0.208729         92.3065          90.057         92.0401 
       0.214876         85.1504          83.212         85.7207 
       0.220989         80.3591         77.7075         80.3478 
       0.227147         75.5771         73.5516         76.0998 
        0.23329         72.4448         70.5098         73.1335 
       0.239377         70.1666         68.1119         70.6009 
       0.245482         67.0706         65.8329          67.944 
       0.251667         65.1282         63.2883          65.511 
       0.257832         62.2081         60.3852         62.4934 
       0.263955         59.0541         57.2287          59.293 
       0.270079         55.9551         54.0198         56.1413 
        0.27624         53.4334         50.9951         53.0952 
       0.282372         50.8684         48.3598         50.6447 
        0.28843         48.4117         46.1877         48.4946 
       0.294538         46.4185         44.3809         46.6342 
       0.300721         45.1677         42.8191         45.0849 
        0.30691         43.3228         41.3759         43.6121 
       0.313033         41.8205         39.9454         42.0368 
       0.319153         39.8122         38.4521         40.5341 
       0.325316         38.9227         36.8848         39.0194 
        0.33145         37.1394          35.313         37.3749 
       0.337538         35.7903         33.8081         35.8407 
       0.343633         34.2396         32.4126         34.4669 
       0.349808         33.0689          31.147         33.2859 
       0.355968         32.0224         30.0257         32.2859 
       0.362074         30.9147         29.0298          31.162 
       0.368217         29.8863            28.1         30.0667 
       0.374374         28.8962         27.2023         29.2021 
       0.380519         28.0972         26.3156         28.2302 
       0.386598         27.2216         25.4365         27.3677 
       0.392688         26.4884         24.5642         26.5026 
        0.39888         25.5352         23.7002         25.6358 
       0.405048         24.7663         22.8796         24.7398 
       0.411186          24.012         22.1172         24.0849 
       0.417313         23.1871          21.411         23.3127 
       0.423458         22.5126         20.7526         22.6642 
       0.429607          21.833         20.1352         21.9835 
       0.435692         21.1652         19.5519         21.4004 
       0.441815         20.6578          18.982         20.8699 
       0.447964         20.2003         18.4233           20.23 
       0.454126          19.386         17.8761         19.6497 
       0.460267           18.96         17.3447         19.1817 
       0.466387          18.321          16.834         18.5908 
        0.47254         17.9296         16.3439         18.1216 
       0.478662         17.5443         15.8808         17.6297 
       0.484765         16.9624          15.442         17.1447 
       0.490885         16.5464         15.0233         16.8014 
       0.497035          16.261         14.6211         16.4174 
       0.503198         15.7887          14.233         15.9242 
       0.509342         15.3749         13.8578         15.5605 
       0.515458         14.9545         13.4947         15.2448 
       0.521598         14.6351         13.1412         14.7801 
       0.527764          14.253         12.7979         14.3971 
       0.533884         13.9873         12.4692         14.0605 
           0.54         13.6182         12.1528         13.7372 
       0.546137         13.3431         11.8475         13.4591 
       0.552299         13.0602         11.5532          13.075 
       0.558452          12.645         11.2707         12.7944 
       0.564573         12.4317         10.9996         12.5766 
       0.570708          12.161         10.7366         12.2868 
       0.576825         11.8348         10.4822         12.0044 
       0.582926         11.5859          10.236         11.7571 
       0.589034         11.2406         9.99697         11.5511 
       0.595184         11.0617           9.764         11.2139 
       0.601379         10.7897         9.53709         11.0623 
       0.607522         10.5989         9.31953         10.7899 
       0.613639         10.4307         9.10989         10.5627 
       0.619772         10.1372         8.90639         10.3846 
       0.625918         10.0307         8.70884         10.1533 
       0.632068         9.85348         8.51725         9.92855 
       0.638161         9.58195         8.33319         9.73885 
         0.6443          9.3775         8.15327         9.52819 
       0.650464         9.16234         7.97803         9.38826 
       0.656582          9.0767         7.80917         9.19803 
       0.662703         8.88233         7.64513         9.00415 
       0.668861         8.69862         7.48485         8.87177 
       0.675024         8.50802         7.32904         8.66641 
       0.681124         8.35114         7.17925         8.50273 
       0.687237         8.19293         7.03338         8.32613 
       0.693381         8.06175         6.89094         8.16513 
       0.699536         7.84181         6.75225         8.03328 
       0.705665         7.74525         6.61802         7.93103 
       0.711789          7.5855         6.48761         7.75536 
       0.717957         7.43903         6.35986         7.60766 
        0.72409         7.30409         6.23629         7.49535 
       0.730186         7.19904         6.11677         7.34844 
       0.736317         7.09691         5.99975         7.21226 
       0.742472         6.96756         5.88538         7.12123 
       0.748622         6.84695          5.7741         6.99397 
        0.75476          6.6933         5.66596         6.86562 
       0.760888          6.5851         5.56076         6.76208 
       0.767043         6.49219         5.45783         6.65688 
       0.773185         6.35034         5.35774         6.54707 
       0.779291         6.28525         5.26073         6.44721 
       0.785407         6.18458           5.166         6.32938 
       0.791564          6.0743         5.07302         6.23313 
       0.797719         5.93845         4.98239         6.12429 
       0.803834         5.90035         4.89456          6.0248 
       0.809972         5.81868         4.80854         5.95587 
       0.816124         5.67769         4.72441         5.84348 
       0.822261         5.58035         4.64254         5.75006 
       0.828378         5.51052         4.56286         5.66635 
       0.834502         5.45067         4.48499         5.58063 
       0.840667         5.33616         4.40844         5.49205 
       0.846816         5.23297         4.33391         5.41846 
       0.852925         5.18001         4.26157         5.34696 
       0.859047          5.0961         4.19074         5.27151 
       0.865192         5.04091          4.1213         5.18813 
       0.871341         4.96974         4.05339         5.11989 
       0.877463         4.88216         3.98732         5.03737 
       0.883569         4.79462         3.92291          4.9642 
       0.889708         4.70763         3.85959         4.89866 
       0.895864         4.64679         3.79751         4.82359 
       0.902008          4.5962         3.73693         4.76295 
       0.908149         4.54084         3.67771          4.6872 
       0.914301         4.46556         3.61969         4.64188 
       0.920448          4.3885         3.56298         4.55832 
       0.926574         4.32729         3.50768         4.50807 
       0.932687         4.26876         3.45369         4.41702 
       0.938823         4.20694         3.40063         4.37966 
       0.944975         4.14838         3.34858         4.32014 
       0.951105         4.09416         3.29781         4.25165 
       0.957225         4.06533         3.24818         4.21028 
       0.963368          4.0018         3.19941         4.14604 
       0.969511         3.94366         3.15165         4.09781 
       0.975621         3.88964         3.10512         4.03554 
       0.981748         3.83771         3.05941         3.98265 
       0.987916         3.79274         3.01434         3.93614 
        0.99406         3.72378         2.97035         3.89142 
        1.00019         3.66616         2.92733         3.84902 
        1.00632         3.63737         2.88521         3.79394 
        1.01246         3.58745         2.84385         3.75695 
        1.01859         3.53299         2.80338         3.70029 
        1.02471         3.49727         2.76375         3.63852 
        1.03085         3.44713         2.72475         3.60109 
        1.03698          3.3936         2.68658         3.56507 
        1.04314         3.36172         2.64899         3.51725 
        1.04929         3.31716         2.61221          3.4774 
        1.05541         3.26924         2.57627         3.44085 
        1.06154         3.23587         2.54093         3.39773 
        1.06769         3.21252         2.50619         3.36105 
        1.07382         3.15748         2.47222         3.31857 
        1.07993         3.11138         2.43895         3.27528 
        1.08607         3.09006         2.40617         3.24512 
        1.09222         3.04674         2.37395         3.20343 
        1.09836         3.00731         2.34236         3.15738 
        1.10449         2.97755         2.31139         3.12836 
        1.11063         2.93349         2.28094         3.09104 
        1.11677         2.90773         2.25105         3.05763 
         1.1229         2.87543         2.22176         3.02751 
        1.12903         2.83342         2.19295         2.99846 
        1.13518         2.79895         2.16464          2.9599 
        1.14131         2.76176         2.13685         2.92086 
        1.14745         2.72359         2.10956         2.88851 
        1.15359         2.70499         2.08274         2.86431 
        1.15973         2.66543         2.05638         2.82906 
        1.16584          2.6337         2.03059         2.80274 
        1.17197         2.60596         2.00521         2.77106 
        1.17811         2.58731         1.98019         2.73913 
        1.18424         2.55364         1.95566         2.70733 
        1.19038         2.53268         1.93149         2.67983 
        1.19652         2.50003         1.90773         2.65591 
        1.20267         2.47092         1.88437         2.62373 
        1.20881         2.45008         1.86141         2.59849 
        1.21495         2.42246         1.83887         2.57565 
        1.22108         2.39218         1.81671         2.54726 
         1.2272         2.36934         1.79496          2.5152 
        1.23334          2.3359         1.77353          2.4955 
        1.23949         2.31051         1.75239         2.47521 
        1.24562         2.29177         1.73166         2.44835 
        1.25174         2.26471         1.71129         2.41865 
        1.25789         2.24449         1.69119         2.39242 
        1.26402         2.22168         1.67145         2.36799 
        1.27014         2.19625         1.65207         2.34928 
        1.27628         2.17515         1.63294         2.32477 
        1.28244          2.1445         1.61408          2.3005 
        1.28858         2.13375         1.59554          2.2784 
        1.29471          2.1026         1.57733         2.25809 
        1.30084         2.07799         1.55943         2.24088 
        1.30697         2.07128         1.54177         2.21218 
        1.31312         2.03167         1.52437          2.1916 
        1.31925         2.01473         1.50729         2.17891 
        1.32537         1.99357         1.49049         2.15753 
        1.33151         1.98479         1.47388         2.13548 
        1.33765         1.95501         1.45754         2.11451 
        1.34378         1.94041         1.44148         2.09568 
        1.34992         1.92473         1.42565         2.07572 
        1.35606         1.89424         1.41002          2.0537 
         1.3622         1.88379         1.39465         2.03395 
        1.36833         1.86158         1.37956         2.02388 
        1.37445         1.84328         1.36469         2.00338 
        1.38059         1.83483            1.35         1.98196 
        1.38675         1.81637         1.33548         1.96209 
        1.39288         1.79912         1.32124         1.95124 
        1.39901         1.77316         1.30722         1.93207 
        1.40515         1.75777         1.29336         1.91383 
         1.4113         1.74311         1.27972         1.89847 
        1.41742         1.72861         1.26632         1.88099 
        1.42355         1.71015         1.25308         1.86229 
         1.4297         1.69498            1.24         1.84984 
        1.43585         1.68302         1.22711         1.83581 
        1.44198         1.66783         1.21445         1.81607 
        1.44809         1.64899           1.202         1.80221 
        1.45423         1.63286         1.18967         1.78478 
        1.46036         1.61515         1.17754         1.76978 
        1.46649         1.60379         1.16557         1.75688 
        1.47263         1.58605         1.15377         1.74212 
        1.47877         1.57136         1.14213          1.7245 
        1.48491         1.55876         1.13063          1.7134 
        1.49104         1.54608         1.11931         1.69598 
        1.49718         1.53032         1.10814         1.68319 
        1.50333          1.5186         1.09711         1.67023 
        1.50947         1.50241         1.08625         1.65519 
         1.5156         1.49001         1.07555         1.64345 
        1.52172         1.47709           1.065         1.63335 
        1.52787         1.46463         1.05456         1.61309 
          1.534          1.4496         1.04428         1.60164 
        1.54013         1.43889         1.03415         1.58956 
        1.54627         1.42411         1.02413         1.57511 
        1.55241         1.41033         1.01424         1.56347 
        1.55855         1.40142          1.0045          1.5487 
        1.56467          1.3896        0.994915         1.53955 
         1.5708         1.37608        0.985426          1.5283 
        1.57695         1.36465        0.976046         1.51367 
        1.58308         1.35005         0.96681         1.50291 
        1.58922         1.34336        0.957688         1.49264 
        1.59535         1.33098        0.948686          1.4824 
         1.6015         1.31806        0.939788         1.46996 
        1.60764           1.309        0.931008         1.45805 
        1.61376         1.29885        0.922365         1.44852 
        1.61989         1.28506        0.913824         1.43718 
        1.62604         1.27452        0.905373         1.42589 
        1.63218         1.26847        0.897034         1.41636 
        1.63831         1.25418        0.888819         1.40612 
        1.64444         1.24522        0.880703         1.39335 
        1.65059         1.23282        0.872671         1.38378 
        1.65673         1.22511        0.864746         1.37301 
        1.66285         1.21223        0.856943         1.36169 
        1.66898         1.20469        0.849233         1.35211 
        1.67512         1.19224        0.841603         1.34278 
        1.68127         1.18393        0.834059         1.33514 
         1.6874         1.17834        0.826625         1.32729 
        1.69353         1.16231        0.819286         1.31602 
        1.69967         1.15524        0.812019         1.30396 
        1.70581         1.14875        0.804843         1.29546 
        1.71193         1.13701         0.79778         1.28839 
        1.71806         1.13046        0.790788         1.27717 
        1.72421         1.12099        0.783865          1.2675 
        1.73035         1.11114        0.777033         1.25918 
        1.73649          1.1024        0.770284         1.25055 
        1.74262         1.09327        0.763621           1.242 
        1.74876          1.0866        0.757032         1.23479 
        1.75489         1.07598        0.750535          1.2259 
        1.76101         1.06681        0.744115         1.21464 
        1.76715         1.06134        0.737762         1.20618 
        1.77329         1.05373        0.731476         1.19881 
        1.77943          1.0414         0.72526         1.19085 
        1.78557         1.03458        0.719125         1.18252 
        1.79171         1.03024         0.71306         1.17399 
        1.79785         1.01918        0.707064         1.16593 
        1.80399         1.01184        0.701138         1.15857 
        1.81012          1.0044        0.695288         1.15036 
        1.81625        0.998064        0.689507         1.14208 
        1.82239        0.989832        0.683784         1.13502 
        1.82853        0.979594        0.678127         1.12896 
        1.83466         0.97482        0.672541         1.12237 
        1.84078        0.968602        0.667023         1.11466 
        1.84692        0.961867        0.661557         1.10624 
        1.85306        0.952506        0.656147         1.09725 
         1.8592        0.944785        0.650805         1.09008 
        1.86533         0.93815        0.645526         1.08511 
        1.87147         0.93277        0.640299         1.07795 
