# k  (h/Mpc)    P(k)  (Mpc/h)^3    P_linear(k)  (Mpc/h)^3     P_NL(k)  ShotnoiseSubtracted = false
     0.00783031         21265.9         21602.8         21397.8 
       0.013688           24394         24104.1         23912.3 
       0.019231           22378         22261.7         22086.9 
      0.0249154         18382.6         18744.2         18615.4 
      0.0312784           14621         14707.1         14635.8 
      0.0375637         11692.6         11579.5         11551.8 
      0.0433917         9573.55         9636.82          9605.4 
      0.0492413         8480.13            8448         8424.23 
      0.0555754         7537.26         7694.91         7674.69 
      0.0619321         7242.72         7150.95         7127.26 
       0.067871         6495.31         6603.97          6589.3 
      0.0738098         5852.38         5929.78         5871.52 
      0.0800417         5041.87         5124.04         5113.43 
      0.0862327         4360.84          4338.9         4414.46 
      0.0921407          3845.3         3707.07          3809.5 
      0.0982031         3344.78         3231.39         3397.11 
       0.104506         3124.67         2918.69         3119.27 
       0.110769         2910.97         2743.74         2889.63 
       0.116806         2781.37         2638.87         2751.94 
       0.122832         2662.22         2536.43         2636.24 
       0.129052         2454.17         2391.18         2476.12 
       0.135211          2280.5            2198         2292.57 
       0.141259         2131.05          1979.3         2113.07 
       0.147318         1956.29         1763.19         1945.73 
       0.153489         1759.46         1575.12         1745.79 
       0.159709         1645.04         1433.77         1630.31 
       0.165845         1572.99         1341.21         1565.12 
       0.171974            1499         1283.11         1485.58 
       0.178125         1433.18         1241.48         1448.05 
       0.184229         1370.48         1199.67          1381.6 
        0.19034         1289.39         1146.09         1313.88 
       0.196428         1249.02         1078.38         1240.47 
       0.202534         1190.94         1001.02         1177.14 
       0.208729         1118.29         922.061         1096.76 
       0.214876         1062.04         851.975         1058.12 
       0.220989            1016         795.621         1014.66 
       0.227147         973.836         753.071         976.327 
        0.23329         933.297         721.926         948.909 
       0.239377          913.76         697.373         911.438 
       0.245482         853.598          674.04         871.882 
       0.251667          846.28         647.984         848.548 
       0.257832         808.663         618.259         811.076 
       0.263955         778.286         585.943         778.384 
       0.270079         745.396         553.089         749.623 
        0.27624         733.077         522.122         719.552 
       0.282372         703.096         495.138         700.004 
        0.28843         689.935         472.898         681.533 
       0.294538         652.922         454.399         660.026 
       0.300721         647.481         438.409         640.682 
        0.30691          620.14         423.633         629.387 
       0.313033         606.318         408.984         606.337 
       0.319153         589.797         393.696          587.85 
       0.325316         572.042         377.649         572.451 
        0.33145         554.924         361.556         549.966 
       0.337538         543.016         346.148         536.228 
       0.343633         528.237          331.86         528.401 
       0.349808         507.411         318.902         517.253 
       0.355968         502.734          307.42         505.537 
       0.362074         495.937         297.225         494.242 
       0.368217         480.223         287.705         479.518 
       0.374374         458.957         278.513         468.125 
       0.380519         457.536         269.437          456.01 
       0.386598          443.54         260.434         450.904 
       0.392688         440.021         251.503         437.136 
        0.39888         426.826         242.657         428.223 
       0.405048         418.454         234.255          419.71 
       0.411186         411.925         226.449         409.457 
       0.417313          403.22         219.219         401.532 
       0.423458         393.173         212.478         394.548 
       0.429607         388.489         206.156          387.24 
       0.435692          377.77         200.184          376.39 
       0.441815         373.196         194.349         372.721 
       0.447964          364.63         188.629         366.614 
       0.454126         358.505         183.026         355.882 
       0.460267         350.136         177.586         353.427 
       0.466387         345.215         172.357         347.083 
        0.47254         340.249         167.339         340.613 
       0.478662         337.503         162.598         333.679 
       0.484765         324.959         158.105         328.013 
       0.490885         321.661         153.818         322.043 
       0.497035         315.085         149.699         317.728 
       0.503198         311.251         145.726         313.208 
       0.509342          309.12         141.884         307.853 
       0.515458         304.808         138.166         304.018 
       0.521598         295.874         134.547         299.237 
       0.527764         292.526         131.032          296.27 
       0.533884         289.044         127.667         291.896 
           0.54         284.894         124.428          286.47 
       0.546137         282.906         121.302         282.869 
       0.552299         277.511         118.288         278.399 
       0.558452         275.581         115.396         274.887 
       0.564573         271.776          112.62         272.431 
       0.570708         266.147         109.928         269.061 
       0.576825         261.049         107.323         263.643 
       0.582926         258.932         104.802         261.232 
       0.589034          255.74         102.355         257.789 
       0.595184         253.889         99.9695         253.328 
       0.601379          248.52         97.6464         250.304 
       0.607522         245.895         95.4188         246.432 
       0.613639         243.589         93.2725         245.929 
       0.619772         239.349         91.1889         243.901 
       0.625918         237.928         89.1662         239.112 
       0.632068         233.364         87.2046         236.558 
       0.638161         232.043         85.3201         234.869 
         0.6443           228.5          83.478         231.814 
       0.650464         226.206         81.6838         227.209 
       0.656582         222.834         79.9549         225.699 
       0.662703         222.727         78.2753         223.527 
       0.668861         219.397         76.6343         222.015 
       0.675024         216.157          75.039         219.698 
       0.681124         213.987         73.5054          216.01 
       0.687237         211.895         72.0119         213.753 
       0.693381          208.43         70.5535         211.426 
       0.699536          206.19         69.1335         209.825 
       0.705665         204.213         67.7592         206.675 
       0.711789         203.044          66.424         205.736 
       0.717957         201.529          65.116          204.41 
        0.72409         199.518         63.8508         201.709 
       0.730186         196.589         62.6271         199.425 
       0.736317         194.671          61.429         197.739 
       0.742472         192.658         60.2579          195.63 
       0.748622         191.279         59.1186         193.624 
        0.75476         188.897         58.0114         193.383 
       0.760888         186.912         56.9343         190.305 
       0.767043         186.229         55.8805         188.703 
       0.773185         184.617         54.8556         187.274 
       0.779291         181.327         53.8624         185.054 
       0.785407         180.711         52.8925         183.488 
       0.791564         178.884         51.9406         181.791 
       0.797719         176.231         51.0126         180.359 
       0.803834         174.717         50.1133         179.261 
       0.809972         174.104         49.2326         177.598 
       0.816124         172.773         48.3713         175.841 
       0.822261         171.634          47.533         174.899 
       0.828378         169.633         46.7172          173.05 
       0.834502         168.251         45.9199         171.548 
       0.840667         166.586         45.1362         169.901 
       0.846816           165.3         44.3731         168.834 
       0.852925         164.019         43.6324         167.614 
       0.859047          162.88         42.9072         166.285 
       0.865192         160.471         42.1962          164.44 
       0.871341         159.122         41.5009          163.37 
       0.877463         158.623         40.8245         162.458 
       0.883569          157.51          40.165         161.945 
       0.889708         155.375         39.5167         159.788 
       0.895864         154.574         38.8811         158.859 
       0.902008          153.12         38.2609         157.275 
       0.908149         152.235         37.6546         156.138 
       0.914301         150.287         37.0605         154.819 
       0.920448         149.474         36.4798         153.898 
       0.926574         147.931         35.9137         152.599 
       0.932687         147.923         35.3608         151.622 
       0.938823         145.743         34.8177         150.881 
       0.944975          145.21         34.2847         149.502 
       0.951105         143.987         33.7649         148.424 
       0.957225         143.319         33.2568         147.299 
       0.963368         140.867         32.7574         146.328 
       0.969511         140.358         32.2684         145.186 
       0.975621         139.065          31.792         144.464 
       0.981748         138.699          31.324          143.59 
       0.987916          137.43         30.8626         142.448 
        0.99406         136.456         30.4122          141.38 
        1.00019         135.647         29.9717         140.293 
        1.00632         134.433         29.5404         139.291 
        1.01246         133.441          29.117         138.025 
        1.01859         133.143         28.7026         137.455 
        1.02471         131.245         28.2968          136.69 
        1.03085         130.343         27.8975         135.925 
        1.03698         129.516         27.5068         135.377 
        1.04314         128.221         27.1219         134.157 
        1.04929         128.048         26.7453         133.168 
        1.05541         126.994         26.3773         132.549 
        1.06154         125.965         26.0154         131.837 
        1.06769          125.59         25.6598         130.931 
        1.07382         124.269          25.312         130.203 
        1.07993         123.363         24.9714         129.381 
        1.08607         122.904         24.6357         128.337 
        1.09222          121.94         24.3058         127.699 
        1.09836         120.967         23.9824         126.835 
        1.10449         119.834         23.6653         126.421 
        1.11063         119.073         23.3536         125.425 
        1.11677          118.24         23.0476         124.524 
         1.1229         117.305         22.7476         123.803 
        1.12903         116.978         22.4527         123.065 
        1.13518         116.177         22.1628         122.468 
        1.14131         114.946         21.8783         121.504 
        1.14745         114.902         21.5988         120.735 
        1.15359         113.569         21.3243         120.268 
        1.15973         112.922         21.0544         119.569 
        1.16584         112.211         20.7903         118.865 
        1.17197         111.757         20.5305          118.31 
        1.17811         110.457         20.2743         117.439 
        1.18424         110.242         20.0232         116.647 
        1.19038         109.898         19.7757         116.432 
        1.19652         108.807         19.5324          115.43 
        1.20267         108.118         19.2933         114.967 
        1.20881         107.512         19.0582         114.144 
        1.21495         106.436         18.8274         113.631 
        1.22108         106.076         18.6005         112.896 
         1.2272         105.082         18.3779         112.314 
        1.23334         104.761         18.1584         111.896 
        1.23949         103.903          17.942         111.177 
        1.24562          103.32         17.7297         110.222 
        1.25174         102.901         17.5211         109.652 
        1.25789         102.195         17.3153         109.004 
        1.26402         100.878         17.1132         108.725 
        1.27014         100.481         16.9148         108.116 
        1.27628         100.093          16.719         107.839 
        1.28244         99.7728         16.5258          107.05 
        1.28858         98.9533          16.336         106.476 
        1.29471          98.142         16.1496         105.871 
        1.30084         97.9111         15.9663         105.109 
        1.30697         96.7173         15.7856          104.57 
        1.31312         96.2859         15.6074         103.979 
        1.31925         95.6414         15.4325         103.654 
        1.32537         95.3261         15.2604         103.173 
        1.33151         94.6841         15.0904         102.557 
        1.33765         93.9329         14.9231          102.08 
        1.34378         93.4611         14.7586         101.586 
        1.34992         93.0722         14.5966         100.952 
        1.35606         92.6622         14.4366         100.372 
         1.3622         91.6891         14.2793         99.9829 
        1.36833         91.1955         14.1247         99.3458 
        1.37445         90.8653         13.9725         98.8664 
        1.38059         90.0547          13.822         98.1751 
        1.38675         89.5073         13.6734         97.7603 
        1.39288         89.1773         13.5276         97.2004 
        1.39901           88.71          13.384         96.8466 
        1.40515         87.8895         13.2422         96.4419 
         1.4113         87.6993         13.1024         95.9925 
        1.41742         86.8883         12.9653         95.5136 
        1.42355         86.5844         12.8298          94.849 
         1.4297         85.9359         12.6958         94.5423 
        1.43585         85.3676         12.5638         94.0285 
        1.44198         85.0886         12.4342         93.7789 
        1.44809         84.7053         12.3067         93.1835 
        1.45423         84.2356         12.1805         92.5277 
        1.46036         83.4792         12.0563         92.1295 
        1.46649         83.0426         11.9338         91.8444 
        1.47263         82.3654         11.8129         91.4396 
        1.47877         81.8427         11.6937         90.8087 
        1.48491         81.4414          11.576         90.3435 
        1.49104         81.1424         11.4601         90.1222 
        1.49718         80.6206         11.3458         89.5042 
        1.50333         80.1078         11.2328         89.0337 
        1.50947         79.5817         11.1216         88.7195 
         1.5156         79.3037         11.0121         88.3141 
        1.52172         78.9324          10.904         87.8267 
        1.52787         78.2322         10.7972         87.4266 
          1.534         77.8871         10.6919         87.0696 
        1.54013         77.5037         10.5882         86.7094 
        1.54627         77.0484         10.4856         86.3023 
        1.55241         76.6969         10.3844         85.8267 
        1.55855         76.1488         10.2846         85.3618 
        1.56467         75.6909         10.1865         85.0713 
         1.5708         75.0904         10.0893         84.6428 
        1.57695          75.038          9.9933         84.2141 
        1.58308         74.6484         9.89874         83.9303 
        1.58922          74.145         9.80533         83.5358 
        1.59535          73.633         9.71317         83.1849 
         1.6015         73.4917         9.62207         82.7381 
        1.60764         72.8674         9.53217         82.3229 
        1.61376         72.4912         9.44368         82.0815 
        1.61989          72.085         9.35624         81.6911 
        1.62604         71.6407          9.2697         81.0741 
        1.63218         71.4525         9.18432         80.6796 
        1.63831         70.8791         9.10021         80.5579 
        1.64444         70.4235         9.01713         80.1869 
        1.65059         69.9083         8.93488         79.7709 
        1.65673           69.65         8.85375         79.3629 
        1.66285         69.4055         8.77385         79.0301 
        1.66898         68.9686         8.69491          78.741 
        1.67512         68.3004         8.61679         78.3366 
        1.68127          68.158         8.53956         78.0588 
         1.6874         67.7172         8.46344         77.7658 
        1.69353         67.3716          8.3883         77.2466 
        1.69967         67.1788         8.31389          76.954 
        1.70581         66.5769         8.24042         76.6744 
        1.71193          66.145         8.16811         76.3007 
        1.71806           65.98         8.09652         75.9742 
        1.72421         65.5745         8.02564         75.6776 
        1.73035         65.2366         7.95569         75.3583 
        1.73649         64.9478         7.88659         74.9897 
        1.74262         64.4803         7.81837         74.5953 
        1.74876         64.1602         7.75091         74.2836 
        1.75489         63.7679         7.68438         74.0114 
        1.76101         63.4067         7.61866         73.7149 
        1.76715          63.049         7.55361         73.4097 
        1.77329         62.7387         7.48925         73.0471 
        1.77943         62.3585          7.4256         72.6981 
        1.78557         62.1979         7.36279         72.4249 
        1.79171         61.6269          7.3007         72.1081 
        1.79785         61.2674         7.23931         71.7596 
        1.80399         61.0148         7.17863         71.4537 
        1.81012         60.7084         7.11874         71.1787 
        1.81625          60.398         7.05955         70.8743 
        1.82239         59.9803         7.00095         70.5452 
        1.82853         59.7557         6.94304         70.2415 
        1.83466         59.4897         6.88584          69.919 
        1.84078         59.0957         6.82934         69.6268 
        1.84692         58.7668         6.77338         69.4379 
        1.85306         58.4651         6.71798         69.0786 
         1.8592          58.255         6.66329         68.6856 
        1.86533          57.825         6.60924         68.5047 
        1.87147         57.4538         6.55572         68.2534 
        1.87761          57.111         6.50277         67.9199 
