# k  (h/Mpc)    P(k)  (Mpc/h)^3    P_linear(k)  (Mpc/h)^3     P_NL(k)  ShotnoiseSubtracted = false
     0.00783031         8157.11         8264.89         8190.75 
       0.013688         9262.79          9209.9         9148.06 
       0.019231         8534.82         8503.97         8451.79 
      0.0249154         7082.76         7159.79         7129.46 
      0.0312784            5613         5617.56         5612.52 
      0.0375637          4458.5         4422.92          4425.3 
      0.0433917         3674.29         3680.88         3682.87 
      0.0492413         3238.69          3226.8         3229.58 
      0.0555754         2908.78         2939.15         2938.91 
      0.0619321         2760.22         2731.38         2728.92 
       0.067871         2503.52         2522.46         2520.12 
      0.0738098         2249.97         2264.95         2256.34 
      0.0800417         1938.88         1957.19         1956.78 
      0.0862327         1661.14          1657.3         1671.33 
      0.0921407         1441.29         1415.97         1434.77 
      0.0982031         1250.12         1234.27         1263.41 
       0.104506         1153.93         1114.83         1149.29 
       0.110769         1078.31         1048.01         1072.36 
       0.116806          1027.9         1007.96         1026.43 
       0.122832         990.736         968.825         985.327 
       0.129052         920.645         913.347         926.938 
       0.135211         850.826         839.557         855.457 
       0.141259         781.502         756.024         778.156 
       0.147318          706.93         673.478         705.143 
       0.153489         631.945         601.641         630.201 
       0.159709         583.641         547.651         580.355 
       0.165845         553.205         512.295         550.566 
       0.171974         523.914         490.102         523.253 
       0.178125         505.724         474.204         508.462 
       0.184229         487.821         458.231         488.674 
        0.19034         455.973         437.767         465.344 
       0.196428          439.15         411.902         436.803 
       0.202534         416.746         382.357           410.1 
       0.208729         385.705         352.196         380.885 
       0.214876         358.728         325.426         360.884 
       0.220989         340.946           303.9         341.294 
       0.227147         322.565         287.648          324.63 
        0.23329         309.294         275.751         313.772 
       0.239377          301.23         266.373         302.257 
       0.245482         282.731          257.46         289.161 
       0.251667         277.792         247.508          280.45 
       0.257832         266.728         236.154         267.445 
       0.263955         254.424         223.811         254.781 
       0.270079          241.97         211.261         243.188 
        0.27624         234.963         199.433         231.122 
       0.282372         225.058         189.126         222.343 
        0.28843         215.717         180.631         214.078 
       0.294538         205.652         173.565          206.87 
       0.300721          202.39         167.458         200.875 
        0.30691         193.038         161.813         195.077 
       0.313033          187.65         156.218         187.718 
       0.319153         179.342         150.379         181.482 
       0.325316         175.003         144.249         175.779 
        0.33145         167.655         138.102         168.544 
       0.337538         163.865         132.217         162.442 
       0.343633          157.52          126.76         158.316 
       0.349808         151.958          121.81         153.968 
       0.355968         148.844         117.424         150.037 
       0.362074         144.547          113.53         145.317 
       0.368217          139.96         109.894         140.233 
       0.374374         135.063         106.383         136.396 
       0.380519         132.375         102.916         132.248 
       0.386598         128.506          99.477         129.185 
       0.392688         125.866         96.0658         125.359 
        0.39888         122.355         92.6868         121.738 
       0.405048         118.721         89.4777         118.922 
       0.411186         115.786         86.4961         115.735 
       0.417313         112.846         83.7342         112.247 
       0.423458         109.964         81.1596         109.722 
       0.429607         107.197         78.7447         107.151 
       0.435692         103.596         76.4638         104.369 
       0.441815         102.413         74.2347         102.544 
       0.447964          100.15         72.0499         99.8599 
       0.454126         95.5743         69.9099         96.8209 
       0.460267         94.3163         67.8319         95.5134 
       0.466387         92.6654         65.8345         93.0361 
        0.47254          90.329          63.918         91.0636 
       0.478662         89.3693         62.1069         89.1505 
       0.484765         86.4142         60.3908         86.5803 
       0.490885          84.746         58.7533         85.2278 
       0.497035         83.4379         57.1802         83.7576 
       0.503198         80.9222         55.6626         81.8703 
       0.509342         79.2992          54.195          80.389 
       0.515458         77.8553          52.775         79.1655 
       0.521598          76.441         51.3925         76.9336 
       0.527764         75.1895           50.05         75.2502 
       0.533884         73.9464         48.7645         74.0501 
           0.54         72.1603         47.5273         72.6172 
       0.546137         71.2458         46.3333         71.5376 
       0.552299         69.9777         45.1822         69.7312 
       0.558452         68.3306         44.0775         68.3351 
       0.564573         67.0564         43.0173         67.5059 
       0.570708         65.8589         41.9888         66.3502 
       0.576825         64.8617         40.9938         64.9629 
       0.582926         63.3671         40.0309          63.807 
       0.589034         62.1327         39.0962          63.087 
       0.595184         61.1698          38.185         61.7732 
       0.601379         60.1533         37.2977         60.9507 
       0.607522         58.7672         36.4468         59.5221 
       0.613639          58.373          35.627         58.8275 
       0.619772         57.1075         34.8311         57.7984 
       0.625918         56.2268         34.0585         56.9818 
       0.632068          55.534         33.3093         55.9768 
       0.638161         54.7098         32.5894         55.2348 
         0.6443         53.9038         31.8858         54.2433 
       0.650464          53.091         31.2005         53.1419 
       0.656582         52.2013         30.5401         52.6402 
       0.662703          51.189         29.8986         51.6585 
       0.668861         50.4787         29.2718         51.0467 
       0.675024         49.7466         28.6624         50.1402 
       0.681124         49.0425         28.0766         49.4126 
       0.687237         48.0216         27.5062         48.7042 
       0.693381         47.4783         26.9491         47.8936 
       0.699536         46.7917         26.4067         47.4826 
       0.705665         46.7478         25.8818         46.9361 
       0.711789         45.4621         25.3718         45.9271 
       0.717957         44.9771         24.8721         45.4645 
        0.72409         44.2769         24.3889         44.9998 
       0.730186         43.5223         23.9215         44.3909 
       0.736317         43.3409         23.4638          43.653 
       0.742472           42.69         23.0165         43.1179 
       0.748622         42.0854         22.5814         42.5216 
        0.75476         41.5788         22.1584         41.9428 
       0.760888         40.8968          21.747         41.3531 
       0.767043         40.4302         21.3445         41.0651 
       0.773185         39.8538          20.953         40.5854 
       0.779291         39.5069         20.5737         40.0519 
       0.785407         39.1459         20.2032         39.4252 
       0.791564         38.5988         19.8396         38.9699 
       0.797719         37.8074         19.4851         38.6919 
       0.803834          37.623         19.1416         38.0712 
       0.809972         36.8773         18.8052         37.6065 
       0.816124         36.5376         18.4762         37.2437 
       0.822261         36.1865          18.156         36.7363 
       0.828378         35.9455         17.8444         36.2098 
       0.834502         35.4367         17.5399         35.9228 
       0.840667         35.0057         17.2405          35.617 
       0.846816         34.4547          16.949         35.1946 
       0.852925         34.1715         16.6662         34.8029 
       0.859047         33.6619         16.3892         34.3597 
       0.865192           33.35         16.1176         34.0262 
       0.871341         33.1508          15.852         33.6442 
       0.877463         32.5028         15.5936         33.2964 
       0.883569         32.2138         15.3417         33.0512 
       0.889708         31.9598         15.0941         32.6444 
       0.895864         31.5875         14.8513         32.2984 
       0.902008         31.2641         14.6144         31.9135 
       0.908149         30.9605         14.3828         31.6915 
       0.914301         30.7018         14.1559         31.4398 
       0.920448         30.3836         13.9341         31.0241 
       0.926574         29.9553         13.7178         30.6857 
       0.932687          29.745         13.5067         30.4226 
       0.938823         29.2731         13.2992         30.0229 
       0.944975         29.0881         13.0956         29.7806 
       0.951105         28.7466         12.8971         29.5364 
       0.957225         28.3974          12.703         29.2217 
       0.963368         28.3789         12.5123         28.9157 
       0.969511         28.0109         12.3255         28.6217 
       0.975621         27.8126         12.1435         28.4591 
       0.981748         27.4119         11.9647         28.1895 
       0.987916         27.1254         11.7885         27.9674 
        0.99406         26.9755         11.6165         27.6289 
        1.00019         26.6464         11.4482         27.3583 
        1.00632         26.4507         11.2835         27.1313 
        1.01246         26.2992         11.1217         26.8743 
        1.01859          25.865         10.9635         26.7361 
        1.02471         25.7407         10.8085         26.5119 
        1.03085         25.5306         10.6559          26.202 
        1.03698          25.179         10.5067         25.9574 
        1.04314         25.0131         10.3597         25.6991 
        1.04929         24.7658         10.2158         25.5495 
        1.05541         24.4885         10.0753         25.4258 
        1.06154         24.4187         9.93705         25.1408 
        1.06769         24.1244          9.8012         24.9055 
        1.07382         23.9845         9.66834         24.7222 
        1.07993         23.8038         9.53825         24.5026 
        1.08607         23.5312         9.41003         24.3308 
        1.09222         23.3722         9.28403         24.1387 
        1.09836         23.1522          9.1605         23.9387 
        1.10449         22.9607         9.03936          23.744 
        1.11063         22.6572         8.92029         23.5041 
        1.11677         22.5344         8.80341         23.2998 
         1.1229         22.3853         8.68884         23.1799 
        1.12903         22.0919          8.5762         23.0034 
        1.13518         22.0767         8.46548         22.8055 
        1.14131         21.9074         8.35678          22.623 
        1.14745         21.5847         8.25005         22.4915 
        1.15359         21.5468         8.14517         22.2658 
        1.15973         21.2605         8.04208         22.1369 
        1.16584         21.1092         7.94123         21.9252 
        1.17197         21.0121         7.84197         21.8264 
        1.17811           20.81         7.74411         21.6131 
        1.18424         20.6336         7.64821          21.452 
        1.19038         20.5156         7.55366         21.3484 
        1.19652         20.4304         7.46075         21.1215 
        1.20267         20.2409          7.3694         21.0197 
        1.20881          20.042         7.27961         20.8762 
        1.21495         19.8858         7.19146         20.7385 
        1.22108         19.7481         7.10478         20.5706 
         1.2272         19.5237         7.01974         20.4662 
        1.23334         19.4595          6.9359         20.2966 
        1.23949         19.3722         6.85324         20.1037 
        1.24562         19.1455         6.77215         19.9941 
        1.25174         19.0649          6.6925         19.8838 
        1.25789         18.9025         6.61389         19.7395 
        1.26402         18.7637         6.53669         19.5668 
        1.27014         18.5697         6.46091         19.4691 
        1.27628         18.4632          6.3861         19.3298 
        1.28244         18.3556         6.31233         19.2374 
        1.28858         18.2502         6.23983         19.0869 
        1.29471         18.1483         6.16863         18.9834 
        1.30084         18.0208         6.09861           18.86 
        1.30697         17.8582         6.02957         18.6889 
        1.31312         17.7076          5.9615         18.5864 
        1.31925         17.5995          5.8947         18.4742 
        1.32537          17.494         5.82899         18.3789 
        1.33151         17.3667         5.76405         18.2525 
        1.33765         17.2859         5.70013         18.1237 
        1.34378         17.1422         5.63732         18.0376 
        1.34992         16.9989         5.57541         17.9264 
        1.35606         16.9147          5.5143         17.8093 
         1.3622         16.8169         5.45421         17.7032 
        1.36833         16.6488         5.39516         17.6205 
        1.37445         16.6247         5.33702         17.4962 
        1.38059         16.4731         5.27956         17.3953 
        1.38675         16.2844         5.22281         17.3011 
        1.39288         16.2736         5.16712         17.1846 
        1.39901          16.132         5.11226         17.0721 
        1.40515         16.0336         5.05808         16.9615 
         1.4113         15.9341         5.00471         16.8543 
        1.41742         15.7939          4.9523         16.7698 
        1.42355         15.7495         4.90056         16.6984 
         1.4297         15.6519         4.84939         16.5581 
        1.43585         15.5923         4.79898         16.4868 
        1.44198         15.4147         4.74948         16.3979 
        1.44809         15.3338         4.70077         16.3053 
        1.45423         15.2486         4.65256         16.1776 
        1.46036         15.1892         4.60512         16.0917 
        1.46649         15.0782         4.55832         16.0329 
        1.47263         14.9563         4.51214         15.9596 
        1.47877         14.9116         4.46662         15.8574 
        1.48491         14.8667         4.42165         15.7712 
        1.49104         14.7277          4.3774         15.6761 
        1.49718          14.599         4.33372         15.5999 
        1.50333         14.5559         4.29057         15.5068 
        1.50947         14.4831          4.2481         15.4265 
         1.5156         14.3941         4.20626         15.3559 
        1.52172         14.2876         4.16498         15.2662 
        1.52787         14.2192         4.12418         15.1689 
          1.534         14.1281         4.08397           15.09 
        1.54013          14.016         4.04434         15.0048 
        1.54627         13.9599         4.00517         14.9176 
        1.55241         13.8459          3.9665         14.8449 
        1.55855         13.7879          3.9284         14.7784 
        1.56467         13.6811         3.89091          14.716 
         1.5708         13.6686          3.8538         14.6287 
        1.57695         13.5292         3.81712         14.5404 
        1.58308         13.4905           3.781         14.4785 
        1.58922         13.4188         3.74532         14.4098 
        1.59535         13.3212         3.71012         14.3223 
         1.6015         13.2425         3.67532         14.2511 
        1.60764         13.1934         3.64098         14.1768 
        1.61376         13.0602         3.60718         14.0985 
        1.61989         13.0021         3.57378          14.062 
        1.62604         12.9786         3.54073         13.9931 
        1.63218         12.9049         3.50811         13.9229 
        1.63831         12.8274         3.47599         13.8725 
        1.64444         12.7437         3.44425          13.797 
        1.65059         12.6694         3.41283         13.7142 
        1.65673         12.5792         3.38184         13.6469 
        1.66285         12.5636         3.35133         13.5948 
        1.66898         12.4958         3.32117         13.5339 
        1.67512         12.4275         3.29133         13.4466 
        1.68127          12.355         3.26183         13.3897 
         1.6874         12.2722         3.23276         13.3276 
        1.69353         12.2144         3.20406         13.2166 
        1.69967         12.1377         3.17564         13.1779 
        1.70581         12.0687         3.14757         13.1409 
        1.71193         12.0366         3.11995         13.0795 
        1.71806         11.9467         3.09261          13.036 
        1.72421         11.8865         3.06553         12.9658 
        1.73035         11.8056         3.03882         12.9103 
        1.73649         11.7938         3.01242          12.869 
        1.74262          11.719         2.98636         12.7739 
        1.74876         11.6773          2.9606         12.6985 
        1.75489         11.5971         2.93518           12.66 
        1.76101         11.5259         2.91008         12.6244 
        1.76715         11.4812         2.88523         12.5568 
        1.77329         11.4356         2.86065         12.4817 
        1.77943         11.3582         2.83634         12.4181 
        1.78557         11.3187         2.81235          12.366 
        1.79171         11.2498         2.78863         12.3218 
        1.79785         11.1674         2.76518         12.2769 
        1.80399         11.1403         2.74201          12.224 
        1.81012         11.1074         2.71913         12.1679 
        1.81625         11.0474         2.69652         12.1175 
        1.82239              11         2.67414         12.0711 
        1.82853          10.912         2.65202         12.0211 
        1.83466         10.8541         2.63017         11.9708 
        1.84078         10.7925         2.60859         11.9143 
        1.84692         10.7708         2.58721          11.845 
        1.85306         10.6971         2.56605         11.8048 
         1.8592         10.6504         2.54516         11.7742 
        1.86533         10.6009         2.52452         11.7117 
        1.87147         10.5543         2.50407         11.6503 
        1.87761         10.5182         2.48385         11.6085 
