# k  (h/Mpc)    Pcb(k)  (Mpc/h)^3    Pcb_linear(k) (Mpc/h)^3    Pcb_NL(k) (Mpc/h)^3   ShotnoiseSubtracted = false
     0.00783031         113.154         114.309         113.268 
       0.013688         126.949         127.518         126.734 
       0.019231         117.711         117.794         117.179 
      0.0249154         99.0678         99.1975         98.9086 
      0.0312784         78.0292         77.8415         77.9248 
      0.0375637         61.5215         61.2929          61.419 
      0.0433917         51.1523         51.0122         51.1365 
      0.0492413         44.8245         44.7207         44.8278 
      0.0555754         40.7378          40.735         40.7616 
      0.0619321         37.8983         37.8561         37.8371 
       0.067871         34.9149          34.961         34.9144 
      0.0738098         31.3468         31.3924         31.3458 
      0.0800417         27.0933         27.1272         27.1121 
      0.0862327         22.9861         22.9709          22.992 
      0.0921407         19.6619         19.6261         19.6659 
      0.0982031         17.1304         17.1079         17.1605 
       0.104506         15.5015         15.4524         15.5011 
       0.110769         14.5505         14.5261         14.5572 
       0.116806         13.9598         13.9709         13.9806 
       0.122832         13.4255         13.4286         13.4275 
       0.129052         12.6362         12.6596          12.652 
       0.135211         11.6156         11.6369         11.6335 
       0.141259         10.4803         10.4791         10.4868 
       0.147318         9.35321         9.33503         9.35731 
       0.153489         8.35458         8.33934         8.36392 
       0.159709         7.60524           7.591         7.61987 
       0.165845         7.12709         7.10093          7.1318 
       0.171974         6.79487          6.7933         6.81672 
       0.178125         6.57526         6.57292         6.59372 
       0.184229         6.35591         6.35151         6.36688 
        0.19034         6.05622         6.06784         6.07982 
       0.196428         5.70774         5.70936         5.71911 
       0.202534         5.31507         5.29985         5.31337 
       0.208729         4.88874         4.88181         4.89928 
       0.214876         4.51244         4.51077         4.53464 
       0.220989           4.226         4.21238         4.23823 
       0.227147         3.98947          3.9871         4.01145 
        0.23329         3.82343          3.8222         3.84669 
       0.239377         3.69285         3.69221         3.71453 
       0.245482         3.56492         3.56867         3.58627 
       0.251667         3.43398         3.43073         3.44916 
       0.257832         3.27274         3.27336         3.29061 
       0.263955         3.10472         3.10226         3.11933 
       0.270079         2.93276         2.92831         2.94636 
        0.27624           2.774         2.76435         2.78263 
       0.282372         2.63142         2.62149         2.64225 
        0.28843         2.50856         2.50375         2.52477 
       0.294538         2.40989         2.40581         2.42587 
       0.300721         2.32936         2.32114         2.34119 
        0.30691         2.24615         2.24291         2.26245 
       0.313033         2.16821         2.16536         2.18322 
       0.319153         2.08031         2.08442         2.10222 
       0.325316         2.00626         1.99945         2.01789 
        0.33145         1.91981         1.91425         1.93208 
       0.337538         1.83792         1.83268         1.85032 
       0.343633         1.75961         1.75703         1.77458 
       0.349808         1.69339         1.68842         1.70709 
       0.355968         1.63358         1.62764         1.64806 
       0.362074         1.57738         1.57365         1.59232 
       0.368217         1.52695         1.52325          1.5399 
       0.374374         1.47544         1.47459         1.49193 
       0.380519         1.43004         1.42652         1.44275 
       0.386598          1.3836         1.37887         1.39543 
       0.392688         1.33825         1.33158         1.34811 
        0.39888         1.28954         1.28474         1.30169 
       0.405048         1.24546         1.24026         1.25581 
       0.411186         1.20437         1.19893         1.21598 
       0.417313         1.16495         1.16065          1.1773 
       0.423458         1.13083         1.12496         1.14157 
       0.429607         1.09509         1.09149         1.10723 
       0.435692         1.06357         1.05987         1.07582 
       0.441815         1.03262         1.02898         1.04548 
       0.447964         1.00452        0.998693         1.01421 
       0.454126        0.972544        0.969033        0.984392 
       0.460267        0.943735        0.940227        0.956257 
       0.466387        0.915187        0.912543        0.927544 
        0.47254        0.888989        0.885976        0.901105 
       0.478662        0.864779        0.860872        0.875524 
       0.484765        0.839648        0.837085        0.851554 
       0.490885        0.817961        0.814389        0.830059 
       0.497035        0.798128        0.792583        0.808487 
       0.503198        0.775495        0.771547        0.785838 
       0.509342         0.75627        0.751206        0.765649 
       0.515458        0.735271        0.731522        0.746583 
       0.521598        0.716106         0.71236        0.726038 
       0.527764        0.696237        0.693751        0.707392 
       0.533884        0.680784        0.675932        0.689334 
           0.54        0.662879        0.658783        0.671963 
       0.546137        0.646605        0.642234        0.655933 
       0.552299        0.630438        0.626278        0.638575 
       0.558452        0.614314        0.610965        0.623597 
       0.564573         0.60032         0.59627        0.609937 
       0.570708        0.585802        0.582013        0.595138 
       0.576825        0.571618        0.568223        0.580871 
       0.582926        0.559242        0.554874        0.567739 
       0.589034        0.544301        0.541919          0.5554 
       0.595184        0.532012        0.529289        0.540881 
       0.601379        0.519919        0.516989        0.530077 
       0.607522        0.508994        0.505196        0.517796 
       0.613639        0.498242        0.493832        0.506053 
       0.619772        0.485755          0.4828         0.49554 
       0.625918        0.475478        0.472091         0.48407 
       0.632068        0.465658        0.461706        0.473272 
       0.638161        0.455103        0.451728        0.463448 
         0.6443        0.445435        0.441975        0.453228 
       0.650464        0.435026        0.432475        0.444432 
       0.656582        0.426504        0.423322        0.434922 
       0.662703        0.417633        0.414429        0.425643 
       0.668861        0.409887        0.405741        0.417356 
       0.675024        0.400767        0.397295        0.408649 
       0.681124        0.391835        0.389175        0.400117 
       0.687237        0.384631        0.381268        0.391614 
       0.693381        0.377101        0.373546        0.383576 
       0.699536        0.368407        0.366028        0.376235 
       0.705665        0.361267        0.358752        0.369847 
       0.711789        0.354919        0.351682        0.362341 
       0.717957         0.34732        0.344757        0.354905 
        0.72409        0.340838        0.338059        0.348385 
       0.730186        0.333939         0.33158        0.341506 
       0.736317        0.328727        0.325236        0.334821 
       0.742472        0.322121        0.319036        0.329186 
       0.748622        0.315714        0.313004        0.323349 
        0.75476        0.309596        0.307142        0.316847 
       0.760888        0.303632        0.301439        0.311087 
       0.767043         0.29939         0.29586        0.305633 
       0.773185        0.293093        0.290434        0.300337 
       0.779291        0.287803        0.285175        0.294926 
       0.785407        0.282665         0.28004        0.289503 
       0.791564        0.277873           0.275        0.284446 
       0.797719        0.273193        0.270087        0.279083 
       0.803834         0.26846        0.265326        0.274421 
       0.809972        0.263442        0.260663        0.270139 
       0.816124         0.25875        0.256103        0.265042 
       0.822261        0.254039        0.251664        0.260358 
       0.828378         0.25002        0.247345         0.25614 
       0.834502        0.246117        0.243124        0.251606 
       0.840667        0.241319        0.238974         0.24762 
       0.846816        0.237415        0.234934        0.244034 
       0.852925         0.23402        0.231013        0.239625 
       0.859047        0.230071        0.227173        0.236189 
       0.865192         0.22583        0.223409        0.232016 
       0.871341        0.222144        0.219727        0.228175 
       0.877463        0.219083        0.216146        0.224345 
       0.883569        0.215237        0.212654         0.22113 
       0.889708        0.211875        0.209222        0.217624 
       0.895864        0.208338        0.205857        0.214004 
       0.902008        0.205014        0.202573        0.210721 
       0.908149        0.201726        0.199363        0.207433 
       0.914301        0.198093        0.196217        0.204136 
       0.920448        0.195233        0.193143        0.200981 
       0.926574        0.192211        0.190146        0.198093 
       0.932687        0.189065        0.187218        0.194701 
       0.938823        0.186755        0.184343        0.192325 
       0.944975        0.183818        0.181521        0.188964 
       0.951105        0.181105        0.178769        0.186206 
       0.957225        0.178681        0.176079        0.183655 
       0.963368        0.175785        0.173435        0.180803 
       0.969511        0.172951        0.170846        0.178249 
       0.975621        0.170402        0.168323        0.175313 
       0.981748        0.168362        0.165846        0.172755 
       0.987916        0.165673        0.163402        0.170723 
        0.99406        0.163188        0.161018        0.168432 
        1.00019        0.161078        0.158686        0.165934 
        1.00632        0.158367        0.156402        0.163334 
        1.01246        0.156096        0.154161        0.161021 
        1.01859        0.154092        0.151967        0.159029 
        1.02471        0.151873        0.149818         0.15677 
        1.03085        0.150147        0.147704        0.154316 
        1.03698        0.147736        0.145635        0.152148 
        1.04314        0.145738        0.143597        0.150126 
        1.04929        0.143568        0.141603        0.148156 
        1.05541        0.141882        0.139655        0.146307 
        1.06154        0.139737        0.137739        0.144309 
        1.06769        0.137742        0.135856        0.142401 
        1.07382        0.135907        0.134015        0.140447 
        1.07993        0.134008        0.132212        0.138564 
        1.08607        0.132606        0.130434        0.136916 
        1.09222        0.130592        0.128688        0.134871 
        1.09836        0.129159        0.126975        0.133241 
        1.10449         0.12745        0.125296        0.131548 
        1.11063        0.125492        0.123646        0.129655 
        1.11677        0.123768        0.122026        0.128203 
         1.1229        0.122372        0.120438         0.12652 
        1.12903        0.120721        0.118876        0.124888 
        1.13518        0.119236        0.117342        0.123272 
        1.14131         0.11764        0.115835        0.121785 
        1.14745        0.115823        0.114356        0.120022 
        1.15359        0.114581        0.112902        0.118771 
        1.15973         0.11299        0.111473        0.117345 
        1.16584        0.111833        0.110075        0.115692 
        1.17197        0.110446        0.108699         0.11445 
        1.17811        0.109224        0.107343        0.113102 
        1.18424        0.107942        0.106013        0.111556 
        1.19038        0.106432        0.104703        0.110217 
        1.19652        0.104909        0.103415        0.109015 
        1.20267        0.103957        0.102149        0.107487 
        1.20881        0.102639        0.100904         0.10633 
        1.21495        0.101555       0.0996822        0.105296 
        1.22108        0.100163       0.0984808        0.103801 
         1.2272       0.0991133       0.0973021        0.102529 
        1.23334       0.0978129         0.09614        0.101401 
        1.23949       0.0967055       0.0949941        0.100292 
        1.24562       0.0955409       0.0938702       0.0991275 
        1.25174       0.0944923       0.0927662       0.0979256 
        1.25789       0.0935438       0.0916765       0.0968309 
        1.26402       0.0921568       0.0906064       0.0957352 
        1.27014          0.0912       0.0895559       0.0945474 
        1.27628       0.0902553        0.088519       0.0934173 
        1.28244       0.0890014       0.0874965       0.0924357 
        1.28858       0.0881254       0.0864915       0.0913207 
        1.29471       0.0872936       0.0855046       0.0903572 
        1.30084       0.0861719        0.084534       0.0895125 
        1.30697        0.085157       0.0835771       0.0884543 
        1.31312       0.0840294       0.0826336       0.0874134 
        1.31925        0.083191       0.0817076       0.0865369 
        1.32537       0.0823807       0.0807968       0.0856208 
        1.33151       0.0815385       0.0798966        0.084681 
        1.33765       0.0806252       0.0790107       0.0837499 
        1.34378       0.0796144         0.07814       0.0828225 
        1.34992       0.0787543       0.0772819       0.0819467 
        1.35606       0.0779558       0.0764348       0.0809945 
         1.3622        0.077133       0.0756019       0.0801649 
        1.36833       0.0762175       0.0747835       0.0793854 
        1.37445       0.0752647       0.0739776       0.0785721 
        1.38059       0.0745715       0.0731811       0.0776947 
        1.38675       0.0739595       0.0723944       0.0768146 
        1.39288       0.0731342       0.0716225       0.0760015 
        1.39901       0.0722991       0.0708621       0.0752475 
        1.40515       0.0716702       0.0701111       0.0744541 
         1.4113       0.0707478       0.0693713       0.0737733 
        1.41742       0.0700516       0.0686449        0.073128 
        1.42355        0.069435       0.0679276        0.072107 
         1.4297       0.0685943       0.0672185       0.0715931 
        1.43585       0.0679383       0.0665197       0.0707553 
        1.44198       0.0673077       0.0658335       0.0698866 
        1.44809       0.0665416       0.0651583       0.0694346 
        1.45423       0.0659284       0.0644902       0.0685343 
        1.46036       0.0652187       0.0638325       0.0679195 
        1.46649       0.0647046       0.0631839       0.0673581 
        1.47263       0.0640073       0.0625437       0.0666261 
        1.47877       0.0631936       0.0619127       0.0660108 
        1.48491       0.0626936       0.0612895       0.0654143 
        1.49104       0.0619414       0.0606761       0.0645734 
        1.49718       0.0612953       0.0600707       0.0641558 
        1.50333       0.0608774       0.0594726       0.0633707 
        1.50947       0.0601876       0.0588838       0.0627182 
         1.5156       0.0595765       0.0583039       0.0622444 
        1.52172       0.0590503       0.0577318       0.0615662 
        1.52787       0.0584626       0.0571662       0.0609625 
          1.534       0.0578186       0.0566088       0.0604648 
        1.54013       0.0573018       0.0560595       0.0598669 
        1.54627       0.0568405       0.0555165       0.0592534 
        1.55241       0.0561726       0.0549805       0.0586974 
        1.55855       0.0556363       0.0544524       0.0581345 
        1.56467       0.0552926       0.0539327        0.057631 
         1.5708       0.0546611       0.0534183       0.0570398 
        1.57695       0.0541303       0.0529099       0.0564547 
        1.58308       0.0536345       0.0524092       0.0560105 
        1.58922       0.0531272       0.0519147       0.0555383 
        1.59535       0.0526424       0.0514267       0.0549862 
         1.6015       0.0521009       0.0509444       0.0544141 
        1.60764       0.0516849       0.0504684        0.053985 
        1.61376       0.0511358       0.0499999       0.0536173 
        1.61989       0.0507141       0.0495369        0.053081 
        1.62604       0.0502862       0.0490788       0.0525629 
        1.63218       0.0498149       0.0486267       0.0521099 
        1.63831       0.0493576       0.0481814        0.051638 
        1.64444       0.0489227       0.0477415       0.0511174 
        1.65059       0.0485082       0.0473061       0.0506842 
        1.65673       0.0480647       0.0468765       0.0502726 
        1.66285       0.0476822       0.0464535       0.0498268 
        1.66898       0.0472357       0.0460355       0.0493531 
        1.67512       0.0467435       0.0456219       0.0489179 
        1.68127       0.0463274        0.045213        0.048498 
         1.6874       0.0459859         0.04481       0.0481168 
        1.69353       0.0454828       0.0444122       0.0477567 
        1.69967       0.0452085       0.0440182       0.0472437 
        1.70581        0.044671       0.0436292       0.0467874 
        1.71193       0.0443427       0.0432464       0.0464273 
        1.71806       0.0439162       0.0428673       0.0460173 
        1.72421       0.0436543       0.0424921       0.0456811 
        1.73035       0.0431979       0.0421217       0.0452861 
        1.73649        0.042862       0.0417559       0.0448109 
        1.74262       0.0424799       0.0413947        0.044457 
        1.74876       0.0421019       0.0410375        0.044153 
        1.75489       0.0418144       0.0406853       0.0437848 
        1.76101       0.0414151       0.0403373       0.0433686 
        1.76715         0.04103       0.0399929       0.0430538 
        1.77329       0.0406405       0.0396521       0.0427218 
        1.77943       0.0403299       0.0393152       0.0423357 
        1.78557       0.0400577       0.0389826       0.0419512 
        1.79171        0.039728       0.0386539        0.041574 
        1.79785       0.0394007       0.0383288       0.0412471 
        1.80399       0.0390525       0.0380076        0.040964 
        1.81012       0.0387511       0.0376905       0.0405535 
        1.81625       0.0384111       0.0373771       0.0401975 
        1.82239       0.0380865       0.0370668       0.0399655 
        1.82853       0.0377817       0.0367602        0.039666 
        1.83466       0.0374547       0.0364574       0.0393055 
        1.84078       0.0371667       0.0361582       0.0389636 
        1.84692       0.0368152        0.035862       0.0386953 
        1.85306       0.0366021       0.0355687       0.0383428 
         1.8592       0.0362346       0.0352791       0.0379728 
        1.86533       0.0359933       0.0349929       0.0377228 
        1.87147       0.0356814       0.0347096       0.0374505 
