# k  (h/Mpc)    P(k)  (Mpc/h)^3    P_linear(k)  (Mpc/h)^3     P_NL(k)  ShotnoiseSubtracted = false
     0.00783031         7437.58         7534.57         7467.13 
       0.013688         8440.11         8396.01         8340.17 
       0.019231         7779.34         7752.49         7705.62 
      0.0249154         6460.55         6527.12         6500.37 
      0.0312784         5118.43         5121.18         5117.66 
      0.0375637         4063.84         4032.11         4034.89 
      0.0433917         3350.61         3355.64         3358.12 
      0.0492413         2952.37         2941.69         2944.76 
      0.0555754         2653.48         2679.46         2679.54 
      0.0619321         2515.47         2490.05         2488.05 
       0.067871         2283.43         2299.59          2297.5 
      0.0738098         2051.88         2064.83         2057.55 
      0.0800417         1768.31         1784.26         1783.97 
      0.0862327         1514.05         1510.87         1522.76 
      0.0921407          1312.3         1290.86         1306.83 
      0.0982031         1138.24         1125.22         1149.84 
       0.104506         1049.59         1016.33         1045.36 
       0.110769         981.042         955.412         975.897 
       0.116806         935.225         918.898         934.379 
       0.122832         901.657         883.225         897.035 
       0.129052         838.428         832.649         843.986 
       0.135211          774.49         765.379         778.694 
       0.141259         710.543         689.227          707.77 
       0.147318         642.163         613.974         640.596 
       0.153489         573.891         548.484         572.465 
       0.159709         529.463         499.264         526.707 
       0.165845         501.603         467.032         499.181 
       0.171974         474.911           446.8         474.572 
       0.178125         458.675         432.306         461.009 
       0.184229         442.605         417.745         443.272 
        0.19034         413.916         399.089         422.183 
       0.196428         398.233         375.509         396.265 
       0.202534         377.648         348.575         371.734 
       0.208729         349.197         321.078         345.134 
       0.214876         324.413         296.673         326.467 
       0.220989         308.164         277.049          308.45 
       0.227147         291.289         262.233         293.218 
        0.23329         279.302         251.388         283.258 
       0.239377         271.902         242.838          272.94 
       0.245482          255.56         234.713         261.212 
       0.251667         250.841          225.64         253.219 
       0.257832         240.828         215.289         241.478 
       0.263955         229.549         204.036         229.933 
       0.270079         218.245         192.596          219.29 
        0.27624         211.613         181.812         208.287 
       0.282372          202.61         172.416         200.237 
        0.28843         193.979         164.672         192.679 
       0.294538         185.061          158.23           186.1 
       0.300721         181.937         152.662         180.654 
        0.30691         173.592         147.517         175.342 
       0.313033         168.608         142.416         168.737 
       0.319153         160.981         137.092         163.094 
       0.325316         157.204         131.504         157.899 
        0.33145         150.483           125.9         151.387 
       0.337538         146.947         120.535         145.808 
       0.343633         141.189          115.56         141.905 
       0.349808          136.24         111.048         137.935 
       0.355968         133.299         107.049         134.375 
       0.362074         129.324         103.499         130.084 
       0.368217         125.171         100.184         125.508 
       0.374374         120.933         96.9835         122.061 
       0.380519         118.375          93.823         118.305 
       0.386598         114.883         90.6879         115.442 
       0.392688         112.442         87.5781         112.059 
        0.39888         109.243         84.4976         108.744 
       0.405048         106.002          81.572         106.102 
       0.411186         103.332         78.8538         103.323 
       0.417313           100.6          76.336         100.152 
       0.423458         97.9875         73.9889         97.8539 
       0.429607          95.474         71.7874          95.492 
       0.435692         92.2307          69.708          93.025 
       0.441815           91.14         67.6758         91.3336 
       0.447964          89.147          65.684         88.8746 
       0.454126         85.0187         63.7332          86.183 
       0.460267         83.8909         61.8387         84.9497 
       0.466387         82.2951         60.0178         82.6906 
        0.47254           80.28         58.2706         80.9327 
       0.478662         79.3181         56.6195         79.1985 
       0.484765         76.7248          55.055         76.8987 
       0.490885         75.1914         53.5623         75.6832 
       0.497035         74.0353         52.1281         74.3519 
       0.503198         71.7823         50.7446         72.6075 
       0.509342         70.2526         49.4067         71.2688 
       0.515458           68.93         48.1121         70.1687 
       0.521598         67.7042         46.8518         68.1476 
       0.527764         66.5314         45.6279         66.5779 
       0.533884         65.4234          44.456         65.4889 
           0.54         63.7917         43.3281         64.2292 
       0.546137         62.9659         42.2396         63.2401 
       0.552299         61.8604         41.1902          61.616 
       0.558452         60.3008         40.1831         60.3587 
       0.564573         59.1629         39.2166         59.6007 
       0.570708         58.1403          38.279         58.5516 
       0.576825         57.2049         37.3719         57.3357 
       0.582926         55.8672          36.494         56.2852 
       0.589034         54.7016         35.6419         55.6239 
       0.595184         53.8676         34.8113         54.4583 
       0.601379         52.9438         34.0023         53.7032 
       0.607522         51.7019         33.2266         52.4096 
       0.613639         51.3628         32.4792         51.7682 
       0.619772         50.2184         31.7537         50.8504 
       0.625918         49.4704         31.0494         50.1363 
       0.632068         48.8408         30.3663         49.2262 
       0.638161         48.0649         29.7101         48.5286 
         0.6443         47.3192         29.0686         47.6335 
       0.650464         46.5642         28.4438         46.6973 
       0.656582         45.8446         27.8418         46.2187 
       0.662703          44.915         27.2569         45.3379 
       0.668861         44.2842         26.6855         44.7959 
       0.675024         43.6154           26.13         43.9674 
       0.681124         42.9462          25.596          43.314 
       0.687237         42.0552         25.0759         42.6794 
       0.693381         41.6121         24.5681         41.9523 
       0.699536         40.9255         24.0736         41.5995 
       0.705665         40.9041          23.595           41.08 
       0.711789         39.7557         23.1301         40.1704 
       0.717957         39.2942         22.6746         39.7836 
        0.72409         38.7065          22.234         39.3411 
       0.730186         38.0426         21.8079         38.7848 
       0.736317         37.8531         21.3907         38.1399 
       0.742472          37.246         20.9829         37.6555 
       0.748622         36.7319         20.5862         37.1226 
        0.75476         36.2647         20.2007         36.6256 
       0.760888         35.6534         19.8256         36.1115 
       0.767043         35.2181         19.4586         35.8276 
       0.773185         34.7066         19.1018         35.3795 
       0.779291         34.4361         18.7559         34.9193 
       0.785407         34.1156         18.4182         34.3611 
       0.791564         33.5865         18.0867         33.9437 
       0.797719         32.8773         17.7636         33.6941 
       0.803834         32.7287         17.4504         33.1508 
       0.809972         32.0965         17.1437         32.7315 
       0.816124         31.7444         16.8438         32.3977 
       0.822261         31.4236         16.5519         31.9483 
       0.828378         31.2217         16.2678         31.4801 
       0.834502         30.7718         15.9902         31.2338 
       0.840667         30.3924         15.7173         30.9327 
       0.846816         29.8916         15.4515          30.562 
       0.852925         29.6444         15.1936         30.2346 
       0.859047         29.2088         14.9411         29.8318 
       0.865192           28.91         14.6935         29.5226 
       0.871341         28.7481         14.4514         29.1975 
       0.877463         28.1721         14.2159         28.8852 
       0.883569         27.8946         13.9862         28.6491 
       0.889708         27.6588         13.7605         28.2919 
       0.895864         27.3238         13.5391         27.9677 
       0.902008         27.0465         13.3232         27.6471 
       0.908149         26.7731          13.112         27.4503 
       0.914301         26.5803         12.9052         27.2283 
       0.920448         26.2624          12.703         26.8419 
       0.926574         25.9001         12.5058          26.543 
       0.932687         25.6786         12.3133         26.3096 
       0.938823         25.2789         12.1242         25.9574 
       0.944975          25.124         11.9386         25.7406 
       0.951105         24.8216         11.7576         25.5179 
       0.957225         24.5108         11.5806         25.2377 
       0.963368         24.5013         11.4068         24.9705 
       0.969511         24.1615         11.2365         24.7042 
       0.975621         23.9862         11.0706         24.5488 
       0.981748         23.6244         10.9076         24.3121 
       0.987916         23.3867         10.7469         24.1046 
        0.99406         23.2426         10.5901          23.819 
        1.00019         22.9496         10.4367         23.5863 
        1.00632         22.7768         10.2865         23.3855 
        1.01246         22.6565         10.1391         23.1599 
        1.01859         22.2632          9.9948         23.0254 
        1.02471         22.1535         9.85349         22.8172 
        1.03085          21.974         9.71444         22.5507 
        1.03698          21.637         9.57838         22.3359 
        1.04314         21.5023         9.44436         22.1063 
        1.04929         21.2793         9.31322         21.9778 
        1.05541         21.0387          9.1851         21.8646 
        1.06154         20.9639         9.05908         21.6009 
        1.06769         20.7274         8.93523         21.3887 
        1.07382         20.5847         8.81411         21.2328 
        1.07993         20.4266         8.69552         21.0343 
        1.08607           20.17         8.57862         20.8833 
        1.09222         20.0444         8.46376         20.7312 
        1.09836         19.8468         8.35114         20.5502 
        1.10449         19.6772         8.24071         20.3653 
        1.11063         19.4043         8.13216         20.1677 
        1.11677         19.3123          8.0256         19.9868 
         1.1229         19.1866         7.92115         19.8692 
        1.12903         18.9429         7.81847         19.7143 
        1.13518         18.8771         7.71753         19.5384 
        1.14131         18.7471         7.61843         19.3783 
        1.14745          18.479         7.52113         19.2599 
        1.15359         18.4441         7.42552         19.0594 
        1.15973         18.1928         7.33153         18.9497 
        1.16584         18.0383          7.2396         18.7724 
        1.17197         17.9832         7.14911         18.6802 
        1.17811         17.7727         7.05989         18.4775 
        1.18424         17.6284         6.97246         18.3412 
        1.19038         17.5382         6.88627         18.2617 
        1.19652         17.4464         6.80156         18.0573 
        1.20267         17.2909         6.71829          17.965 
        1.20881         17.1048         6.63643         17.8326 
        1.21495         16.9807         6.55607         17.7198 
        1.22108         16.8503         6.47705         17.5651 
         1.2272         16.6663         6.39953         17.4763 
        1.23334         16.6121         6.32309         17.3289 
        1.23949         16.5009         6.24773         17.1568 
        1.24562         16.3344         6.17381         17.0629 
        1.25174         16.2543          6.1012         16.9596 
        1.25789         16.1017         6.02954         16.8377 
        1.26402         16.0039         5.95915         16.6837 
        1.27014         15.8181         5.89006         16.5927 
        1.27628         15.7302         5.82186         16.4684 
        1.28244         15.6354         5.75462         16.3982 
        1.28858         15.5467         5.68852         16.2622 
        1.29471         15.4441         5.62361         16.1628 
        1.30084         15.3305         5.55977         16.0692 
        1.30697          15.193         5.49683         15.9182 
        1.31312         15.0544         5.43478         15.8227 
        1.31925         14.9623         5.37388         15.7276 
        1.32537         14.8791         5.31398         15.6419 
        1.33151         14.7666         5.25477         15.5355 
        1.33765         14.6931         5.19651         15.4194 
        1.34378         14.5668         5.13924         15.3412 
        1.34992         14.4337          5.0828         15.2474 
        1.35606         14.3737         5.02709         15.1397 
         1.3622         14.2836         4.97231         15.0465 
        1.36833         14.1378         4.91848         14.9728 
        1.37445         14.1197         4.86548         14.8606 
        1.38059         13.9791         4.81309         14.7698 
        1.38675         13.8157         4.76136         14.6942 
        1.39288         13.7962         4.71058         14.5846 
        1.39901         13.6846         4.66058         14.4911 
        1.40515         13.6083         4.61118         14.3923 
         1.4113         13.5103         4.56252         14.2974 
        1.41742         13.3842         4.51475         14.2336 
        1.42355         13.3514         4.46758         14.1669 
         1.4297         13.2728         4.42093         14.0431 
        1.43585         13.2089         4.37497         13.9799 
        1.44198         13.0714         4.32985         13.9021 
        1.44809         12.9833         4.28544         13.8268 
        1.45423         12.9146         4.24149         13.7097 
        1.46036         12.8581         4.19824         13.6333 
        1.46649           12.77         4.15558         13.5839 
        1.47263         12.6564         4.11348         13.5209 
        1.47877         12.6135         4.07198         13.4317 
        1.48491         12.5747         4.03098          13.352 
        1.49104         12.4713         3.99064         13.2685 
        1.49718         12.3564         3.95082         13.2054 
        1.50333         12.3106         3.91149         13.1273 
        1.50947         12.2481         3.87276         13.0577 
         1.5156         12.1657         3.83462         12.9931 
        1.52172         12.0738         3.79699         12.9109 
        1.52787         12.0208          3.7598          12.827 
          1.534         11.9351         3.72314          12.761 
        1.54013         11.8388         3.68701         12.6862 
        1.54627         11.7843          3.6513         12.6072 
        1.55241         11.6991         3.61605         12.5432 
        1.55855         11.6387         3.58131         12.4895 
        1.56467         11.5562         3.54713         12.4349 
         1.5708         11.5405          3.5133         12.3569 
        1.57695         11.4197         3.47986         12.2795 
        1.58308         11.3971         3.44693         12.2275 
        1.58922         11.3287         3.41441         12.1711 
        1.59535         11.2388         3.38231         12.0923 
         1.6015         11.1777         3.35059         12.0321 
        1.60764         11.1387         3.31929         11.9688 
        1.61376         11.0186         3.28847         11.8964 
        1.61989         10.9702         3.25802         11.8677 
        1.62604         10.9464         3.22789         11.8093 
        1.63218         10.8795         3.19816         11.7462 
        1.63831         10.8245         3.16887          11.702 
        1.64444          10.738         3.13994         11.6394 
        1.65059         10.6781          3.1113         11.5654 
        1.65673         10.6116         3.08305         11.5052 
        1.66285         10.5788         3.05523         11.4587 
        1.66898         10.5353         3.02774         11.4044 
        1.67512         10.4735         3.00053         11.3304 
        1.68127         10.4202         2.97364         11.2834 
         1.6874         10.3399         2.94714         11.2303 
        1.69353         10.2795         2.92097         11.1331 
        1.69967         10.2224         2.89506         11.0991 
        1.70581         10.1703         2.86947         11.0645 
        1.71193         10.1342          2.8443         11.0107 
        1.71806         10.0585         2.81936         10.9808 
        1.72421         10.0103         2.79468         10.9195 
        1.73035         9.94085         2.77033         10.8676 
        1.73649         9.92269         2.74627         10.8317 
        1.74262         9.87438         2.72251         10.7511 
        1.74876         9.82365         2.69902         10.6887 
        1.75489         9.76255         2.67585         10.6538 
        1.76101         9.69577         2.65297         10.6176 
        1.76715         9.66271         2.63031          10.561 
        1.77329         9.61397          2.6079         10.4974 
        1.77943         9.55434         2.58574          10.442 
        1.78557          9.5245         2.56387         10.3983 
        1.79171         9.46743         2.54225         10.3587 
        1.79785         9.38844         2.52087          10.318 
        1.80399         9.36459         2.49974         10.2739 
        1.81012         9.34546         2.47888         10.2272 
        1.81625         9.28522         2.45827         10.1856 
        1.82239         9.24443         2.43787         10.1464 
        1.82853         9.16848          2.4177         10.1007 
        1.83466         9.11111         2.39778         10.0578 
        1.84078         9.07133         2.37811         10.0118 
        1.84692         9.05337         2.35862         9.95047 
        1.85306         8.98105         2.33933         9.91212 
         1.8592         8.94923         2.32029          9.8858 
        1.86533         8.91231         2.30147         9.83526 
        1.87147         8.86676         2.28283         9.78159 
        1.87761         8.83495         2.26439         9.74505 
