# k  (h/Mpc)    Pcb(k)  (Mpc/h)^3    Pcb_linear(k) (Mpc/h)^3    Pcb_NL(k) (Mpc/h)^3   ShotnoiseSubtracted = false
     0.00783031         3553.04          3595.5         3563.54 
       0.013688         4014.63         4006.94         3981.69 
       0.019231         3708.23         3700.07         3679.53 
      0.0249154         3094.44         3115.36         3104.89 
      0.0312784          2446.7         2444.38         2445.38 
      0.0375637         1937.18          1924.6         1927.46 
      0.0433917         1602.06         1601.72         1604.55 
      0.0492413         1408.58         1404.14         1406.89 
      0.0555754         1271.52         1278.98         1279.67 
      0.0619321         1197.35         1188.58          1188.1 
       0.067871         1092.83         1097.67         1096.63 
      0.0738098         981.281         985.615         983.467 
      0.0800417         846.251         851.693         851.569 
      0.0862327         721.764         721.194         724.303 
      0.0921407          621.73         616.175         620.491 
      0.0982031         539.608         537.111         543.512 
       0.104506         494.164         485.136         492.445 
       0.110769         462.604         456.056         461.142 
       0.116806         441.511         438.627         442.261 
       0.122832         425.955         421.598         424.723 
       0.129052          397.87         397.457          399.91 
       0.135211         366.496         365.346         368.347 
       0.141259         333.801         328.996         333.301 
       0.147318         300.057         293.075         299.476 
       0.153489         267.824         261.814         267.584 
       0.159709         245.435          238.32         244.905 
       0.165845         231.763         222.934         230.662 
       0.171974          219.33         213.276         219.825 
       0.178125         212.358         206.358         213.094 
       0.184229         205.276         199.407         205.402 
        0.19034         193.035         190.501         195.869 
       0.196428         184.244         179.246         183.937 
       0.202534         173.728         166.389         171.685 
       0.208729         159.846         153.265         158.949 
       0.214876         147.677         141.615         148.742 
       0.220989         139.712         132.247          139.74 
       0.227147          131.49         125.175         132.461 
        0.23329         126.058         119.998         127.505 
       0.239377          122.31         115.917         123.041 
       0.245482         116.238         112.039         118.164 
       0.251667         113.282         107.708         114.137 
       0.257832         108.447         102.767         108.868 
       0.263955         103.014         97.3953         103.387 
       0.270079         97.7358         91.9341         98.0956 
        0.27624         93.7997         86.7866         92.8802 
       0.282372         89.4825         82.3016         88.8445 
        0.28843         85.2476          78.605         85.1996 
       0.294538         81.6356         75.5301         82.0245 
       0.300721         79.6946         72.8721         79.4104 
        0.30691         76.2937         70.4161         76.8777 
       0.313033         73.7461         67.9814         74.0499 
       0.319153         70.1599         65.4402         71.4636 
       0.325316         68.7015         62.7727         68.9337 
        0.33145         65.5508         60.0977          66.048 
       0.337538         63.4729         57.5367         63.4058 
       0.343633         60.8008         55.1617         61.1681 
       0.349808         58.7342         53.0078         59.2135 
       0.355968         57.0442         51.0995         57.5514 
       0.362074         55.1189         49.4047         55.5714 
       0.368217         53.2722         47.8222          53.585 
       0.374374         51.5913         46.2945          52.085 
       0.380519         50.2204         44.7855         50.3762 
       0.386598         48.6709         43.2894          48.913 
       0.392688         47.4566         41.8047         47.4452 
        0.39888         45.8577         40.3344         45.9224 
       0.405048         44.5138         38.9378         44.4335 
       0.411186         43.2431         37.6404          43.336 
       0.417313         41.8222         36.4385         41.9364 
       0.423458         40.6199         35.3181         40.8465 
       0.429607         39.4685         34.2673         39.6707 
       0.435692         38.1759         33.2746         38.6443 
       0.441815         37.4522         32.3047         37.7683 
       0.447964         36.6526         31.3538         36.6254 
       0.454126         35.0394         30.4226         35.5658 
       0.460267         34.4104         29.5183         34.8352 
       0.466387         33.3588         28.6491         33.7869 
        0.47254         32.6776         27.8151         33.0047 
       0.478662         32.0593          27.027         32.1657 
       0.484765          31.007         26.2802         31.2559 
       0.490885         30.2732         25.5676         30.6931 
       0.497035         29.7839          24.883         30.0527 
       0.503198         28.9104         24.2226         29.1832 
       0.509342         28.1456          23.584         28.5679 
       0.515458         27.4539          22.966         28.0524 
       0.521598         26.9308         22.3644          27.186 
       0.527764         26.3016         21.7802         26.4664 
       0.533884         25.8248         21.2208         25.9108 
           0.54         25.1406         20.6824          25.368 
       0.546137         24.7152         20.1628         24.8943 
       0.552299         24.2426         19.6619         24.1988 
       0.558452         23.4761         19.1812         23.6835 
       0.564573         23.0645         18.7198         23.3181 
       0.570708         22.6267         18.2722         22.8264 
       0.576825         22.0713         17.8393         22.3309 
       0.582926         21.5689         17.4202         21.8811 
       0.589034          20.972         17.0134         21.5406 
       0.595184         20.6775         16.6169         20.9686 
       0.601379         20.2066         16.2308         20.6828 
       0.607522         19.7982         15.8605         20.1603 
       0.613639         19.5564         15.5038         19.7919 
       0.619772         19.0363         15.1574         19.4626 
       0.625918         18.8576         14.8212         19.0989 
       0.632068         18.5421         14.4952         18.6863 
       0.638161         18.0912         14.1819         18.3474 
         0.6443         17.7167         13.8757         17.9676 
       0.650464         17.3454         13.5775         17.7034 
       0.656582         17.1989         13.2901         17.3893 
       0.662703          16.838         13.0109         17.0292 
       0.668861         16.4913         12.7382         16.8122 
       0.675024         16.1599          12.473         16.4189 
       0.681124         15.8695         12.2181          16.141 
       0.687237         15.5535         11.9698         15.8427 
       0.693381         15.3742         11.7274         15.5473 
       0.699536         14.9745         11.4914         15.3436 
       0.705665          14.877         11.2629         15.1334 
       0.711789         14.5045          11.041         14.7882 
       0.717957         14.2688         10.8236         14.5738 
        0.72409          14.048         10.6133         14.3663 
       0.730186         13.8266         10.4099         14.1048 
       0.736317         13.6466         10.2107         13.8629 
       0.742472         13.3891         10.0161         13.6854 
       0.748622         13.2179         9.82671         13.4428 
        0.75476         12.9525         9.64266         13.2404 
       0.760888         12.7282         9.46363         13.0591 
       0.767043         12.5467         9.28846         12.8658 
       0.773185         12.3074         9.11811         12.6545 
       0.779291         12.2083         8.95303          12.489 
       0.785407         12.0659         8.79181          12.276 
       0.791564         11.8228         8.63357         12.1029 
       0.797719          11.516         8.47932         11.9315 
       0.803834         11.4895         8.32985         11.7329 
       0.809972         11.3499         8.18346         11.5912 
       0.816124         11.0786         8.04029         11.4037 
       0.822261         10.9291         7.90095         11.2366 
       0.828378         10.8161         7.76534         11.0689 
       0.834502         10.6906         7.63282         10.9397 
       0.840667         10.5032         7.50255         10.7705 
       0.846816         10.2933          7.3757         10.6281 
       0.852925         10.1856         7.25259         10.5276 
       0.859047           10.05         7.13205          10.366 
       0.865192         9.93537         7.01387          10.216 
       0.871341          9.8182          6.8983         10.0993 
       0.877463         9.64115         6.78587         9.95672 
       0.883569         9.49537         6.67623         9.81537 
       0.889708         9.32501         6.56847         9.69473 
       0.895864         9.22203         6.46283         9.55424 
       0.902008         9.14299         6.35973         9.44849 
       0.908149         9.03301         6.25895         9.32629 
       0.914301         8.94596          6.1602          9.2518 
       0.920448          8.7704         6.06369         9.08767 
       0.926574         8.67009         5.96958         8.97626 
       0.932687         8.54516         5.87769         8.83116 
       0.938823         8.42901          5.7874         8.74075 
       0.944975         8.31934         5.69881         8.65065 
       0.951105         8.21977         5.61241         8.50877 
       0.957225         8.13454         5.52795         8.44014 
       0.963368         8.04922         5.44495         8.32556 
       0.969511         7.95359         5.36366         8.23015 
       0.975621         7.86935         5.28447         8.13133 
       0.981748         7.74079         5.20669         8.03803 
       0.987916         7.67414         5.12999          7.9323 
        0.99406          7.5604         5.05512         7.85197 
        1.00019         7.43554         4.98191         7.77294 
        1.00632         7.39291         4.91022         7.68217 
        1.01246          7.3127         4.83984         7.61875 
        1.01859         7.17904         4.77096         7.51742 
        1.02471         7.13383         4.70351         7.40403 
        1.03085         7.05129         4.63713         7.33212 
        1.03698         6.92189         4.57218         7.26104 
        1.04314         6.87774         4.50821         7.17354 
        1.04929         6.78173         4.44561         7.10798 
        1.05541         6.68741         4.38445         7.04414 
        1.06154         6.64045          4.3243         6.94855 
        1.06769         6.59097         4.26518         6.86645 
        1.07382         6.49853         4.20736         6.80418 
        1.07993         6.41867         4.15075         6.72987 
        1.08607         6.35158         4.09495          6.6669 
        1.09222          6.2908         4.04013         6.60087 
        1.09836          6.2048         3.98637         6.51117 
        1.10449         6.15335         3.93365         6.44803 
        1.11063         6.06221         3.88184         6.38835 
        1.11677         6.02659         3.83097         6.31559 
         1.1229         5.98031         3.78111         6.26432 
        1.12903          5.8902          3.7321         6.21134 
        1.13518         5.80699         3.68392         6.13875 
        1.14131         5.76939         3.63661         6.07177 
        1.14745          5.7043         3.59017         6.01385 
        1.15359         5.66008         3.54453         5.95018 
        1.15973         5.58528         3.49966         5.89202 
        1.16584         5.50389         3.45578         5.84508 
        1.17197         5.46742         3.41258         5.79929 
        1.17811         5.42538            3.37         5.72095 
        1.18424         5.36464         3.32827         5.67055 
        1.19038         5.32893         3.28712          5.6199 
        1.19652         5.26236         3.24669         5.56126 
        1.20267          5.2047         3.20694         5.51513 
        1.20881         5.17711         3.16786         5.46752 
        1.21495         5.12384          3.1295         5.41606 
        1.22108         5.05307         3.09178         5.36945 
         1.2272         5.00544         3.05478         5.30897 
        1.23334         4.95618         3.01829         5.26938 
        1.23949         4.90067         2.98232         5.22376 
        1.24562         4.86936         2.94703          5.1726 
        1.25174          4.8286         2.91237          5.1276 
        1.25789         4.77833         2.87816         5.07454 
        1.26402          4.7516         2.84457         5.03145 
        1.27014         4.69647         2.81159         4.99069 
        1.27628         4.63873         2.77903         4.93815 
        1.28244         4.58765         2.74693         4.90434 
        1.28858         4.58102         2.71538         4.85927 
        1.29471         4.51906          2.6844         4.82366 
        1.30084         4.46537         2.65393         4.79233 
        1.30697         4.44824         2.62388         4.73513 
        1.31312         4.37672         2.59426         4.69741 
        1.31925         4.33586         2.56519         4.67072 
        1.32537         4.30645          2.5366         4.63274 
        1.33151         4.28447         2.50834         4.58936 
        1.33765         4.23255         2.48052         4.54307 
        1.34378          4.1956         2.45319         4.50658 
        1.34992         4.15858         2.42625         4.47514 
        1.35606         4.12565         2.39965         4.43393 
         1.3622         4.09603          2.3735         4.39285 
        1.36833         4.04187         2.34781         4.37578 
        1.37445         4.01706         2.32251         4.33284 
        1.38059         3.99108          2.2975         4.28935 
        1.38675         3.94914         2.27281         4.26377 
        1.39288         3.93123         2.24857         4.23348 
        1.39901         3.87769          2.2247         4.19767 
        1.40515          3.8543         2.20112         4.16296 
         1.4113         3.81762         2.17789         4.13133 
        1.41742         3.78488         2.15509         4.10169 
        1.42355          3.7483         2.13257         4.07053 
         1.4297         3.72942         2.11031         4.03496 
        1.43585         3.70198         2.08837         4.00984 
        1.44198         3.67526         2.06683         3.97552 
        1.44809         3.63842         2.04563         3.94586 
        1.45423         3.60451         2.02465         3.91818 
        1.46036         3.57045         2.00401         3.88752 
        1.46649         3.55141         1.98364         3.86109 
        1.47263         3.51351         1.96355         3.83537 
        1.47877         3.48581         1.94374         3.79785 
        1.48491         3.46344         1.92417         3.77385 
        1.49104         3.43673         1.90491         3.75016 
        1.49718         3.40743          1.8859         3.72034 
        1.50333         3.38232         1.86713         3.69292 
        1.50947          3.3465         1.84864          3.6681 
         1.5156         3.33015         1.83044         3.64431 
        1.52172         3.30801         1.81247         3.61837 
        1.52787          3.2785         1.79472         3.58367 
          1.534         3.25132         1.77722         3.56101 
        1.54013         3.22826         1.75997         3.53522 
        1.54627         3.19795         1.74293         3.50949 
        1.55241          3.1708          1.7261         3.48821 
        1.55855         3.15552         1.70952         3.45855 
        1.56467         3.12759          1.6932         3.43982 
         1.5708         3.10983         1.67705         3.42214 
        1.57695         3.08262         1.66109         3.39213 
        1.58308         3.05112         1.64537         3.36773 
        1.58922          3.0417         1.62985         3.35282 
        1.59535          3.0215         1.61453          3.3328 
         1.6015         2.98809         1.59939         3.30575 
        1.60764         2.96402         1.58444         3.28045 
        1.61376         2.95033         1.56973          3.2616 
        1.61989         2.92332          1.5552         3.24162 
        1.62604         2.90687         1.54082         3.21965 
        1.63218         2.89253         1.52662         3.20081 
        1.63831           2.862         1.51264         3.18142 
        1.64444         2.84617         1.49883         3.15531 
        1.65059         2.81248         1.48516         3.13563 
        1.65673         2.81057         1.47168         3.11676 
        1.66285         2.77781         1.45839         3.09595 
        1.66898         2.75832         1.44527         3.07464 
        1.67512          2.7447         1.43229         3.05542 
        1.68127         2.72305         1.41945         3.03818 
         1.6874         2.70565          1.4068         3.02272 
        1.69353         2.68064         1.39431         3.00577 
        1.69967         2.67192         1.38194         2.98012 
        1.70581         2.65372         1.36973         2.96097 
        1.71193         2.62796         1.35771         2.94826 
        1.71806         2.61255         1.34581         2.92777 
        1.72421         2.59655         1.33403         2.90881 
        1.73035         2.57952          1.3224          2.8915 
        1.73649         2.56121         1.31091         2.87375 
        1.74262         2.53973         1.29957         2.85686 
        1.74876         2.52817         1.28836         2.84032 
        1.75489         2.51167          1.2773         2.82128 
        1.76101         2.49111         1.26638         2.80126 
        1.76715         2.47702         1.25557         2.78781 
        1.77329         2.45867         1.24487         2.77244 
        1.77943         2.43903         1.23429         2.75419 
        1.78557          2.4266         1.22385          2.7373 
        1.79171         2.41238         1.21353         2.71964 
        1.79785         2.39397         1.20332         2.70284 
        1.80399         2.37939         1.19324         2.68935 
        1.81012         2.36265         1.18328         2.67653 
        1.81625          2.3488         1.17344         2.66139 
        1.82239          2.3356          1.1637         2.64579 
        1.82853         2.31328         1.15408         2.63309 
        1.83466         2.30218         1.14457         2.61901 
        1.84078         2.29306         1.13518         2.60249 
        1.84692         2.27966         1.12588         2.58605 
        1.85306         2.25938         1.11667         2.56852 
         1.8592         2.24418         1.10758         2.55353 
        1.86533         2.22898         1.09859          2.5424 
        1.87147         2.21652          1.0897         2.52742 
