# k  (h/Mpc)    P(k)  (Mpc/h)^3    P_linear(k)  (Mpc/h)^3     P_NL(k)  ShotnoiseSubtracted = false
     0.00783031         1224.47            1238         1226.92 
       0.013688         1378.38         1380.04         1371.59 
       0.019231         1275.57          1274.5         1267.78 
      0.0249154         1068.97         1073.16         1069.97 
      0.0312784           843.6         842.054         842.881 
      0.0375637         666.427          663.01          664.29 
      0.0433917         552.618          551.79         553.063 
      0.0492413         485.011         483.729         484.876 
      0.0555754         439.371         440.615         440.925 
      0.0619321         411.227         409.472         409.328 
       0.067871         377.115         378.155          377.72 
      0.0738098         338.519         339.552         339.011 
      0.0800417         292.208         293.416         293.309 
      0.0862327         248.486         248.458         248.937 
      0.0921407         213.137         212.279         213.019 
      0.0982031         185.262         185.041         186.075 
       0.104506         168.616         167.135          168.23 
       0.110769         158.059         157.117         157.853 
       0.116806          151.18         151.112         151.541 
       0.122832         145.712         145.246         145.544 
       0.129052         136.645         136.929          137.11 
       0.135211         125.653         125.867         126.135 
       0.141259          113.83         113.343         113.821 
       0.147318         101.914         100.968         101.766 
       0.153489         90.9501         90.1985         90.9471 
       0.159709         82.9651         82.1042         82.9628 
       0.165845         78.0793         76.8037         77.7935 
       0.171974         74.0585         73.4766         74.2881 
       0.178125         71.7331         71.0932         71.9037 
       0.184229         69.3783         68.6986         69.3988 
        0.19034         65.6754         65.6305          66.243 
       0.196428         62.2307         61.7529         62.2748 
       0.202534         58.3229         57.3235          57.933 
       0.208729           53.56         52.8017         53.4871 
       0.214876         49.3835         48.7883         49.6664 
       0.220989         46.5083         45.5612         46.4887 
       0.227147         43.7535         43.1246          44.014 
        0.23329         41.9358         41.3411         42.2544 
       0.239377         40.5696         39.9351         40.7978 
       0.245482         38.9292         38.5989         39.3204 
       0.251667         37.7036         37.1068         37.8674 
       0.257832         35.9607         35.4046          36.125 
       0.263955         34.1321          33.554         34.2588 
       0.270079         32.3071         31.6727         32.3986 
        0.27624         30.7464         29.8993           30.62 
       0.282372         29.2287         28.3541         29.1471 
        0.28843         27.8127         27.0806         27.8823 
       0.294538         26.6871         26.0212         26.7989 
       0.300721         25.9115         25.1055         25.8862 
        0.30691         24.8893         24.2594         25.0287 
       0.313033         24.0172         23.4205         24.1369 
       0.319153         22.8992         22.5451         23.2595 
       0.325316         22.3237         21.6261         22.3599 
        0.33145          21.315         20.7045         21.4135 
       0.337538         20.4777         19.8222         20.5213 
       0.343633         19.5807          19.004         19.7044 
       0.349808         18.8988          18.262         18.9959 
       0.355968         18.2711         17.6045         18.3901 
       0.362074         17.6327         17.0207         17.7537 
       0.368217          17.054         16.4755         17.1443 
       0.374374         16.4687         15.9491         16.6359 
       0.380519         16.0033         15.4294          16.082 
       0.386598         15.5011         14.9138         15.5748 
       0.392688          15.057         14.4024         15.0646 
        0.39888         14.5005         13.8958         14.5628 
       0.405048         14.0465         13.4147         14.0439 
       0.411186          13.602         12.9677         13.6426 
       0.417313         13.1331         12.5536         13.2081 
       0.423458         12.7541         12.1676         12.8241 
       0.429607         12.3521         11.8056         12.4353 
       0.435692         11.9902         11.4636         12.0967 
       0.441815         11.6673         11.1294         11.7787 
       0.447964          11.396         10.8019         11.4195 
       0.454126         10.9695          10.481         11.0899 
       0.460267         10.6949         10.1695         10.8012 
       0.466387         10.3334         9.87005         10.4692 
        0.47254         10.0903         9.58271         10.1885 
       0.478662         9.85397         9.31119         9.90384 
       0.484765         9.53223         9.05391         9.63409 
       0.490885         9.29623         8.80842         9.42192 
       0.497035         9.12241         8.57258         9.19326 
       0.503198         8.85557         8.34506         8.91976 
       0.509342         8.63154         8.12503         8.70445 
       0.515458         8.38471         7.91214         8.51086 
       0.521598         8.19014         7.70488          8.2597 
       0.527764         7.96274          7.5036         8.04899 
       0.533884         7.81276         7.31088         7.85082 
           0.54         7.60511         7.12539         7.66051 
       0.546137         7.43549         6.94639         7.49476 
       0.552299         7.26585         6.77382         7.28313 
       0.558452         7.04418          6.6082         7.12279 
       0.564573         6.91864         6.44924         6.98968 
       0.570708         6.75735         6.29506         6.82197 
       0.576825         6.57667         6.14588         6.66023 
       0.582926         6.44449         6.00152         6.51881 
       0.589034         6.24731         5.86139         6.39412 
       0.595184         6.13441         5.72478         6.20775 
       0.601379         5.98412         5.59175         6.11301 
       0.607522         5.87999         5.46419         5.96641 
       0.613639         5.77546         5.34128         5.83397 
       0.619772         5.61103         5.22196         5.72815 
       0.625918         5.53361         5.10613          5.5932 
       0.632068         5.43395          4.9938          5.4685 
       0.638161          5.2835         4.88588         5.36075 
         0.6443         5.17111          4.7804         5.24241 
       0.650464         5.04626         4.67765         5.15771 
       0.656582         4.98596         4.57865         5.04864 
       0.662703         4.87757         4.48246         4.94114 
       0.668861         4.78566         4.38849         4.85867 
       0.675024         4.67566         4.29713         4.75187 
       0.681124         4.58289         4.20931          4.6557 
       0.687237         4.50047         4.12379         4.55491 
       0.693381         4.41614         4.04027         4.46353 
       0.699536         4.29631         3.95895         4.38521 
       0.705665         4.22949         3.88025         4.32629 
       0.711789         4.15262         3.80379         4.23362 
       0.717957         4.06434         3.72889         4.14612 
        0.72409         3.98641         3.65644         4.07957 
       0.730186         3.92448         3.58636         3.99793 
       0.736317         3.87203         3.51775         3.92043 
       0.742472         3.80017         3.45069         3.86663 
       0.748622         3.72319         3.38545         3.79945 
        0.75476         3.63827         3.32204         3.72303 
       0.760888          3.5789         3.26036         3.66155 
       0.767043         3.53095         3.20002         3.60278 
       0.773185         3.45012         3.14133         3.54337 
       0.779291         3.40679         3.08445         3.48362 
       0.785407         3.34409         3.02891         3.41835 
       0.791564         3.29067         2.97439         3.36284 
       0.797719         3.22898         2.92125         3.29973 
       0.803834         3.19221         2.86976          3.2471 
       0.809972         3.13979         2.81932         3.20638 
       0.816124         3.06901            2.77         3.14323 
       0.822261         3.00996           2.722         3.08985 
       0.828378         2.97105         2.67528         3.04361 
       0.834502         2.93697         2.62962         2.99188 
       0.840667          2.8698         2.58474         2.94561 
       0.846816         2.81866         2.54104         2.90623 
       0.852925         2.79049         2.49863          2.8587 
       0.859047         2.74141          2.4571         2.82127 
       0.865192         2.70328         2.41638         2.77301 
       0.871341         2.66476         2.37657         2.73227 
       0.877463         2.62137         2.33783         2.68581 
       0.883569         2.57062         2.30006         2.64862 
       0.889708         2.52855         2.26294         2.61018 
       0.895864         2.48957         2.22654         2.56801 
       0.902008         2.45486         2.19102          2.5326 
       0.908149         2.42415          2.1563         2.49151 
       0.914301         2.37653         2.12228         2.45994 
       0.920448         2.34034         2.08903         2.41823 
       0.926574         2.30393         2.05661          2.3907 
       0.932687         2.27246         2.02495          2.3423 
       0.938823         2.24215         1.99385         2.32138 
       0.944975         2.21074         1.96333           2.283 
       0.951105          2.1794         1.93356         2.25007 
       0.957225         2.16217         1.90446         2.22314 
       0.963368         2.12561         1.87587         2.18871 
       0.969511         2.09019         1.84786         2.16111 
       0.975621         2.05832         1.82058         2.12519 
       0.981748         2.03517         1.79378         2.09561 
       0.987916         2.00431         1.76736         2.07361 
        0.99406         1.96785         1.74157         2.04774 
        1.00019         1.94442         1.71634         2.02222 
        1.00632         1.91828         1.69164         1.99077 
        1.01246         1.89289          1.6674         1.96648 
        1.01859         1.86807         1.64367         1.93918 
        1.02471         1.84297         1.62043         1.90855 
        1.03085         1.81648         1.59756         1.88389 
        1.03698         1.78981         1.57519         1.86216 
        1.04314         1.76977         1.55315         1.83718 
        1.04929         1.74606         1.53158         1.81467 
        1.05541         1.72252         1.51051         1.79416 
        1.06154         1.69994         1.48979          1.7714 
        1.06769         1.68384         1.46942         1.75157 
        1.07382         1.65635          1.4495         1.72674 
        1.07993         1.63037            1.43         1.70311 
        1.08607         1.61962         1.41077         1.68703 
        1.09222         1.59414         1.39188         1.66221 
        1.09836         1.57705         1.37336         1.64041 
        1.10449         1.55886          1.3552         1.62417 
        1.11063          1.5331         1.33735          1.6005 
        1.11677         1.51578         1.31983         1.58348 
         1.1229          1.4968         1.30265         1.56678 
        1.12903         1.47661         1.28577         1.54814 
        1.13518         1.46115         1.26917         1.52832 
        1.14131         1.43808         1.25287          1.5082 
        1.14745         1.41421         1.23687         1.48895 
        1.15359         1.40482         1.22114         1.47712 
        1.15973          1.3818         1.20569         1.45812 
        1.16584         1.37216         1.19057         1.44072 
        1.17197         1.35401         1.17569         1.42518 
        1.17811         1.34159         1.16102          1.4091 
        1.18424         1.32527         1.14664         1.39042 
        1.19038         1.30827         1.13246         1.37506 
        1.19652         1.29341         1.11853         1.36277 
        1.20267         1.28005         1.10484         1.34363 
        1.20881         1.26256         1.09138          1.3291 
        1.21495         1.25051         1.07816         1.31862 
        1.22108         1.23569         1.06517         1.30182 
         1.2272         1.22364         1.05242         1.28508 
        1.23334         1.20543         1.03985         1.27426 
        1.23949         1.19153         1.02745         1.26267 
        1.24562         1.18113          1.0153         1.24826 
        1.25174         1.16627         1.00336         1.23161 
        1.25789         1.15452        0.991571         1.21798 
        1.26402         1.13863        0.979997         1.20451 
        1.27014         1.12623        0.968635         1.19386 
        1.27628         1.11865        0.957419         1.18046 
        1.28244         1.10114         0.94636         1.16697 
        1.28858         1.09179         0.93549         1.15456 
        1.29471          1.0778        0.924816         1.14237 
        1.30084         1.06444        0.914318         1.13401 
        1.30697         1.05699        0.903968         1.12034 
        1.31312         1.03907        0.893763         1.10818 
        1.31925         1.03171        0.883748         1.10053 
        1.32537         1.02019        0.873896         1.08851 
        1.33151         1.01285         0.86416         1.07688 
        1.33765        0.998594        0.854578         1.06653 
        1.34378        0.988635        0.845161         1.05606 
        1.34992        0.980806        0.835879         1.04488 
        1.35606        0.965105        0.826717         1.03243 
         1.3622        0.959157        0.817709         1.02263 
        1.36833        0.947821        0.808856         1.01615 
        1.37445        0.936185         0.80014         1.00544 
        1.38059        0.929792        0.791525        0.995122 
        1.38675        0.923173        0.783017        0.983098 
        1.39288        0.910868        0.774667        0.976285 
        1.39901        0.899396        0.766443        0.966304 
        1.40515        0.890875         0.75832        0.956092 
         1.4113        0.882652        0.750318        0.948514 
        1.41742        0.874466        0.742462        0.940456 
        1.42355        0.867844        0.734704        0.927466 
         1.4297        0.856298        0.727033        0.923741 
        1.43585        0.849107        0.719475        0.914442 
        1.44198        0.842529        0.712054        0.903184 
        1.44809        0.831583        0.704751        0.896813 
        1.45423        0.823782        0.697524        0.886271 
        1.46036         0.81515        0.690411        0.878574 
        1.46649        0.807929        0.683395        0.872238 
        1.47263        0.798579        0.676472        0.864057 
        1.47877        0.790404        0.669647        0.854926 
        1.48491        0.783535        0.662905        0.848691 
        1.49104        0.776454        0.656271        0.838818 
        1.49718        0.769665        0.649723        0.833209 
        1.50333        0.760582        0.643254        0.825291 
        1.50947        0.754959        0.636886        0.816719 
         1.5156        0.747027        0.630613        0.810509 
        1.52172        0.739604        0.624425        0.804498 
        1.52787         0.73229        0.618308        0.795145 
          1.534        0.726007         0.61228         0.78908 
        1.54013        0.718426        0.606338        0.782201 
        1.54627        0.710995        0.600465        0.774243 
        1.55241         0.70457        0.594668        0.768026 
        1.55855        0.699253        0.588956        0.761485 
        1.56467        0.693155        0.583335        0.755455 
         1.5708        0.684613        0.577771        0.748118 
        1.57695        0.680809        0.572272        0.741864 
        1.58308        0.673681        0.566857         0.73672 
        1.58922        0.667645        0.561508        0.729778 
        1.59535         0.66148         0.55623        0.723926 
         1.6015        0.655257        0.551013        0.717615 
        1.60764        0.650772        0.545865        0.711557 
        1.61376         0.64443        0.540798        0.706763 
        1.61989        0.638175         0.53579        0.700897 
        1.62604        0.631544        0.530835        0.695014 
        1.63218        0.628086        0.525945         0.68954 
        1.63831        0.621513        0.521129        0.683725 
        1.64444        0.615737        0.516371        0.677319 
        1.65059         0.61079        0.511661        0.671963 
        1.65673        0.604438        0.507015        0.666574 
        1.66285        0.599336         0.50244        0.660723 
        1.66898        0.595992        0.497919        0.655011 
        1.67512        0.588055        0.493446        0.650407 
        1.68127        0.583792        0.489023        0.646095 
         1.6874        0.580873        0.484664         0.64129 
        1.69353         0.57348        0.480361        0.635689 
        1.69967        0.568051          0.4761        0.629973 
        1.70581        0.565383        0.471892        0.625616 
        1.71193        0.559467        0.467752        0.621522 
        1.71806        0.555821        0.463652         0.61544 
        1.72421        0.550633        0.459593        0.610534 
        1.73035        0.544752        0.455587        0.606096 
        1.73649        0.541663         0.45163        0.601146 
        1.74262        0.536876        0.447724         0.59654 
        1.74876        0.531746         0.44386        0.592869 
        1.75489        0.526108        0.440051        0.588562 
        1.76101        0.522719        0.436287        0.583092 
        1.76715        0.518691        0.432562        0.578605 
        1.77329        0.514771        0.428876        0.574501 
        1.77943        0.508959        0.425232        0.569965 
        1.78557        0.505195        0.421635        0.565169 
        1.79171        0.502535        0.418079        0.560876 
        1.79785        0.497075        0.414563        0.557084 
        1.80399        0.493626        0.411089        0.553151 
        1.81012        0.489689        0.407659        0.548293 
        1.81625        0.485311         0.40427        0.543965 
        1.82239        0.482018        0.400914        0.540829 
        1.82853         0.47634        0.397597        0.537695 
        1.83466        0.473434        0.394322        0.533873 
        1.84078        0.469341        0.391086        0.529529 
        1.84692        0.467008        0.387882        0.525296 
        1.85306        0.462932         0.38471        0.520927 
         1.8592        0.458942        0.381578        0.517261 
        1.86533        0.455098        0.378482        0.514336 
        1.87147         0.45169        0.375418        0.510036 
        1.87761        0.447903        0.372386        0.506217 
