# k  (h/Mpc)    Pcb(k)  (Mpc/h)^3    Pcb_linear(k) (Mpc/h)^3    Pcb_NL(k) (Mpc/h)^3   ShotnoiseSubtracted = false
     0.00783031         26540.3         26984.4         26719.6 
       0.013688         30557.2         30143.6         29888.2 
       0.019231           27999         27846.7         27609.1 
      0.0249154         22931.7         23449.1           23264 
      0.0312784           18257         18399.5         18282.6 
      0.0375637         14632.9         14487.1         14436.1 
      0.0433917         11958.2         12056.7         12000.2 
      0.0492413         10608.4         10569.5         10524.7 
      0.0555754         9397.87         9627.34         9592.01 
      0.0619321         9060.18          8946.8         8908.39 
       0.067871         8099.38         8262.48         8238.61 
      0.0738098         7304.59         7418.99         7328.21 
      0.0800417         6294.15          6410.9         6392.21 
      0.0862327         5460.58         5428.59         5538.95 
      0.0921407         4839.88         4638.09         4788.92 
      0.0982031         4217.59         4042.95         4288.15 
       0.104506         3950.63         3651.72         3949.21 
       0.110769         3678.04         3432.82         3652.24 
       0.116806         3519.51         3301.62         3472.58 
       0.122832         3359.75         3173.44         3323.31 
       0.129052         3091.89         2991.73         3120.66 
       0.135211          2875.9         2750.02         2891.44 
       0.141259         2701.18          2476.4          2676.9 
       0.147318         2492.17         2206.02         2474.98 
       0.153489         2247.33         1970.71         2225.66 
       0.159709         2105.79         1793.86         2087.23 
       0.165845         2020.51         1678.05         2008.91 
       0.171974         1929.13         1605.36         1908.77 
       0.178125         1840.03         1553.28         1860.78 
       0.184229         1752.69         1500.96         1772.24 
        0.19034         1660.25         1433.93         1685.47 
       0.196428         1606.44         1349.21         1596.43 
       0.202534         1531.15         1252.43         1518.76 
       0.208729         1444.01         1153.64         1416.73 
       0.214876         1381.74         1065.95         1370.56 
       0.220989         1323.51         995.441         1319.42 
       0.227147          1272.6         942.204          1274.7 
        0.23329         1219.47         903.237         1239.65 
       0.239377         1196.22          872.52         1191.31 
       0.245482         1121.02         843.326         1140.95 
       0.251667         1112.06         810.728         1110.13 
       0.257832         1062.13         773.539         1063.02 
       0.263955         1022.55         733.104         1022.59 
       0.270079         982.515         691.997         986.404 
        0.27624          966.58         653.251         949.237 
       0.282372         927.386         619.492         927.467 
        0.28843         916.453         591.668         906.488 
       0.294538         868.049         568.523         877.316 
       0.300721          859.79         548.516          851.55 
        0.30691         827.391         530.029         839.339 
       0.313033         808.416         511.703         809.093 
       0.319153         790.458         492.574         784.776 
       0.325316         766.219         472.496         766.239 
        0.33145         745.901         452.361         737.071 
       0.337538         728.203         433.084          720.66 
       0.343633         712.658         415.207         710.036 
       0.349808         684.983         398.994         696.864 
       0.355968         679.003         384.631         680.692 
       0.362074         671.438         371.874          667.62 
       0.368217         648.873         359.962         650.322 
       0.374374         623.561         348.463         635.205 
       0.380519         622.575         337.105         620.269 
       0.386598         602.282         325.843         612.894 
       0.392688         598.438         314.668          597.17 
        0.39888         579.995           303.6          584.03 
       0.405048         572.318         293.088         571.806 
       0.411186         563.607         283.322         560.856 
       0.417313         552.004         274.276         551.359 
       0.423458         538.066         265.842         541.037 
       0.429607         533.478         257.933         532.514 
       0.435692         519.032          250.46         517.597 
       0.441815         512.439          243.16         513.581 
       0.447964         502.257         236.003         506.718 
       0.454126         496.788         228.994         492.022 
       0.460267         483.877         222.187         488.904 
       0.466387         476.826         215.645         480.841 
        0.47254         474.335         209.367         472.198 
       0.478662         467.174         203.434         463.336 
       0.484765         451.618         197.813         457.002 
       0.490885         447.313          192.45         447.958 
       0.497035         438.208         187.297         442.812 
       0.503198         434.248         182.325         437.265 
       0.509342         431.314         177.519         429.178 
       0.515458         426.598         172.867         424.169 
       0.521598         413.623         168.339         418.904 
       0.527764         409.534         163.941         415.057 
       0.533884         404.646         159.731         409.406 
           0.54         399.668         155.678         402.792 
       0.546137         396.171         151.767         397.961 
       0.552299         390.485         147.997         392.225 
       0.558452         386.579         144.378         387.842 
       0.564573         382.102         140.905           384.2 
       0.570708         375.655         137.536         378.936 
       0.576825         368.131         134.277         372.664 
       0.582926         366.469         131.123         369.832 
       0.589034         361.639         128.062         364.585 
       0.595184         359.433         125.077         359.259 
       0.601379         351.513          122.17         355.079 
       0.607522         348.251         119.383          349.34 
       0.613639         344.891         116.698         348.716 
       0.619772         340.761         114.091         346.415 
       0.625918         337.987          111.56         340.612 
       0.632068         331.933         109.106         338.038 
       0.638161          329.49         106.748         334.583 
         0.6443         325.587         104.444         330.202 
       0.650464         322.807         102.199         324.774 
       0.656582         317.776         100.036         322.721 
       0.662703          317.48         97.9343         319.784 
       0.668861         313.242         95.8811         318.292 
       0.675024          309.68         93.8852         315.052 
       0.681124         306.243         91.9664         310.343 
       0.687237         303.821         90.0978         306.978 
       0.693381         298.908         88.2731         303.908 
       0.699536         295.027         86.4965         301.942 
       0.705665         293.232          84.777         297.175 
       0.711789         292.112         83.1064         295.699 
       0.717957         288.994           81.47          294.44 
        0.72409         287.366          79.887         290.123 
       0.730186         283.086          78.356         286.989 
       0.736317         280.932         76.8569         285.451 
       0.742472         277.661         75.3918         283.245 
       0.748622         275.765         73.9664         279.806 
        0.75476         272.012         72.5811         279.891 
       0.760888         269.162         71.2335         276.129 
       0.767043         268.266          69.915             273 
       0.773185         266.001         68.6327         271.185 
       0.779291         262.418         67.3901         268.401 
       0.785407         261.399         66.1766         266.254 
       0.791564         258.739         64.9855          264.25 
       0.797719         256.299         63.8245         262.112 
       0.803834         252.857         62.6994         260.512 
       0.809972         252.092         61.5975         258.104 
       0.816124          250.62         60.5198          255.58 
       0.822261         248.691          59.471         254.586 
       0.828378         246.214         58.4503         252.153 
       0.834502         243.137         57.4528         250.319 
       0.840667         241.781         56.4722         248.091 
       0.846816         240.433         55.5174         246.443 
       0.852925         238.834         54.5908         244.697 
       0.859047         236.476         53.6835         242.341 
       0.865192         233.655         52.7939         240.243 
       0.871341         231.509          51.924         238.583 
       0.877463         231.816         51.0777         237.392 
       0.883569         229.002         50.2525         237.021 
       0.889708         226.722         49.4414         233.795 
       0.895864         226.584         48.6461          232.72 
       0.902008         223.816         47.8701         230.266 
       0.908149         221.448         47.1116         228.515 
       0.914301         219.789         46.3683         226.648 
       0.920448         218.038         45.6418         225.683 
       0.926574         215.788         44.9335         224.092 
       0.932687         215.558         44.2418         221.935 
       0.938823         212.729         43.5622         221.622 
       0.944975         212.422         42.8954         219.653 
       0.951105         210.471          42.245         218.239 
       0.957225         209.427         41.6093         216.503 
       0.963368          206.27         40.9845         215.056 
       0.969511         205.376         40.3726         213.787 
       0.975621         204.076         39.7766         212.322 
       0.981748         202.472         39.1911         211.499 
       0.987916         201.302         38.6138         209.676 
        0.99406         199.787         38.0503         208.365 
        1.00019         197.966         37.4992         206.899 
        1.00632         197.309         36.9596          205.26 
        1.01246         195.381         36.4298         203.722 
        1.01859         194.731         35.9113         202.781 
        1.02471         192.311         35.4036         201.451 
        1.03085         191.433          34.904          200.42 
        1.03698         189.811         34.4151         199.684 
        1.04314         188.641         33.9336         197.992 
        1.04929         187.699         33.4624         196.436 
        1.05541         186.281         33.0021         195.503 
        1.06154         184.413         32.5493          194.72 
        1.06769         184.009         32.1043          193.34 
        1.07382          182.46         31.6691         192.163 
        1.07993         181.188          31.243         191.116 
        1.08607         180.681          30.823         189.569 
        1.09222         178.773         30.4103         188.586 
        1.09836         177.329         30.0057         187.577 
        1.10449         176.053         29.6089         186.976 
        1.11063         174.659         29.2188         185.341 
        1.11677         173.936          28.836         184.265 
         1.1229         171.951         28.4607         183.083 
        1.12903         171.309         28.0918         181.926 
        1.13518         170.437         27.7291         180.941 
        1.14131         169.002          27.373          180.02 
        1.14745         168.827         27.0234         178.485 
        1.15359         166.813         26.6799         178.064 
        1.15973         165.596         26.3422         176.833 
        1.16584         164.968         26.0119         176.387 
        1.17197         164.641         25.6868         175.242 
        1.17811         162.424         25.3662         173.959 
        1.18424         161.752         25.0521         172.945 
        1.19038         160.779         24.7424         172.494 
        1.19652          159.21          24.438         170.869 
        1.20267         159.189         24.1388         170.525 
        1.20881          157.47         23.8447         169.408 
        1.21495         156.643          23.556         168.344 
        1.22108         155.656          23.272         167.431 
         1.2272         154.414         22.9935         166.839 
        1.23334          154.35         22.7189         165.872 
        1.23949         152.371         22.4481         164.834 
        1.24562         151.651         22.1825         163.564 
        1.25174         150.801         21.9216          162.81 
        1.25789         150.163         21.6641         161.802 
        1.26402         148.434         21.4112         161.282 
        1.27014         147.996          21.163         160.358 
        1.27628         146.652          20.918         160.006 
        1.28244         146.374         20.6763          158.91 
        1.28858         144.978         20.4388         158.175 
        1.29471         144.423         20.2056         157.324 
        1.30084         143.011         19.9763         156.137 
        1.30697         142.066         19.7501         155.343 
        1.31312         141.013         19.5272         154.508 
        1.31925         140.204         19.3084         153.887 
        1.32537         139.905         19.0931         153.063 
        1.33151         138.691         18.8804         152.345 
        1.33765         137.848         18.6711         151.605 
        1.34378         137.022         18.4653         150.749 
        1.34992         136.413         18.2625          149.96 
        1.35606         135.721         18.0623         149.001 
         1.3622          134.14         17.8655         148.637 
        1.36833          133.71         17.6721         147.742 
        1.37445         132.904         17.4817         146.776 
        1.38059         132.114         17.2934         146.182 
        1.38675         131.601         17.1075         145.286 
        1.39288         130.313         16.9251         144.799 
        1.39901         129.624         16.7454         144.023 
        1.40515          129.04          16.568         143.145 
         1.4113         128.259         16.3931         142.397 
        1.41742         127.037         16.2215          141.77 
        1.42355         126.716          16.052         141.004 
         1.4297         125.545         15.8844         140.345 
        1.43585         124.868         15.7193         139.862 
        1.44198         124.741         15.5571         139.224 
        1.44809         123.631         15.3976          138.34 
        1.45423          123.19         15.2397         137.608 
        1.46036         122.106         15.0843         136.945 
        1.46649         121.429          14.931         136.363 
        1.47263         120.583         14.7797         135.728 
        1.47877         119.778         14.6306           134.8 
        1.48491         118.994         14.4833          134.17 
        1.49104         118.603         14.3384         133.705 
        1.49718         117.278         14.1953         133.055 
        1.50333         116.681          14.054         132.261 
        1.50947         116.058         13.9148         131.635 
         1.5156          115.56         13.7778          131.16 
        1.52172         114.801         13.6426         130.619 
        1.52787         113.909         13.5089         129.846 
          1.534         113.493         13.3772         129.234 
        1.54013          112.85         13.2474         128.785 
        1.54627         112.151         13.1191         128.211 
        1.55241         111.372         12.9925          127.51 
        1.55855         110.677         12.8677         126.807 
        1.56467         109.701         12.7448         126.224 
         1.5708         109.219         12.6233         125.584 
        1.57695         109.101         12.5031         124.997 
        1.58308         108.347         12.3848         124.534 
        1.58922         107.655          12.268          123.97 
        1.59535         106.874         12.1526          123.37 
         1.6015         106.472         12.0387         122.827 
        1.60764         105.982         11.9262         122.233 
        1.61376          105.13         11.8155         121.633 
        1.61989         104.293         11.7061         121.166 
        1.62604         103.852         11.5978         120.411 
        1.63218         103.422          11.491         119.776 
        1.63831         102.863         11.3857         119.421 
        1.64444         102.132         11.2818         118.879 
        1.65059         101.197         11.1789         118.309 
        1.65673         100.979         11.0774         117.698 
        1.66285         100.481         10.9774          117.21 
        1.66898         99.8189         10.8787         116.847 
        1.67512         98.8647         10.7809         116.216 
        1.68127         98.6268         10.6843         115.661 
         1.6874         98.2568          10.589         115.199 
        1.69353         97.5537          10.495         114.639 
        1.69967          96.899         10.4019         114.154 
        1.70581          96.029           10.31         113.626 
        1.71193         95.4634         10.2195         113.056 
        1.71806         95.4136           10.13           112.6 
        1.72421         94.7209         10.0413         112.189 
        1.73035         94.3779         9.95377           111.7 
        1.73649         93.7048         9.86732         111.082 
        1.74262         93.1758         9.78196         110.418 
        1.74876         92.5513         9.69756         109.938 
        1.75489         91.9924         9.61433         109.587 
        1.76101         91.3648         9.53209         109.202 
        1.76715         91.1382         9.45071          108.69 
        1.77329         90.2814         9.37018         108.182 
        1.77943         90.1719         9.29055         107.746 
        1.78557         89.6718         9.21197         107.322 
        1.79171         88.7689         9.13428          106.77 
        1.79785          88.566         9.05747         106.222 
        1.80399         87.9249         8.98156         105.842 
        1.81012         87.4991         8.90662         105.453 
        1.81625         87.0474         8.83257         104.955 
        1.82239         86.5498         8.75924         104.444 
        1.82853           85.92         8.68679         104.025 
        1.83466         85.5628         8.61522         103.547 
        1.84078         85.1701         8.54454          103.06 
        1.84692         84.4267         8.47453         102.731 
        1.85306         84.1895         8.40522         102.238 
         1.8592         83.5154         8.33679          101.69 
        1.86533         83.0537         8.26916         101.352 
        1.87147         82.6213          8.2022         100.941 
