# k  (h/Mpc)    P(k)  (Mpc/h)^3    P_linear(k)  (Mpc/h)^3     P_NL(k)  ShotnoiseSubtracted = false
     0.00783031         15485.3         15713.8         15568.8 
       0.013688         17687.5         17517.7         17388.3 
       0.019231         16252.7         16175.8         16061.4 
      0.0249154         13403.8         13619.1         13541.6 
      0.0312784         10646.7         10685.4         10652.5 
      0.0375637         8490.76            8413         8403.98 
      0.0433917         6969.56         7001.49         6990.59 
      0.0492413         6161.59         6137.75         6130.78 
      0.0555754         5499.61         5590.59         5582.64 
      0.0619321         5260.37         5195.37         5184.16 
       0.067871         4737.96         4797.97         4790.77 
      0.0738098         4264.24         4308.15         4277.89 
      0.0800417         3673.44         3722.75         3718.73 
      0.0862327         3165.04         3152.33         3195.84 
      0.0921407         2772.56         2693.29         2751.71 
      0.0982031         2407.51          2347.7         2441.06 
       0.104506         2239.78         2120.51         2232.85 
       0.110769         2088.85          1993.4         2073.99 
       0.116806         1992.85         1917.21         1979.32 
       0.122832         1913.73         1842.78         1898.09 
       0.129052         1769.05         1737.26         1783.74 
       0.135211         1640.88          1596.9         1649.66 
       0.141259         1523.01         1438.02          1512.1 
       0.147318         1389.45         1281.01         1384.11 
       0.153489         1246.07         1144.37         1239.17 
       0.159709         1160.37         1041.67         1150.73 
       0.165845          1105.2         974.423         1100.22 
       0.171974         1050.43         932.211         1043.95 
       0.178125         1008.14         901.971         1016.79 
       0.184229         968.064          871.59         972.886 
        0.19034         905.633         832.665         925.415 
       0.196428         877.025         783.469         870.795 
       0.202534         835.685         727.271         823.187 
       0.208729         780.161         669.902         766.119 
       0.214876         734.126         618.983         735.031 
       0.220989         700.718          578.04         701.077 
       0.227147         668.443         547.127         671.134 
        0.23329          640.81         524.499         651.252 
       0.239377         626.061         506.661           625.9 
       0.245482         583.975         489.708         598.157 
       0.251667         577.693         470.778         581.841 
       0.257832          553.31         449.182         555.285 
       0.263955         531.218         425.704         531.333 
       0.270079         507.006         401.834         510.288 
        0.27624         497.194         379.336         487.876 
       0.282372         476.933         359.731         472.243 
        0.28843         463.254         343.573         457.506 
       0.294538         439.061         330.133         443.198 
       0.300721         434.946         318.516         430.551 
        0.30691         414.979         307.781         420.853 
       0.313033         405.513         297.138         405.147 
       0.319153         391.678         286.031          392.42 
       0.325316         380.353         274.372         381.213 
        0.33145          367.13          262.68         365.856 
       0.337538          359.92         251.486         355.113 
       0.343633         347.888         241.106         349.256 
       0.349808         334.684         231.691         340.945 
       0.355968         330.495         223.349         333.075 
       0.362074         324.305         215.942         324.238 
       0.368217         314.594         209.025         313.576 
       0.374374          300.45         202.348         305.632 
       0.380519         297.926         195.753         297.172 
       0.386598         289.488         189.212         293.074 
       0.392688         285.889         182.724         283.444 
        0.39888          277.94         176.297         277.275 
       0.405048         270.644         170.193         272.111 
       0.411186         265.496         164.522         264.236 
       0.417313         259.892         159.268         258.013 
       0.423458         253.602         154.371         253.284 
       0.429607         249.131         149.778         248.128 
       0.435692         241.944         145.439         241.355 
       0.441815          239.17           141.2          238.37 
       0.447964         233.424         137.044         233.656 
       0.454126         226.442         132.974         226.644 
       0.460267          222.35         129.021         224.663 
       0.466387         219.417         125.222         220.054 
        0.47254         214.242         121.576         215.692 
       0.478662         213.543         118.132         211.239 
       0.484765         205.492         114.867         206.417 
       0.490885         202.787         111.753         203.117 
       0.497035         199.009         108.761         200.019 
       0.503198         195.028         105.874         196.679 
       0.509342         193.065         103.083         193.545 
       0.515458         189.956         100.382         190.861 
       0.521598         185.237         97.7521         186.838 
       0.527764         182.978         95.1985          184.55 
       0.533884         180.408         92.7534         181.743 
           0.54         177.382         90.4001         178.063 
       0.546137         175.847         88.1291         175.873 
       0.552299         172.089         85.9397         172.484 
       0.558452         170.618         83.8384           169.8 
       0.564573         167.906         81.8218         168.172 
       0.570708         164.017         79.8656         166.008 
       0.576825          161.54         77.9731         162.352 
       0.582926         159.018         76.1415         160.397 
       0.589034         157.207         74.3636         158.618 
       0.595184          155.34         72.6305         155.285 
       0.601379         152.788         70.9428         153.636 
       0.607522         150.367         69.3244         151.102 
       0.613639         148.789          67.765         150.157 
       0.619772         145.804         66.2512         148.372 
       0.625918         144.558         64.7817         145.609 
       0.632068          142.17         63.3565         143.428 
       0.638161         141.103         61.9874         142.578 
         0.6443         138.926         60.6491         140.625 
       0.650464         137.386         59.3455         137.617 
       0.656582         135.194         58.0894         136.535 
       0.662703         134.536         56.8692         134.852 
       0.668861         132.112         55.6769         133.542 
       0.675024         129.985         54.5179         131.882 
       0.681124         129.063         53.4037         129.924 
       0.687237         127.179         52.3186         128.428 
       0.693381         125.063          51.259         126.681 
       0.699536         124.091         50.2274         125.426 
       0.705665         123.017         49.2289         124.186 
       0.711789         121.142         48.2588          122.97 
       0.717957           120.8         47.3085         121.619 
        0.72409         118.837         46.3893         120.474 
       0.730186         117.082         45.5003          119.16 
       0.736317         115.886         44.6298         117.581 
       0.742472         114.897          43.779         116.322 
       0.748622         113.767         42.9513         115.016 
        0.75476         112.516         42.1469          114.12 
       0.760888         111.187         41.3643         112.335 
       0.767043         110.624         40.5987         111.591 
       0.773185         109.497         39.8541           110.7 
       0.779291         107.351         39.1325         109.258 
       0.785407         106.912         38.4279         108.022 
       0.791564         106.018         37.7362         107.148 
       0.797719         103.806          37.062         106.471 
       0.803834         103.339         36.4087         105.248 
       0.809972         102.485         35.7688         104.225 
       0.816124         101.722         35.1431         103.355 
       0.822261         100.779          34.534         102.395 
       0.828378         99.8526         33.9413         101.144 
       0.834502          99.359         33.3621         100.111 
       0.840667         97.6808         32.7927         99.4479 
       0.846816         96.6471         32.2382         98.6584 
       0.852925         96.0202         31.7002          97.825 
       0.859047         94.9946         31.1733         96.9502 
       0.865192         93.9584         30.6567         95.8675 
       0.871341         93.1911         30.1516         94.9866 
       0.877463          92.058         29.6601         94.3752 
       0.883569         91.9494          29.181         93.8529 
       0.889708         90.8776           28.71         92.7816 
       0.895864          89.843         28.2482         92.1952 
       0.902008         89.2073         27.7976         91.2113 
       0.908149         88.7358         27.3571         90.4669 
       0.914301         87.6221         26.9255         89.6891 
       0.920448         86.9881         26.5036         89.0493 
       0.926574         86.1955         26.0923         88.2329 
       0.932687         86.1083         25.6906         87.7138 
       0.938823         84.7044          25.296         86.8509 
       0.944975         83.9167         24.9088         86.1919 
       0.951105         83.3325         24.5311         85.4459 
       0.957225         82.6977          24.162         84.8236 
       0.963368         81.5233         23.7992         84.1176 
       0.969511         81.4304         23.4439         83.3934 
       0.975621         80.7655         23.0977         83.2086 
       0.981748         80.3411         22.7578          82.559 
       0.987916         79.4195         22.4225         81.8703 
        0.99406         78.7566         22.0953         81.1108 
        1.00019          78.499         21.7753         80.4317 
        1.00632         77.5313         21.4619         79.8105 
        1.01246          77.202         21.1543         79.0466 
        1.01859         76.4414         20.8532          78.832 
        1.02471         75.6378         20.5584         78.4414 
        1.03085         75.0123         20.2683         77.8055 
        1.03698         74.7605         19.9844         77.2922 
        1.04314         73.9729         19.7048         76.6094 
        1.04929          73.623         19.4312         76.2215 
        1.05541         72.8148         19.1639         75.7995 
        1.06154         72.5783         18.9009          75.209 
        1.06769         72.1671         18.6425         74.7437 
        1.07382         71.5024         18.3898         74.2709 
        1.07993         71.0811         18.1424         73.7416 
        1.08607          70.394         17.8985         73.2313 
        1.09222         70.2841         17.6589         72.8104 
        1.09836         69.5465         17.4239         72.2251 
        1.10449         69.0231         17.1935         71.8848 
        1.11063         68.4915          16.967         71.1744 
        1.11677         68.0325         16.7447          70.732 
         1.1229         67.5097         16.5268         70.4466 
        1.12903          67.033         16.3125         69.8712 
        1.13518         66.8429         16.1019         69.4569 
        1.14131         66.3093         15.8952         68.8848 
        1.14745         65.8657         15.6922         68.5882 
        1.15359         65.3967         15.4927          68.201 
        1.15973         65.0131         15.2966         67.8686 
        1.16584         64.4091         15.1048         67.1967 
        1.17197         63.9822          14.916         67.0216 
        1.17811         63.6895         14.7298           66.52 
        1.18424         63.1879         14.5474         66.0831 
        1.19038         62.9817         14.3676           65.78 
        1.19652         62.5032         14.1908          65.363 
        1.20267          61.778         14.0171         65.0168 
        1.20881         61.6093         13.8463         64.4973 
        1.21495         61.0289         13.6786          64.191 
        1.22108         60.9055         13.5138         63.8717 
         1.2272         60.1666          13.352          63.433 
        1.23334         59.8503         13.1926         63.2436 
        1.23949         59.6289         13.0353         62.7112 
        1.24562         59.0979         12.8811         62.1964 
        1.25174         58.8549         12.7296          61.927 
        1.25789          58.555         12.5801         61.5807 
        1.26402         57.9049         12.4332         61.3551 
        1.27014         57.7229         12.2891          61.095 
        1.27628          57.362         12.1468         60.7534 
        1.28244         56.9737         12.0065         60.2401 
        1.28858         56.7859         11.8686         59.8919 
        1.29471         56.4156         11.7331          59.638 
        1.30084         56.0912            11.6         59.1649 
        1.30697         55.6272         11.4686         58.9609 
        1.31312         55.2797         11.3392         58.7008 
        1.31925         54.9529         11.2121         58.3404 
        1.32537         54.6283         11.0871         58.1004 
        1.33151         54.1687         10.9636         57.7371 
        1.33765         54.0092          10.842         57.4451 
        1.34378         53.6901         10.7226         57.1445 
        1.34992         53.3504         10.6048         56.7641 
        1.35606         53.0003         10.4886         56.4786 
         1.3622         52.5895         10.3743         56.2436 
        1.36833          52.461          10.262         55.8812 
        1.37445         52.0591         10.1514         55.6984 
        1.38059         51.6218         10.0421         55.2779 
        1.38675         51.3686         9.93413         55.0076 
        1.39288         51.1679          9.8282         54.6429 
        1.39901         50.8492         9.72386         54.4623 
        1.40515         50.4624         9.62081         54.3278 
         1.4113         50.2383         9.51928         54.0871 
        1.41742         50.0789         9.41961         53.7115 
        1.42355         49.7305         9.32118         53.4004 
         1.4297         49.5512         9.22387         53.1924 
        1.43585         49.1835         9.12798          52.801 
        1.44198         48.7766         9.03382         52.6304 
        1.44809         48.6326         8.94117         52.3724 
        1.45423         48.3839         8.84948         52.0517 
        1.46036         48.0548         8.75924         51.8088 
        1.46649         47.7536         8.67023         51.6376 
        1.47263          47.477         8.58239         51.4151 
        1.47877         47.1969          8.4958         51.0272 
        1.48491         47.0067         8.41028         50.8291 
        1.49104         46.7659         8.32611           50.67 
        1.49718          46.415         8.24303         50.3321 
        1.50333         46.3292         8.16096         50.0962 
        1.50947         45.9557         8.08016         49.8892 
         1.5156           45.77         8.00059         49.6356 
        1.52172         45.4714         7.92208         49.3854 
        1.52787         45.3255         7.84447         49.1657 
          1.534         44.9296         7.76799         48.9745 
        1.54013         44.6662         7.69261         48.7363 
        1.54627         44.5705         7.61809         48.4732 
        1.55241         44.1335         7.54455         48.2454 
        1.55855         43.9705         7.47208          48.051 
        1.56467         43.7457         7.40076         47.8423 
         1.5708         43.5977         7.33018         47.6015 
        1.57695         43.4579         7.26041         47.4077 
        1.58308         43.1141         7.19171         47.2034 
        1.58922         42.7914         7.12385         46.9474 
        1.59535         42.7173         7.05689         46.7709 
         1.6015         42.3123          6.9907         46.5183 
        1.60764         42.1787         6.92539         46.2884 
        1.61376         41.9486         6.86109         46.1868 
        1.61989         41.7177         6.79756         45.9592 
        1.62604         41.4871          6.7347         45.6612 
        1.63218         41.4189         6.67266         45.4459 
        1.63831         40.9746         6.61156         45.3202 
        1.64444         40.8302         6.55119           45.12 
        1.65059          40.771         6.49144         44.8886 
        1.65673         40.4237         6.43249         44.6587 
        1.66285         40.1514         6.37444         44.4935 
        1.66898         40.0931         6.31709         44.3687 
        1.67512         39.7095         6.26034         44.1236 
        1.68127         39.5971         6.20422         43.8932 
         1.6874         39.3885         6.14892         43.7239 
        1.69353         39.1624         6.09433         43.5559 
        1.69967         39.0065         6.04027         43.3616 
        1.70581         38.8578         5.98689         43.1825 
        1.71193         38.6492         5.93436         43.0224 
        1.71806         38.3212         5.88234         42.8433 
        1.72421         38.2554         5.83085         42.6505 
        1.73035         38.0444         5.78003         42.4443 
        1.73649         37.7747         5.72983         42.2461 
        1.74262         37.5993         5.68026         42.0921 
        1.74876         37.3874         5.63125         41.9188 
        1.75489         37.2773         5.58292         41.7215 
        1.76101          37.104         5.53516         41.5228 
        1.76715         36.8325         5.48791         41.3327 
        1.77329         36.6157         5.44114         41.1931 
        1.77943         36.4481          5.3949           41.06 
        1.78557         36.2596         5.34927         40.8824 
        1.79171         36.1439         5.30416         40.7057 
        1.79785         35.8813         5.25956         40.5337 
        1.80399         35.8428         5.21548         40.3541 
        1.81012         35.5326         5.17196         40.1946 
        1.81625         35.3589         5.12896         40.0275 
        1.82239         35.1907         5.08638         39.8643 
        1.82853         35.0249         5.04431         39.7438 
        1.83466          34.782         5.00275         39.5671 
        1.84078          34.586          4.9617         39.3648 
        1.84692         34.4779         4.92105         39.2558 
        1.85306         34.2826          4.8808         39.0986 
         1.8592         34.1131         4.84107         38.8968 
        1.86533          33.917         4.80179         38.7431 
        1.87147         33.7181         4.76291         38.5601 
        1.87761         33.6315         4.72444         38.4006 
