# k  (h/Mpc)    P(k)  (Mpc/h)^3    P_linear(k)  (Mpc/h)^3     P_NL(k)  ShotnoiseSubtracted = false
     0.00783031         16207.9         16449.3         16297.1 
       0.013688         18522.7         18339.2         18202.4 
       0.019231         17016.3         16934.6         16813.2 
      0.0249154         14026.1         14257.9         14174.7 
      0.0312784           11143         11186.7         11149.8 
      0.0375637          8889.8         8807.68          8796.8 
      0.0433917         7294.64         7329.96            7317 
      0.0492413         6450.65          6425.7         6417.07 
      0.0555754         5754.43         5852.87         5843.69 
      0.0619321         5507.61         5439.11         5426.62 
       0.067871         4957.75         5023.07         5015.12 
      0.0738098         4462.67         4510.26         4477.04 
      0.0800417         3844.37         3897.41         3892.74 
      0.0862327         3313.98         3300.22         3347.33 
      0.0921407         2905.54         2819.64         2882.96 
      0.0982031         2523.44         2457.84         2559.24 
       0.104506         2349.03         2219.99         2342.12 
       0.110769          2190.4         2086.92         2174.67 
       0.116806         2090.08         2007.16         2074.83 
       0.122832         2006.27         1929.24         1989.44 
       0.129052         1853.86         1818.76         1869.44 
       0.135211         1720.01         1671.82          1729.2 
       0.141259          1597.9         1505.48         1586.13 
       0.147318         1458.94          1341.1         1453.08 
       0.153489         1308.84         1198.05         1301.23 
       0.159709         1219.56         1090.54         1209.26 
       0.165845         1162.14         1020.14         1156.86 
       0.171974         1104.93         975.945         1097.67 
       0.178125         1059.89         944.287         1069.27 
       0.184229         1017.25          912.48         1022.69 
        0.19034         952.149         871.729          972.74 
       0.196428         922.234         820.224         915.669 
       0.202534         878.916         761.391         866.076 
       0.208729         821.154          701.33         806.148 
       0.214876         773.598         648.022         774.106 
       0.220989         738.641         605.158         738.886 
       0.227147         705.097         572.794         707.789 
        0.23329         675.919         549.105             687 
       0.239377          660.54          530.43         660.164 
       0.245482         616.116         512.682         630.948 
       0.251667         609.729         492.864         613.819 
       0.257832         583.784         470.255         585.893 
       0.263955         560.726         445.675         560.838 
       0.270079         535.388         420.686         538.852 
        0.27624         525.318         397.132         515.468 
       0.282372         503.907         376.607         499.256 
        0.28843         490.113         359.692         483.979 
       0.294538         464.352         345.621         468.859 
       0.300721         460.146         333.459         455.436 
        0.30691         439.166          322.22         445.473 
       0.313033         429.238         311.078         428.885 
       0.319153         414.993          299.45         415.471 
       0.325316         402.906         287.244         403.712 
        0.33145         389.152         275.003         387.491 
       0.337538         381.463         263.284         376.355 
       0.343633         368.976         252.417         370.308 
       0.349808         354.878         242.561         361.614 
       0.355968         350.633         233.827          353.32 
       0.362074         344.356         226.073         344.129 
       0.368217         334.008         218.831          332.91 
       0.374374          318.87          211.84         324.556 
       0.380519         316.465         204.937          315.64 
       0.386598         307.453         198.089         311.471 
       0.392688          303.85         191.296         301.241 
        0.39888         295.315         184.567         294.814 
       0.405048         287.765         178.177         289.305 
       0.411186         282.459          172.24         281.029 
       0.417313         276.499          166.74          274.58 
       0.423458         269.792         161.613         269.624 
       0.429607         265.248         156.805         264.175 
       0.435692         257.674         152.263         256.932 
       0.441815         254.699         147.824         253.848 
       0.447964         248.572         143.473         248.944 
       0.454126         241.604         139.212         241.506 
       0.460267         237.069         135.074         239.464 
       0.466387         233.913         131.096         234.644 
        0.47254         228.609          127.28          230.04 
       0.478662         227.824         123.674         225.275 
       0.484765         219.191         120.256         220.307 
       0.490885         216.412         116.996         216.734 
       0.497035         212.305         113.863         213.473 
       0.503198         208.311         110.841         209.981 
       0.509342         206.345         107.919         206.632 
       0.515458         203.047         105.091           203.8 
       0.521598          197.87         102.338         199.648 
       0.527764         195.471         99.6647           197.3 
       0.533884         192.795         97.1048         194.301 
           0.54         189.639         94.6412         190.385 
       0.546137         188.076         92.2636         188.042 
       0.552299         184.051         89.9715         184.527 
       0.558452          182.61         87.7716         181.732 
       0.564573          179.75         85.6604         180.018 
       0.570708         175.584         83.6124         177.742 
       0.576825         172.846         81.6311         173.842 
       0.582926         170.322         79.7135         171.826 
       0.589034         168.393         77.8523         169.879 
       0.595184         166.502         76.0379          166.37 
       0.601379          163.69          74.271         164.571 
       0.607522         161.217         72.5767         161.916 
       0.613639         159.529         70.9441         161.013 
       0.619772         156.346         69.3593         159.186 
       0.625918         155.138         67.8208         156.157 
       0.632068         152.471         66.3288         153.886 
       0.638161         151.399         64.8954         153.005 
         0.6443         149.019         63.4943         150.934 
       0.650464         147.375         62.1296         147.721 
       0.656582         145.099         60.8146         146.569 
       0.662703         144.535         59.5371          144.85 
       0.668861         141.961         58.2889         143.487 
       0.675024         139.649         57.0755          141.76 
       0.681124         138.629          55.909         139.595 
       0.687237         136.734         54.7731         138.024 
       0.693381         134.438         53.6638         136.194 
       0.699536         133.354         52.5837         134.888 
       0.705665         132.129         51.5384         133.454 
       0.711789         130.314         50.5228         132.293 
       0.717957         129.914          49.528         130.907 
        0.72409         127.898         48.5656         129.609 
       0.730186         126.034         47.6349         128.188 
       0.736317         124.681         46.7236         126.565 
       0.742472         123.614         45.8329         125.191 
       0.748622          122.45         44.9663         123.833 
        0.75476         121.103         44.1241         122.989 
       0.760888         119.712         43.3049         121.036 
       0.767043         119.128         42.5033         120.223 
       0.773185         117.958         41.7238         119.265 
       0.779291         115.621         40.9684         117.716 
       0.785407         115.163         40.2307         116.434 
       0.791564         114.187         39.5066         115.473 
       0.797719         111.856         38.8008          114.74 
       0.803834          111.34         38.1168         113.517 
       0.809972         110.524         37.4469         112.421 
       0.816124          109.67         36.7918         111.466 
       0.822261         108.691         36.1542         110.488 
       0.828378         107.651         35.5336         109.164 
       0.834502         107.145         34.9272         108.052 
       0.840667         105.362         34.3311         107.287 
       0.846816         104.285         33.7507         106.487 
       0.852925         103.611         33.1873          105.61 
       0.859047          102.59         32.6357         104.694 
       0.865192         101.374         32.0949         103.505 
       0.871341         100.567         31.5661         102.594 
       0.877463           99.42         31.0516         101.966 
       0.883569         99.2943           30.55         101.409 
       0.889708         98.1192         30.0569         100.229 
       0.895864         96.9959         29.5734         99.5957 
       0.902008         96.3166         29.1017         98.5666 
       0.908149         95.8628         28.6405          97.776 
       0.914301         94.6178         28.1886         96.9263 
       0.920448          93.956          27.747         96.2388 
       0.926574         93.1073         27.3164         95.3805 
       0.932687          93.016         26.8958          94.839 
       0.938823          91.517         26.4827         93.9363 
       0.944975         90.7438         26.0773         93.2271 
       0.951105         90.0841          25.682         92.4349 
       0.957225         89.4472         25.2955          91.755 
       0.963368         88.0839         24.9157         91.0158 
       0.969511         87.9786         24.5437         90.2221 
       0.975621         87.2343         24.1813         90.0077 
       0.981748         86.8821         23.8254         89.3229 
       0.987916         85.8833         23.4744         88.5832 
        0.99406         85.1454         23.1319         87.7873 
        1.00019         84.9087         22.7968         87.0705 
        1.00632         83.8337         22.4688         86.4032 
        1.01246         83.4777         22.1467         85.5742 
        1.01859         82.7626         21.8315         85.3272 
        1.02471         81.8083         21.5229         84.9004 
        1.03085         81.1361         21.2192         84.2573 
        1.03698         80.8657          20.922         83.7434 
        1.04314         79.9857         20.6292         82.9854 
        1.04929         79.6817         20.3428         82.5464 
        1.05541         78.8213         20.0629         82.0957 
        1.06154         78.5234         19.7877          81.472 
        1.06769         78.1183         19.5171         80.9758 
        1.07382         77.3496         19.2526         80.4686 
        1.07993         76.9052         18.9935         79.8988 
        1.08607         76.1692         18.7382         79.3419 
        1.09222         76.0533         18.4873         78.9055 
        1.09836         75.2804         18.2413         78.2827 
        1.10449         74.6383         18.0001         77.9417 
        1.11063         74.1201          17.763            77.2 
        1.11677         73.5911         17.5302         76.6987 
         1.1229         73.0809         17.3021         76.3611 
        1.12903         72.6221         17.0778         75.7647 
        1.13518         72.3482         16.8573         75.3299 
        1.14131         71.7226         16.6409         74.7002 
        1.14745         71.3193         16.4283         74.3741 
        1.15359         70.7846         16.2195         73.9795 
        1.15973         70.4099         16.0142         73.6017 
        1.16584         69.7334         15.8134            72.9 
        1.17197         69.2591         15.6157         72.7043 
        1.17811         68.9393         15.4209         72.1548 
        1.18424         68.4568         15.2299         71.6636 
        1.19038          68.247         15.0416         71.3891 
        1.19652         67.6924         14.8566         70.9293 
        1.20267         66.9443         14.6747         70.5419 
        1.20881         66.7532         14.4959         69.9822 
        1.21495         66.0924         14.3204         69.6807 
        1.22108         65.9496         14.1478         69.3122 
         1.2272         65.2025         13.9784         68.8312 
        1.23334         64.8396         13.8115         68.6368 
        1.23949         64.5911         13.6469         68.0915 
        1.24562         64.0331         13.4854         67.5153 
        1.25174         63.7775         13.3268         67.2099 
        1.25789         63.4227         13.1703         66.8337 
        1.26402         62.6743         13.0165         66.6047 
        1.27014         62.5309         12.8656         66.3076 
        1.27628         62.1619         12.7166         65.9734 
        1.28244         61.7512         12.5697         65.4265 
        1.28858         61.5292         12.4254         65.0449 
        1.29471         61.0829         12.2836         64.7568 
        1.30084         60.7874         12.1442          64.246 
        1.30697         60.2496         12.0067         64.0119 
        1.31312         59.8875         11.8711         63.7288 
        1.31925         59.5329         11.7381         63.3672 
        1.32537         59.1646         11.6073         63.1055 
        1.33151         58.6857         11.4779         62.7165 
        1.33765         58.4969         11.3507         62.3968 
        1.34378         58.1733         11.2256         62.0722 
        1.34992         57.8236         11.1023         61.6621 
        1.35606         57.4213         10.9806          61.353 
         1.3622         56.9792          10.861         61.0965 
        1.36833         56.8381         10.7434         60.6926 
        1.37445          56.423         10.6276         60.5054 
        1.38059          55.919         10.5132         60.0248 
        1.38675         55.6328         10.4002         59.7519 
        1.39288         55.4773         10.2893         59.3492 
        1.39901         55.0847           10.18         59.1613 
        1.40515         54.6691         10.0722         59.0128 
         1.4113          54.437         9.96587         58.7567 
        1.41742         54.2223         9.86152         58.3697 
        1.42355         53.8818         9.75848         58.0133 
         1.4297          53.682         9.65659         57.7956 
        1.43585         53.2693         9.55621         57.3654 
        1.44198         52.8417         9.45764         57.2013 
        1.44809         52.6939         9.36064         56.9129 
        1.45423         52.4333         9.26465         56.5542 
        1.46036         52.0484         9.17017         56.2909 
        1.46649          51.706         9.07699         56.1062 
        1.47263         51.4057         8.98502         55.8661 
        1.47877         51.1412         8.89438         55.4549 
        1.48491         50.8804         8.80484         55.2332 
        1.49104         50.6615         8.71672         55.0625 
        1.49718         50.3025         8.62974         54.6822 
        1.50333         50.1851         8.54382         54.4242 
        1.50947         49.7645         8.45923         54.2087 
         1.5156         49.6002         8.37592         53.9372 
        1.52172         49.2401         8.29373         53.6618 
        1.52787         49.0551         8.21248         53.4225 
          1.534         48.6626         8.13241         53.2226 
        1.54013         48.3656          8.0535         52.9713 
        1.54627         48.2499         7.97548         52.6843 
        1.55241         47.8134         7.89849          52.429 
        1.55855          47.623         7.82262         52.2106 
        1.56467         47.4111         7.74796         51.9873 
         1.5708         47.1869         7.67407         51.7301 
        1.57695         47.0756         7.60102         51.5146 
        1.58308         46.6868          7.5291         51.2934 
        1.58922         46.3399         7.45805         51.0237 
        1.59535         46.2578         7.38795         50.8321 
         1.6015         45.8189         7.31866          50.557 
        1.60764         45.6829         7.25028         50.3007 
        1.61376         45.4334         7.18297         50.1859 
        1.61989          45.181         7.11646         49.9508 
        1.62604         44.9364         7.05065         49.6133 
        1.63218         44.8304          6.9857          49.376 
        1.63831         44.3389         6.92173         49.2529 
        1.64444         44.1703         6.85853         49.0251 
        1.65059         44.1089         6.79597         48.7789 
        1.65673          43.737         6.73426         48.5282 
        1.66285         43.4722         6.67349         48.3433 
        1.66898         43.3982         6.61345         48.2096 
        1.67512          42.979         6.55403         47.9479 
        1.68127         42.8663         6.49529         47.7063 
         1.6874         42.6247         6.43739         47.5223 
        1.69353         42.3868         6.38024         47.3235 
        1.69967         42.1998         6.32364         47.1139 
        1.70581         42.0286         6.26776         46.9215 
        1.71193         41.8168         6.21276         46.7442 
        1.71806         41.4854         6.15831         46.5524 
        1.72421         41.3887          6.1044         46.3405 
        1.73035         41.1631         6.05119         46.1149 
        1.73649         40.8946         5.99863         45.9026 
        1.74262         40.6831         5.94674          45.736 
        1.74876          40.472         5.89543         45.5469 
        1.75489         40.3288         5.84483         45.3308 
        1.76101         40.1503         5.79484          45.114 
        1.76715         39.8442         5.74537         44.9107 
        1.77329         39.6117         5.69641         44.7506 
        1.77943         39.4404           5.648         44.5964 
        1.78557         39.2344         5.60023          44.409 
        1.79171         39.0964           5.553          44.224 
        1.79785         38.7975          5.5063         44.0331 
        1.80399         38.7514         5.46015         43.8247 
        1.81012         38.4399          5.4146         43.6571 
        1.81625         38.2534         5.36958          43.485 
        1.82239         38.0474           5.325         43.3032 
        1.82853         37.8747         5.28096         43.1633 
        1.83466         37.6425         5.23745         42.9718 
        1.84078         37.4085         5.19448         42.7604 
        1.84692         37.2864         5.15191         42.6437 
        1.85306         37.0776         5.10978         42.4656 
         1.8592         36.9134         5.06818         42.2408 
        1.86533         36.6872         5.02706         42.0777 
        1.87147         36.4351         4.98636         41.8818 
        1.87761          36.367         4.94609         41.7079 
