# k  (h/Mpc)    P(k)  (Mpc/h)^3    P_linear(k)  (Mpc/h)^3     P_NL(k)  ShotnoiseSubtracted = false
     0.00783031         12578.9         12757.3           12641 
       0.013688         14336.5         14218.5         14117.3 
       0.019231         13186.5         13128.7         13040.9 
      0.0249154         10899.6         11053.5         10997.1 
      0.0312784         8650.73         8672.47         8653.33 
      0.0375637         6888.67         6828.12         6825.24 
      0.0433917         5662.66         5682.52         5678.49 
      0.0492413         5000.74          4981.5         4979.92 
      0.0555754         4473.83         4537.42         4533.54 
      0.0619321          4267.3         4216.66         4209.84 
       0.067871         3853.17         3894.12          3889.4 
      0.0738098         3465.96         3496.57         3476.71 
      0.0800417         2985.93         3021.46         3019.47 
      0.0862327         2567.27         2558.49         2588.73 
      0.0921407         2240.83         2185.93         2226.39 
      0.0982031         1944.56         1905.44         1969.49 
       0.104506         1804.26         1721.05         1797.75 
       0.110769         1683.86         1617.88         1672.58 
       0.116806         1605.58         1556.05         1598.03 
       0.122832          1544.3         1495.64         1533.16 
       0.129052         1430.11         1409.99         1441.32 
       0.135211         1324.85         1296.08         1332.02 
       0.141259         1224.97         1167.12         1217.35 
       0.147318         1113.91         1039.69         1110.32 
       0.153489         997.602         928.792         993.196 
       0.159709         926.415         845.443         919.425 
       0.165845         880.684         790.862         876.724 
       0.171974         835.822         756.602         832.144 
       0.178125         803.953         732.059         809.912 
       0.184229         773.485         707.401         776.246 
        0.19034         722.567         675.808         738.594 
       0.196428         698.855          635.88         694.095 
       0.202534         665.213         590.269         654.569 
       0.208729         618.996         543.707         608.812 
       0.214876         579.755          502.38         581.723 
       0.220989         552.552         469.149          553.12 
       0.227147         525.519         444.059         528.117 
        0.23329         503.872         425.694         511.829 
       0.239377         491.735         411.217         492.272 
       0.245482         459.144         397.457         470.426 
       0.251667         453.282         382.093         457.237 
       0.257832         434.764         364.566         436.157 
       0.263955         416.488          345.51         416.663 
       0.270079         396.893         326.137         399.362 
        0.27624         388.083         307.877         380.937 
       0.282372         372.216         291.965         367.849 
        0.28843         359.569         278.851         355.481 
       0.294538         341.436         267.943         344.201 
       0.300721         337.617         258.514         334.458 
        0.30691         321.846         249.801         326.049 
       0.313033         314.071         241.164         313.785 
       0.319153         302.126         232.149          303.73 
       0.325316         293.759         222.686         294.755 
        0.33145         282.767         213.197         282.773 
       0.337538         277.176         204.111         273.715 
       0.343633         267.245         195.686         268.527 
       0.349808         257.378         188.045         261.796 
       0.355968         253.489         181.275         255.535 
       0.362074          247.78         175.263         248.239 
       0.368217         240.342         169.649         239.849 
       0.374374         230.213          164.23         233.539 
       0.380519         227.356         158.878         226.867 
       0.386598         220.948         153.569         223.032 
       0.392688         217.493         148.303         215.871 
        0.39888         211.634         143.086         210.653 
       0.405048         205.619         138.132         206.638 
       0.411186         201.201         133.529         200.582 
       0.417313         196.848         129.266         195.337 
       0.423458         192.081         125.291          191.47 
       0.429607         188.068         121.563         187.455 
       0.435692          182.34         118.042         182.433 
       0.441815         180.307         114.601         179.874 
       0.447964         176.065         111.228         175.932 
       0.454126         169.479         107.924         170.572 
       0.460267         166.872         104.716         168.845 
       0.466387         164.675         101.633         165.072 
        0.47254         160.375          98.674         161.671 
       0.478662         159.694         95.8781          158.39 
       0.484765         153.904         93.2289         154.305 
       0.490885         151.537          90.701         151.931 
       0.497035         148.947         88.2725         149.508 
       0.503198         145.236         85.9297         146.762 
       0.509342         143.308         83.6641         144.361 
       0.515458          140.95         81.4719         142.281 
       0.521598         137.842         79.3377         138.875 
       0.527764         136.081         77.2652         136.779 
       0.533884         133.983         75.2806           134.7 
           0.54         131.438         73.3707         131.971 
       0.546137         130.047         71.5275         130.302 
       0.552299         127.402         69.7505         127.461 
       0.558452         125.728         68.0451         125.254 
       0.564573         123.613         66.4083         123.959 
       0.570708         120.884         64.8207         122.195 
       0.576825         119.237         63.2846         119.514 
       0.582926         116.932         61.7981         117.825 
       0.589034         115.433         60.3551           116.6 
       0.595184         113.784         58.9485         114.075 
       0.601379         112.021         57.5787         112.882 
       0.607522         109.919         56.2652         110.767 
       0.613639         108.851         54.9995         109.789 
       0.619772         106.651         53.7709         108.229 
       0.625918         105.305         52.5782         106.425 
       0.632068          103.87         51.4215         104.705 
       0.638161         102.842         50.3103         103.878 
         0.6443         101.408         49.2241         102.339 
       0.650464         100.232         48.1661         100.128 
       0.656582         98.3817         47.1466         99.3323 
       0.662703         97.3827         46.1562         97.8319 
       0.668861         95.6941         45.1886         96.7837 
       0.675024          94.289         44.2479          95.396 
       0.681124         93.5539         43.3436         94.1075 
       0.687237         91.8376         42.4629         92.9093 
       0.693381         90.4241         41.6029         91.5369 
       0.699536         89.7373         40.7656         90.5731 
       0.705665         89.2207         39.9552         89.8474 
       0.711789         87.3336         39.1679         88.5164 
       0.717957         86.9859         38.3966         87.4368 
        0.72409         85.4124         37.6506         86.7402 
       0.730186         84.0602          36.929         85.7782 
       0.736317         83.5098         36.2225         84.4686 
       0.742472         82.6948          35.532         83.5858 
       0.748622         81.7102         34.8602         82.5227 
        0.75476          80.792         34.2073         81.5675 
       0.760888         79.7048         33.5722         80.3837 
       0.767043         79.1977         32.9508         79.8853 
       0.773185         78.2312         32.3465         79.2135 
       0.779291         76.9311         31.7608         78.1774 
       0.785407         76.4977         31.1889         77.1613 
       0.791564         75.8489         30.6275         76.5215 
       0.797719         74.2223         30.0804         76.0041 
       0.803834         73.8607         29.5501         74.9174 
       0.809972         72.8731         29.0308         74.1563 
       0.816124         72.4153         28.5229         73.5452 
       0.822261         71.7259         28.0286         72.7225 
       0.828378         71.1507         27.5475         71.7744 
       0.834502         70.5673         27.0774         71.0809 
       0.840667         69.4759         26.6153         70.6972 
       0.846816         68.6167         26.1653         69.9753 
       0.852925         68.1092         25.7285         69.2947 
       0.859047         67.2032         25.3009         68.5949 
       0.865192         66.6925         24.8817         67.9159 
       0.871341         66.0955         24.4717         67.1933 
       0.877463         65.1455         24.0728         66.6476 
       0.883569         64.9487         23.6839         66.2804 
       0.889708         64.2543         23.3016         65.5471 
       0.895864         63.6505         22.9268         65.0989 
       0.902008         63.0898         22.5611         64.3016 
       0.908149         62.5965         22.2036         63.7775 
       0.914301         61.9022         21.8533         63.2654 
       0.920448         61.4464         21.5109         62.7743 
       0.926574         60.7716         21.1771         62.1287 
       0.932687         60.6844         20.8511         61.6687 
       0.938823         59.6761         20.5308         61.0161 
       0.944975         59.0265         20.2165         60.5258 
       0.951105         58.6003           19.91          59.997 
       0.957225         58.0351         19.6104         59.5401 
       0.963368         57.5345         19.3159         58.9906 
       0.969511         57.3141         19.0275         58.5064 
       0.975621         56.9264         18.7466         58.3601 
       0.981748         56.3236         18.4707          57.857 
       0.987916         55.7078         18.1986         57.3879 
        0.99406          55.339          17.933         56.7683 
        1.00019         54.9381         17.6733         56.2306 
        1.00632          54.404          17.419         55.8054 
        1.01246         54.1104         17.1693         55.2949 
        1.01859         53.3788         16.9249         55.1422 
        1.02471         53.0491         16.6857         54.8409 
        1.03085         52.6041         16.4502         54.2789 
        1.03698         52.2992         16.2198         53.8281 
        1.04314         51.8228         15.9928         53.3923 
        1.04929         51.4172         15.7708         53.1233 
        1.05541         50.8468         15.5538         52.8362 
        1.06154         50.7822         15.3404         52.3942 
        1.06769         50.3199         15.1307         52.0137 
        1.07382         50.0116         14.9256         51.6775 
        1.07993         49.6529         14.7248           51.31 
        1.08607         49.2273         14.5268         50.9477 
        1.09222         49.0021         14.3323         50.5533 
        1.09836         48.4751         14.1416         50.1346 
        1.10449         48.2573         13.9546         49.8536 
        1.11063         47.7479         13.7708         49.3199 
        1.11677         47.4639         13.5904         49.0188 
         1.1229         47.0048         13.4135         48.8725 
        1.12903         46.4986         13.2396         48.4406 
        1.13518         46.5648         13.0687         48.1089 
        1.14131         46.2391         12.9009         47.7465 
        1.14745         45.7463         12.7361         47.5295 
        1.15359          45.494         12.5742          47.165 
        1.15973         45.0401          12.415          46.975 
        1.16584         44.7581         12.2593         46.4625 
        1.17197         44.4732         12.1061         46.3416 
        1.17811         44.2633          11.955         46.0018 
        1.18424         43.8461          11.807         45.7431 
        1.19038         43.5727          11.661          45.381 
        1.19652         43.3635         11.5176         45.0753 
        1.20267         42.8488         11.3766         44.8771 
        1.20881         42.7129          11.238         44.5582 
        1.21495         42.3151         11.1019         44.2328 
        1.22108         42.2421         10.9681         44.0461 
         1.2272          41.647         10.8368         43.7694 
        1.23334          41.471         10.7074          43.563 
        1.23949         41.3764         10.5798         43.1658 
        1.24562         40.9074         10.4546         42.8586 
        1.25174         40.7512         10.3316         42.6933 
        1.25789         40.5761         10.2103          42.429 
        1.26402         40.2235         10.0911          42.218 
        1.27014         39.8901         9.97408         42.0604 
        1.27628         39.6286          9.8586          41.747 
        1.28244         39.4005         9.74472         41.3994 
        1.28858         39.2424         9.63279         41.1614 
        1.29471         39.0628         9.52288         41.0146 
        1.30084         38.7984         9.41478         40.6941 
        1.30697         38.4743          9.3082         40.5228 
        1.31312         38.2217         9.20312         40.3257 
        1.31925         38.0053         9.09999         40.0311 
        1.32537         37.8056         8.99855         39.8731 
        1.33151         37.4785          8.8983         39.6008 
        1.33765         37.3204         8.79963         39.3899 
        1.34378         37.0807         8.70266         39.1968 
        1.34992         36.8513         8.60709         38.9341 
        1.35606         36.6444         8.51274         38.7273 
         1.3622         36.3546         8.41999         38.5626 
        1.36833         36.1685         8.32883         38.3679 
        1.37445         35.9546         8.23908         38.1718 
        1.38059         35.7039         8.15037         37.9523 
        1.38675         35.4921         8.06276         37.7195 
        1.39288         35.3124         7.97678         37.5178 
        1.39901         35.1424          7.8921         37.3381 
        1.40515         34.8725         7.80846         37.2229 
         1.4113         34.7027         7.72606         37.0369 
        1.41742          34.613         7.64516         36.7287 
        1.42355         34.2805         7.56528          36.579 
         1.4297         34.1622         7.48629         36.3889 
        1.43585         34.0024         7.40847         36.1785 
        1.44198         33.6693         7.33205         36.0229 
        1.44809         33.5805         7.25685         35.8096 
        1.45423         33.3763         7.18243         35.6195 
        1.46036         33.2105         7.10919         35.4563 
        1.46649         33.0382         7.03695         35.3223 
        1.47263         32.7825         6.96566         35.1646 
        1.47877         32.5772         6.89538         34.9086 
        1.48491         32.5888         6.82596         34.7625 
        1.49104         32.2667         6.75765         34.6451 
        1.49718         31.9574         6.69022         34.4601 
        1.50333         31.9847         6.62361         34.2682 
        1.50947         31.7756         6.55804         34.0942 
         1.5156         31.5492         6.49345         33.9294 
        1.52172          31.438         6.42973         33.7706 
        1.52787         31.3271         6.36674         33.6193 
          1.534          31.072         6.30467           33.46 
        1.54013         30.8821         6.24349         33.2686 
        1.54627         30.8105         6.18301         33.1015 
        1.55241         30.4792         6.12332         32.9668 
        1.55855         30.4051          6.0645         32.8186 
        1.56467         30.1159         6.00662         32.6884 
         1.5708         30.1648         5.94933         32.5281 
        1.57695          29.954         5.89271         32.3789 
        1.58308         29.7516         5.83695         32.2396 
        1.58922         29.6214         5.78187         32.0624 
        1.59535         29.5289         5.72752         31.9349 
         1.6015         29.2835          5.6738         31.7551 
        1.60764         29.0818         5.62079         31.6041 
        1.61376          28.979         5.56861         31.5335 
        1.61989          28.804         5.51705         31.3604 
        1.62604         28.6525         5.46603         31.1929 
        1.63218         28.6599         5.41568          31.057 
        1.63831         28.3731         5.36608         30.9378 
        1.64444         28.2528         5.31709         30.8057 
        1.65059         28.1671         5.26859         30.6366 
        1.65673         27.9386         5.22075         30.5014 
        1.66285         27.7819         5.17364         30.4048 
        1.66898         27.6848         5.12709         30.2913 
        1.67512         27.5057         5.08103         30.1187 
        1.68127         27.3581         5.03548         29.9663 
         1.6874         27.1952          4.9906         29.8459 
        1.69353         27.0917         4.94629         29.7177 
        1.69967         26.9646         4.90242         29.5918 
        1.70581         26.9032         4.85909          29.481 
        1.71193         26.7444         4.81645         29.3671 
        1.71806         26.4898         4.77424         29.2238 
        1.72421         26.4113         4.73244            29.1 
        1.73035         26.2796          4.6912         28.9863 
        1.73649         26.0789         4.65045         28.8621 
        1.74262         25.9848         4.61022         28.7261 
        1.74876         25.8881         4.57044         28.5907 
        1.75489         25.7756         4.53122         28.4787 
        1.76101         25.6394         4.49246         28.3769 
        1.76715         25.5222         4.45411         28.2319 
        1.77329         25.4021         4.41615         28.1217 
        1.77943         25.2834         4.37862         28.0289 
        1.78557         25.1076         4.34159         27.8981 
        1.79171         25.0053         4.30497         27.7731 
        1.79785         24.8792         4.26877         27.6687 
        1.80399          24.838         4.23299          27.569 
        1.81012         24.6174         4.19768         27.4488 
        1.81625         24.5502         4.16277         27.3174 
        1.82239         24.4132         4.12822         27.2131 
        1.82853         24.3114         4.09407         27.1453 
        1.83466         24.1328         4.06034         27.0231 
        1.84078          23.964         4.02703         26.8669 
        1.84692         23.9281         3.99403         26.7815 
        1.85306         23.7723         3.96137         26.6971 
         1.8592         23.6559         3.92912         26.5807 
        1.86533         23.5534         3.89724         26.4647 
        1.87147         23.5066         3.86568         26.3469 
        1.87761          23.356         3.83446         26.2364 
