# k  (h/Mpc)    P(k)  (Mpc/h)^3    P_linear(k)  (Mpc/h)^3     P_NL(k)  ShotnoiseSubtracted = false
     0.00783031         19869.9         20179.5         19989.4 
       0.013688         22768.8         22509.9         22333.9 
       0.019231         20894.8         20788.1         20628.8 
      0.0249154         17179.7         17503.1         17387.8 
      0.0312784         13660.1         13733.1         13672.4 
      0.0375637           10917         10812.6         10790.2 
      0.0433917         8943.71         8998.54         8972.91 
      0.0492413         7918.69         7888.45         7869.47 
      0.0555754         7045.12         7185.24         7168.48 
      0.0619321         6762.88         6677.29         6657.07 
       0.067871         6070.92         6166.54         6153.98 
      0.0738098         5468.53            5537         5486.39 
      0.0800417         4711.03         4784.63         4775.91 
      0.0862327         4071.04          4051.5         4118.64 
      0.0921407         3584.27         3461.52         3552.31 
      0.0982031         3116.29         3017.35         3163.92 
       0.104506         2908.64         2725.36         2902.56 
       0.110769         2710.32            2562         2690.43 
       0.116806         2588.64         2464.08         2563.48 
       0.122832         2479.68         2368.42         2456.36 
       0.129052         2287.23          2232.8          2307.4 
       0.135211          2124.6         2052.41         2135.84 
       0.141259          1982.3          1848.2         1966.06 
       0.147318         1817.06          1646.4            1808 
       0.153489         1633.08         1470.79         1621.27 
       0.159709         1525.64          1338.8         1512.09 
       0.165845         1457.42         1252.37         1450.38 
       0.171974         1388.04         1198.11         1376.41 
       0.178125         1328.19         1159.25         1341.49 
       0.184229         1271.41          1120.2         1280.72 
        0.19034         1194.22         1070.17         1217.96 
       0.196428         1156.98         1006.95         1148.92 
       0.202534         1103.15         934.718         1089.36 
       0.208729         1034.49         860.985         1014.69 
       0.214876         980.285         795.542         977.887 
       0.220989         937.362          742.92         936.596 
       0.227147         897.544         703.189          900.12 
        0.23329         860.225         674.107         874.591 
       0.239377         841.781          651.18         840.076 
       0.245482         785.841         629.392         803.381 
       0.251667         778.828         605.062         781.856 
       0.257832         744.521         577.307         747.004 
       0.263955         716.295         547.131         716.402 
       0.270079         685.422         516.453         689.547 
        0.27624         673.824         487.537         661.314 
       0.282372          646.28         462.341         642.553 
        0.28843         632.719         441.574         624.866 
       0.294538         598.826         424.301         605.242 
       0.300721         593.862          409.37         587.597 
        0.30691         568.124         395.572         576.594 
       0.313033         555.493         381.894          555.38 
       0.319153         539.503         367.618         538.343 
       0.325316         523.381         352.634         523.896 
        0.33145         507.129         337.607         503.169 
       0.337538         496.538          323.22         490.134 
       0.343633         482.221         309.878         482.888 
       0.349808         463.305         297.779         472.368 
       0.355968         458.787         287.057         461.692 
       0.362074         452.128         277.537         450.914 
       0.368217         438.056         268.648         437.064 
       0.374374         418.287         260.065         426.552 
       0.380519         416.594          251.59         415.303 
       0.386598         404.139         243.183         410.561 
       0.392688         400.602         234.844          397.62 
        0.39888         388.769         226.583         389.543 
       0.405048         380.446         218.738          381.95 
       0.411186         374.312          211.45          372.09 
       0.417313         366.389         204.698         364.562 
       0.423458         357.323         198.404         358.241 
       0.429607         352.631         192.501         351.389 
       0.435692         342.859         186.924         341.583 
       0.441815         338.761         181.475          338.05 
       0.447964         330.799         176.134         332.241 
       0.454126         324.369         170.903         322.482 
       0.460267         317.174         165.823         320.144 
       0.466387         312.759          160.94         314.233 
        0.47254         307.477         156.255         308.311 
       0.478662         305.522         151.827         301.955 
       0.484765         293.999         147.632         296.442 
       0.490885         290.859         143.629         291.215 
       0.497035          284.98         139.784          287.17 
       0.503198         281.085         136.074         282.926 
       0.509342         279.047         132.486         278.215 
       0.515458         274.932         129.014         274.657 
       0.521598         267.119         125.635         270.005 
       0.527764         264.013         122.353         267.242 
       0.533884         260.784          119.21         263.246 
           0.54         256.915         116.186         258.202 
       0.546137         255.108         113.267         254.968 
       0.552299         249.983         110.453         250.786 
       0.558452         248.341         107.752         247.469 
       0.564573         244.767         105.161         245.251 
       0.570708         239.445         102.646         242.252 
       0.576825         235.068         100.214         237.198 
       0.582926         232.789           97.86         234.891 
       0.589034         230.008         95.5751         231.913 
       0.595184         228.129         93.3477         227.681 
       0.601379          223.57         91.1785             225 
       0.607522         220.977         89.0984         221.537 
       0.613639         218.834         87.0942         220.935 
       0.619772         214.798         85.1486         218.955 
       0.625918         213.554           83.26         214.596 
       0.632068          209.47         81.4283         212.064 
       0.638161         208.283         79.6686         210.717 
         0.6443         204.989         77.9486         207.959 
       0.650464         202.846         76.2732         203.711 
       0.656582         199.861         74.6588         202.283 
       0.662703          199.69         73.0905         200.283 
       0.668861         196.549         71.5581         198.775 
       0.675024         193.479         70.0685          196.65 
       0.681124         191.682         68.6365         193.361 
       0.687237         189.689         67.2419         191.333 
       0.693381         186.536         65.8801         189.141 
       0.699536         184.673         64.5542         187.627 
       0.705665         182.812         63.2709          184.97 
       0.711789         181.472         62.0241         184.033 
       0.717957         180.369         60.8028         182.652 
        0.72409         178.302         59.6214         180.385 
       0.730186         175.729         58.4787         178.345 
       0.736317         173.876           57.36         176.636 
       0.742472         172.177         56.2665         174.691 
       0.748622          170.86         55.2027         172.941 
        0.75476         168.835         54.1688         172.514 
       0.760888          167.04         53.1631          169.72 
       0.767043         166.384          52.179         168.409 
       0.773185         164.916         51.2221         167.098 
       0.779291         161.823         50.2947         165.042 
       0.785407         161.239          49.389         163.565 
       0.791564         159.689         48.5001         162.061 
       0.797719         157.031         47.6336         160.863 
       0.803834         155.917         46.7939         159.749 
       0.809972         155.277         45.9715         158.251 
       0.816124         154.029         45.1673         156.739 
       0.822261         152.962         44.3845         155.765 
       0.828378         151.229         43.6227         154.068 
       0.834502         150.206         42.8783          152.65 
       0.840667         148.383         42.1464          151.25 
       0.846816         147.133         41.4338           150.3 
       0.852925         146.036         40.7423         149.182 
       0.859047         145.029         40.0651         148.016 
       0.865192         142.884         39.4012          146.32 
       0.871341         141.729          38.752           145.3 
       0.877463         140.942         38.1204         144.495 
       0.883569         140.251         37.5045         143.918 
       0.889708         138.381         36.8992         142.057 
       0.895864         137.345         36.3057         141.192 
       0.902008         136.182         35.7265         139.809 
       0.908149          135.56         35.1604         138.782 
       0.914301         133.708         34.6057          137.59 
       0.920448         132.971         34.0635         136.706 
       0.926574         131.664         33.5348          135.55 
       0.932687          131.61         33.0186         134.755 
       0.938823         129.625         32.5114         133.894 
       0.944975         129.047         32.0137         132.746 
       0.951105         127.959         31.5283         131.745 
       0.957225         127.315         31.0539         130.744 
       0.963368         125.114         30.5876         129.852 
       0.969511         124.737          30.131         128.764 
       0.975621         123.561         29.6861         128.233 
       0.981748         123.358         29.2492         127.398 
       0.987916         122.106         28.8183         126.384 
        0.99406         121.152         28.3977         125.391 
        1.00019         120.613         27.9864         124.421 
        1.00632         119.326         27.5837          123.53 
        1.01246         118.575         27.1883         122.376 
        1.01859         118.201         26.8014         121.896 
        1.02471         116.538         26.4225         121.234 
        1.03085         115.668         26.0496         120.534 
        1.03698         115.042         25.6848         120.015 
        1.04314         113.776         25.3254         118.903 
        1.04929         113.653         24.9737          118.09 
        1.05541         112.647         24.6302          117.52 
        1.06154         111.866         24.2922         116.803 
        1.06769         111.482         23.9601          116.03 
        1.07382         110.257         23.6353         115.374 
        1.07993         109.516         23.3173         114.624 
        1.08607         108.897         23.0039         113.734 
        1.09222         108.284         22.6959          113.16 
        1.09836         107.396         22.3939         112.349 
        1.10449         106.304         22.0977         111.988 
        1.11063         105.658         21.8067         111.095 
        1.11677         104.866         21.5209         110.279 
         1.1229         104.162         21.2408         109.665 
        1.12903         103.822         20.9655         108.981 
        1.13518         103.119         20.6948         108.432 
        1.14131         102.018         20.4291         107.536 
        1.14745         101.902         20.1682         106.928 
        1.15359         100.824         19.9118          106.48 
        1.15973         100.311         19.6597         105.877 
        1.16584         99.5278         19.4132         105.128 
        1.17197         98.9883         19.1706         104.722 
        1.17811          98.067         18.9313         103.937 
        1.18424         97.8446         18.6969         103.209 
        1.19038         97.5502         18.4658         102.999 
        1.19652         96.6112         18.2386         102.186 
        1.20267         95.8587         18.0153         101.701 
        1.20881         95.4189         17.7958         100.965 
        1.21495         94.3876         17.5803         100.556 
        1.22108          94.121         17.3684          99.907 
         1.2272         93.2344         17.1605         99.3212 
        1.23334         92.8189         16.9556         98.9993 
        1.23949         92.2511         16.7535         98.3601 
        1.24562         91.6465         16.5553         97.4911 
        1.25174         91.3008         16.3606         96.9953 
        1.25789           90.65         16.1684          96.427 
        1.26402         89.4774         15.9797         96.1723 
        1.27014         89.2002         15.7944         95.6502 
        1.27628         88.8597         15.6115         95.3637 
        1.28244          88.496         15.4312         94.6473 
        1.28858         87.8616          15.254         94.1203 
        1.29471         87.0915         15.0799         93.6113 
        1.30084         86.9765         14.9087          92.918 
        1.30697         85.8994         14.7399         92.4688 
        1.31312         85.5092         14.5735         91.9813 
        1.31925         84.9453         14.4102         91.6501 
        1.32537         84.5506         14.2496         91.2554 
        1.33151         83.9804         14.0908         90.6972 
        1.33765         83.3972         13.9346         90.2506 
        1.34378         82.9888          13.781         89.8194 
        1.34992         82.6785         13.6297         89.2386 
        1.35606         82.1985         13.4803         88.7648 
         1.3622         81.4104         13.3334         88.3907 
        1.36833         80.9988         13.1891          87.817 
        1.37445         80.6825         13.0469         87.4669 
        1.38059         79.9254         12.9065         86.7749 
        1.38675         79.3908         12.7677         86.4347 
        1.39288         79.2718         12.6316         85.8942 
        1.39901         78.7183         12.4975         85.6138 
        1.40515         78.0324          12.365         85.3072 
         1.4113         77.8418         12.2346         84.9209 
        1.41742         77.2202         12.1065         84.4735 
        1.42355          76.884           11.98          83.896 
         1.4297            76.4         11.8549         83.6146 
        1.43585         75.8701         11.7316         83.0942 
        1.44198         75.4965         11.6106         82.9175 
        1.44809         75.2438         11.4915          82.397 
        1.45423          74.828         11.3737         81.8145 
        1.46036         74.1831         11.2577         81.4599 
        1.46649         73.7826         11.1433         81.2131 
        1.47263         73.1534         11.0304         80.8631 
        1.47877         72.7789         10.9191         80.2974 
        1.48491         72.4231         10.8092          79.899 
        1.49104         72.1416          10.701         79.7184 
        1.49718         71.7223         10.5943         79.1369 
        1.50333         71.3413         10.4888         78.7293 
        1.50947         70.7769         10.3849         78.4622 
         1.5156         70.6022         10.2827         78.0933 
        1.52172         70.1747         10.1818         77.6569 
        1.52787          69.597          10.082         77.3083 
          1.534          69.245         9.98372         77.0111 
        1.54013         68.8832         9.88684         76.6862 
        1.54627         68.5331         9.79107         76.3143 
        1.55241         68.1966         9.69655         75.9012 
        1.55855         67.7358         9.60341         75.4998 
        1.56467         67.4002         9.51175         75.2415 
         1.5708         66.8532         9.42103         74.8688 
        1.57695         66.8113         9.33136         74.4964 
        1.58308          66.418         9.24306          74.236 
        1.58922         66.0034         9.15584         73.8826 
        1.59535         65.6067         9.06979         73.5827 
         1.6015         65.3251         8.98472         73.1804 
        1.60764         64.8529         8.90078         72.8001 
        1.61376          64.571         8.81814         72.6021 
        1.61989          64.196         8.73649         72.2729 
        1.62604         63.8179         8.65569         71.7241 
        1.63218         63.6597         8.57597         71.3785 
        1.63831         63.0283         8.49743         71.2753 
        1.64444         62.6499         8.41985         70.9275 
        1.65059         62.3109         8.34305         70.5645 
        1.65673         61.9687         8.26729         70.2061 
        1.66285         61.7685         8.19268         69.9176 
        1.66898         61.4777         8.11897         69.6784 
        1.67512         60.8838         8.04603         69.3172 
        1.68127         60.7341         7.97391         69.0639 
         1.6874         60.2932         7.90284         68.8075 
        1.69353         59.9847         7.83267         68.3572 
        1.69967         59.8365         7.76319         68.0915 
        1.70581         59.3695         7.69459         67.8505 
        1.71193         59.0133         7.62707         67.5407 
        1.71806         58.7746         7.56021         67.2529 
        1.72421         58.4539         7.49403         66.9639 
        1.73035         58.1401         7.42872         66.6706 
        1.73649         57.8909          7.3642         66.3682 
        1.74262         57.4635         7.30049         66.0474 
        1.74876         57.2289          7.2375         65.7748 
        1.75489         56.8867         7.17538         65.5166 
        1.76101         56.6219         7.11401         65.2331 
        1.76715         56.2057         7.05327         64.9524 
        1.77329         55.9569         6.99317         64.6438 
        1.77943          55.646         6.93374         64.3475 
        1.78557          55.473         6.87509         64.1034 
        1.79171         55.0126         6.81711         63.8392 
        1.79785         54.6642         6.75978         63.5398 
        1.80399         54.4704         6.70313         63.2417 
        1.81012         54.2073          6.6472         62.9939 
        1.81625         53.9384         6.59194          62.744 
        1.82239         53.5612         6.53721          62.468 
        1.82853         53.3844         6.48314          62.206 
        1.83466         53.1319         6.42973         61.9242 
        1.84078         52.7131         6.37697         61.6662 
        1.84692         52.5187         6.32472         61.4959 
        1.85306         52.2245           6.273         61.1971 
         1.8592         52.0515         6.22193         60.8564 
        1.86533         51.6541         6.17145         60.6631 
        1.87147         51.3102         6.12148         60.4321 
        1.87761         51.0679         6.07204         60.1545 
