# k  (h/Mpc)    P(k)  (Mpc/h)^3    P_linear(k)  (Mpc/h)^3     P_NL(k)  ShotnoiseSubtracted = false
     0.00783031         27789.5         28283.9         28001.1 
       0.013688         32025.9         31601.7         31328.2 
       0.019231         29333.2         29194.9         28939.3 
      0.0249154         24002.7         24584.8         24382.7 
      0.0312784           19115         19290.8           19159 
      0.0375637         15331.2         15188.9           15130 
      0.0433917         12521.8         12640.8         12575.9 
      0.0492413         11113.5         11081.5         11029.6 
      0.0555754         9835.57         10093.8         10053.4 
      0.0619321         9491.16         9380.25         9337.15 
       0.067871         8476.77         8662.78         8635.89 
      0.0738098         7647.35         7778.42         7677.35 
      0.0800417         6590.07          6721.5         6700.25 
      0.0862327         5722.71          5691.6         5812.61 
      0.0921407         5080.12         4862.79         5028.54 
      0.0982031         4429.74         4238.82         4508.44 
       0.104506         4152.38         3828.63         4155.85 
       0.110769         3865.33         3599.13         3841.69 
       0.116806         3700.57         3461.58         3650.94 
       0.122832         3529.79         3327.19         3492.86 
       0.129052            3247         3136.67         3279.73 
       0.135211         3020.84         2883.26         3039.44 
       0.141259          2841.6         2596.38         2817.79 
       0.147318         2625.77          2312.9         2608.25 
       0.153489         2369.89         2066.19         2347.36 
       0.159709         2221.79         1880.77         2204.11 
       0.165845         2134.19         1759.35         2122.85 
       0.171974         2038.73         1683.14         2017.95 
       0.178125         1943.47         1628.54         1967.12 
       0.184229         1848.87         1573.68         1872.69 
        0.19034         1755.58          1503.4         1781.13 
       0.196428         1697.83         1414.58          1688.8 
       0.202534         1617.88         1313.11         1607.78 
       0.208729         1527.82         1209.53         1500.46 
       0.214876         1465.24         1117.59          1452.4 
       0.220989         1403.96         1043.67         1399.85 
       0.227147         1351.11         987.854         1354.02 
        0.23329         1294.72         946.999         1316.88 
       0.239377          1270.8         914.792         1265.99 
       0.245482         1192.37         884.183         1212.95 
       0.251667         1182.83         850.004         1179.98 
       0.257832         1129.96         811.012         1130.62 
       0.263955         1087.72         768.621         1088.44 
       0.270079         1046.24         725.524         1050.42 
        0.27624         1029.09         684.902          1011.5 
       0.282372         987.639         649.506         989.618 
        0.28843          977.85         620.332         968.318 
       0.294538         926.762         596.066         937.001 
       0.300721         917.338         575.091         909.645 
        0.30691         884.201         555.708         897.368 
       0.313033         863.679         536.492          865.21 
       0.319153          845.83         516.438          839.27 
       0.325316          819.82         495.387         820.181 
        0.33145         798.782         474.277         789.321 
       0.337538         779.268         454.066         772.331 
       0.343633         764.027         435.324         760.792 
       0.349808         734.849         418.326         747.309 
       0.355968         728.317         403.263         729.826 
       0.362074         720.477          389.89         716.399 
       0.368217         695.969         377.402         698.805 
       0.374374         670.297         365.345         682.572 
       0.380519         669.223         353.439         667.195 
       0.386598         647.174         341.629         658.897 
       0.392688         643.113         329.914         643.193 
        0.39888         623.335         318.309          628.56 
       0.405048         616.257         307.288         615.314 
       0.411186         606.728         297.049         604.547 
       0.417313         594.366         287.564         594.645 
       0.423458         579.466         278.722         583.152 
       0.429607         574.923         270.429         574.515 
       0.435692         559.583         262.595         558.507 
       0.441815         552.389          254.94         554.503 
       0.447964         542.026         247.437          547.65 
       0.454126         536.608         240.088         531.844 
       0.460267         522.575         232.951         528.454 
       0.466387          514.81         226.092         519.943 
        0.47254         513.556          219.51         510.747 
       0.478662         504.684          213.29         501.486 
       0.484765         488.771         207.397         494.966 
       0.490885         484.041         201.773         485.019 
       0.497035         474.311         196.371         479.756 
       0.503198         470.191         191.159         473.952 
       0.509342         466.868         186.119         465.084 
       0.515458         462.169         181.242         459.717 
       0.521598         448.326         176.494         454.318 
       0.527764         444.056         171.884         450.244 
       0.533884         438.686         167.469         444.354 
           0.54         433.608          163.22         437.525 
       0.546137         429.378          159.12         432.446 
       0.552299         423.862         155.167         426.377 
       0.558452         419.224         151.373         421.737 
       0.564573         414.618         147.732         417.687 
       0.570708         408.023           144.2         411.736 
       0.576825         400.101         140.783         405.447 
       0.582926         398.488         137.476         402.484 
       0.589034          393.18         134.266         396.805 
       0.595184         390.646         131.137         391.283 
       0.601379         382.439         128.089         386.812 
       0.607522         378.794         125.167         380.507 
       0.613639         374.944         122.352         379.659 
       0.619772         371.116         119.619         377.252 
       0.625918         367.913         116.965         371.355 
       0.632068         361.527         114.392         368.793 
       0.638161          358.59          111.92         364.805 
         0.6443         354.783         109.504         359.934 
       0.650464         351.874          107.15         354.577 
       0.656582         346.367         104.882         352.195 
       0.662703         345.882         102.679          349.13 
       0.668861         341.396         100.526         347.625 
       0.675024         337.752         98.4337         344.025 
       0.681124         334.047          96.422         339.262 
       0.687237         331.694         94.4629         335.563 
       0.693381          326.27         92.5498         332.223 
       0.699536          321.88          90.687         330.162 
       0.705665         320.243         88.8843         325.019 
       0.711789         318.981         87.1328         323.272 
       0.717957         315.456          85.417         321.915 
        0.72409         313.888         83.7574          317.26 
       0.730186         309.427         82.1522         313.907 
       0.736317         307.171         80.5805         312.421 
       0.742472         303.508         79.0444         310.362 
       0.748622          301.35         77.5499         306.414 
        0.75476          297.28         76.0975         306.406 
       0.760888         294.204         74.6846         302.614 
       0.767043         293.254         73.3022         298.975 
       0.773185         290.727         71.9578         297.053 
       0.779291         287.318          70.655         294.107 
       0.785407         285.949         69.3827         291.776 
       0.791564         283.191         68.1339          289.83 
       0.797719         280.835         66.9167          287.59 
       0.803834          276.85          65.737         285.697 
       0.809972         275.972         64.5818         283.022 
       0.816124         274.499         63.4519         280.366 
       0.822261         272.238         62.3523         279.251 
       0.828378         269.796         61.2821         276.707 
       0.834502         266.189         60.2363         274.761 
       0.840667         264.682         59.2082         272.491 
       0.846816         263.349         58.2071         270.677 
       0.852925         261.777         57.2356         268.722 
       0.859047         259.064         56.2843         266.054 
       0.865192         256.161         55.3517         263.981 
       0.871341         253.879         54.4396         261.985 
       0.877463         254.117         53.5523         260.795 
       0.883569         250.963         52.6871         260.331 
       0.889708         248.965         51.8367         256.903 
       0.895864         248.841          51.003         255.789 
       0.902008         245.703         50.1894         253.078 
       0.908149         242.962          49.394         251.069 
       0.914301         241.351         48.6147         249.032 
       0.920448         239.271         47.8531         248.069 
       0.926574         237.024         47.1104         246.508 
       0.932687         236.487         46.3852          243.92 
       0.938823         233.483         45.6727         243.628 
       0.944975          233.28         44.9736         241.662 
       0.951105         231.104         44.2917         240.146 
       0.957225         229.863         43.6252         238.162 
       0.963368         226.609         42.9701         236.545 
       0.969511         225.601         42.3286         235.172 
       0.975621         224.327         41.7037         233.559 
       0.981748         222.426         41.0898         232.814 
       0.987916         221.218         40.4845         230.743 
        0.99406         219.451         39.8937         229.398 
        1.00019         217.521         39.3159         227.813 
        1.00632         216.863         38.7502         226.004 
        1.01246         214.776         38.1948         224.468 
        1.01859         213.797         37.6512          223.35 
        1.02471         211.467         37.1189         221.778 
        1.03085         210.573          36.595         220.741 
        1.03698         208.641         36.0825         219.952 
        1.04314         207.632         35.5776         218.056 
        1.04929         206.307         35.0836         216.419 
        1.05541         204.811         34.6009         215.393 
        1.06154         202.674         34.1262         214.512 
        1.06769         202.321         33.6597         212.957 
        1.07382         200.649         33.2034         211.592 
        1.07993         199.373         32.7567         210.523 
        1.08607         198.545         32.3163         208.893 
        1.09222         196.629         31.8836         207.801 
        1.09836         194.948         31.4594         206.704 
        1.10449          193.63         31.0434         206.104 
        1.11063         191.963         30.6344         204.296 
        1.11677         191.427          30.233         203.158 
         1.1229         189.181         29.8396         201.835 
        1.12903         188.389         29.4528         200.554 
        1.13518         187.468         29.0725         199.315 
        1.14131         186.066         28.6992         198.524 
        1.14745         185.643         28.3327          196.77 
        1.15359         183.576         27.9725         196.343 
        1.15973         182.392         27.6184         194.944 
        1.16584         181.554         27.2721          194.49 
        1.17197         181.151         26.9312         193.248 
        1.17811         179.006         26.5951         191.842 
        1.18424          177.92         26.2658         190.696 
        1.19038         176.799         25.9411         190.143 
        1.19652         175.231          25.622         188.409 
        1.20267         175.346         25.3083         188.041 
        1.20881         173.293         24.9999         186.862 
        1.21495         172.517         24.6972         185.648 
        1.22108         171.222         24.3995         184.721 
         1.2272         169.981         24.1075         184.095 
        1.23334         169.837         23.8196         182.947 
        1.23949         167.789         23.5357         181.831 
        1.24562         166.897         23.2572         180.511 
        1.25174         165.973         22.9837         179.714 
        1.25789         165.268         22.7137         178.542 
        1.26402         163.526         22.4486         177.925 
        1.27014         163.075         22.1883         176.927 
        1.27628         161.425         21.9314           176.5 
        1.28244          161.11         21.6781         175.324 
        1.28858         159.581         21.4291         174.546 
        1.29471         159.092         21.1846         173.642 
        1.30084         157.479         20.9441         172.282 
        1.30697           156.6          20.707         171.453 
        1.31312         155.257         20.4732         170.627 
        1.31925         154.479         20.2438         169.839 
        1.32537         154.023         20.0181         168.924 
        1.33151         152.668         19.7951         168.183 
        1.33765          151.81         19.5756         167.315 
        1.34378         150.922         19.3599         166.328 
        1.34992          150.25         19.1473          165.47 
        1.35606          149.34         18.9374          164.47 
         1.3622         147.716         18.7311         164.091 
        1.36833         147.263         18.5283         163.116 
        1.37445         146.254         18.3286         162.051 
        1.38059         145.496         18.1313         161.459 
        1.38675         144.914         17.9364          160.45 
        1.39288         143.563         17.7451         159.937 
        1.39901         142.558         17.5567         159.068 
        1.40515         142.161         17.3707         158.062 
         1.4113         141.089         17.1874         157.154 
        1.41742         140.012         17.0074         156.437 
        1.42355         139.456         16.8297         155.782 
         1.4297         138.208          16.654          154.93 
        1.43585         137.428         16.4808         154.446 
        1.44198         137.382         16.3108           153.7 
        1.44809         135.997         16.1436         152.728 
        1.45423          135.54          15.978         151.983 
        1.46036         134.417         15.8151         151.228 
        1.46649         133.694         15.6544         150.563 
        1.47263         132.775         15.4958         149.866 
        1.47877         132.005         15.3394         148.795 
        1.48491          131.12          15.185         148.158 
        1.49104         130.645          15.033         147.615 
        1.49718         129.112          14.883         146.953 
        1.50333          128.51         14.7349         146.008 
        1.50947         127.747          14.589         145.296 
         1.5156         127.299         14.4453         144.842 
        1.52172         126.342         14.3036         144.271 
        1.52787          125.44         14.1634         143.385 
          1.534         124.912         14.0253         142.683 
        1.54013         124.114         13.8892         142.218 
        1.54627         123.378         13.7547         141.612 
        1.55241         122.522         13.6219          140.83 
        1.55855         121.776         13.4911         140.033 
        1.56467         120.705         13.3623         139.379 
         1.5708         120.202         13.2349         138.667 
        1.57695         119.981         13.1089         138.022 
        1.58308         119.128         12.9848         137.534 
        1.58922         118.454         12.8623         136.914 
        1.59535         117.489         12.7414          136.19 
         1.6015         116.918         12.6219         135.624 
        1.60764         116.527          12.504         134.986 
        1.61376         115.586         12.3879         134.241 
        1.61989         114.744         12.2732         133.775 
        1.62604         114.132         12.1597         132.994 
        1.63218         113.668         12.0477         132.269 
        1.63831          112.98         11.9374          131.83 
        1.64444           112.3         11.8284         131.264 
        1.65059         111.257         11.7205         130.659 
        1.65673         110.936         11.6141         129.963 
        1.66285         110.293         11.5093         129.406 
        1.66898         109.732         11.4057         129.025 
        1.67512         108.693         11.3032         128.336 
        1.68127         108.436         11.2019          127.69 
         1.6874         107.994         11.1021         127.173 
        1.69353         107.142         11.0035         126.619 
        1.69967         106.468         10.9059         126.073 
        1.70581         105.516         10.8095          125.45 
        1.71193          104.86         10.7147          124.83 
        1.71806         104.744         10.6207         124.381 
        1.72421         103.925         10.5278         123.888 
        1.73035         103.544          10.436         123.332 
        1.73649         102.897         10.3454         122.687 
        1.74262         102.285         10.2559         121.902 
        1.74876         101.452         10.1674         121.367 
        1.75489         100.984         10.0801          121.02 
        1.76101          100.28         9.99391         120.594 
        1.76715         100.022         9.90858         119.963 
        1.77329         99.0843         9.82415         119.419 
        1.77943         98.8694         9.74066         118.993 
        1.78557         98.3677         9.65827           118.5 
        1.79171         97.3758         9.57681         117.848 
        1.79785         97.2252         9.49628         117.256 
        1.80399         96.4217          9.4167         116.902 
        1.81012          96.074         9.33813         116.426 
        1.81625         95.4711         9.26049          115.85 
        1.82239         95.0382         9.18361         115.342 
        1.82853         94.2765         9.10765         114.881 
        1.83466          93.894         9.03261         114.362 
        1.84078         93.3593          8.9585         113.826 
        1.84692         92.6248          8.8851         113.395 
        1.85306         92.4482         8.81243         112.884 
         1.8592         91.6832         8.74069         112.342 
        1.86533         91.1504         8.66978           111.9 
        1.87147         90.7034         8.59958         111.384 
        1.87761         89.9782         8.53012         110.873 
