# k  (h/Mpc)    Pcb(k)  (Mpc/h)^3    Pcb_linear(k) (Mpc/h)^3    Pcb_NL(k) (Mpc/h)^3   ShotnoiseSubtracted = false
     0.00783031         9009.41         9130.01          9047.9 
       0.013688         10237.4         10174.1         10105.1 
       0.019231         9429.78         9394.22         9335.71 
      0.0249154         7819.76         7909.31         7874.65 
      0.0312784         6198.81         6205.61         6198.69 
      0.0375637         4926.03         4885.91         4887.76 
      0.0433917          4057.7         4066.18         4067.55 
      0.0492413         3577.87         3564.57         3566.96 
      0.0555754         3211.17         3246.81         3246.15 
      0.0619321         3050.11         3017.29         3014.25 
       0.067871         2764.18          2786.5         2783.82 
      0.0738098          2484.6         2502.03         2491.77 
      0.0800417         2140.93         2162.06         2161.49 
      0.0862327          1835.4         1830.77         1847.37 
      0.0921407         1594.15         1564.18         1586.39 
      0.0982031         1382.75         1363.47         1398.03 
       0.104506         1277.62         1231.53         1272.51 
       0.110769         1193.61         1157.71         1186.72 
       0.116806         1137.79         1113.46         1135.53 
       0.122832         1096.32         1070.23         1089.97 
       0.129052         1018.09         1008.95         1025.26 
       0.135211          941.31         927.435         946.438 
       0.141259         865.638         835.159         861.612 
       0.147318         783.754         743.973         781.695 
       0.153489         700.823         664.616         698.694 
       0.159709         647.929         604.975         644.021 
       0.165845         614.449         565.919         611.556 
       0.171974         582.101         541.403         581.043 
       0.178125         561.562          523.84         564.795 
       0.184229         541.465         506.196         542.557 
        0.19034         505.921         483.587         516.567 
       0.196428         487.717         455.017         484.936 
       0.202534         463.142         422.379         455.664 
       0.208729         429.047         389.062         423.337 
       0.214876         399.502          359.49         401.759 
       0.220989           379.9          335.71         380.314 
       0.227147          359.75         317.756         361.967 
        0.23329          344.95         304.614         350.044 
       0.239377         336.093         294.255         337.101 
       0.245482         315.058         284.409         322.392 
       0.251667         309.853         273.416         312.825 
       0.257832         297.513         260.874         298.321 
       0.263955         284.004         247.237         284.335 
       0.270079         270.187         233.374         271.615 
        0.27624         262.734         220.307         258.296 
       0.282372         251.748         208.922         248.653 
        0.28843         241.595         199.538         239.556 
       0.294538         230.154         191.733         231.597 
       0.300721         226.726         184.985          224.94 
        0.30691         216.189         178.751         218.578 
       0.313033         210.324          172.57         210.326 
       0.319153         201.228         166.119         203.384 
       0.325316         196.213         159.348         197.072 
        0.33145         188.131         152.558         188.979 
       0.337538         184.023         146.056         182.266 
       0.343633         176.983         140.028         177.877 
       0.349808         170.686          134.56         173.078 
       0.355968         167.369         129.716         168.708 
       0.362074         162.709         125.413         163.483 
       0.368217         157.607         121.396         157.796 
       0.374374         151.897         117.518         153.497 
       0.380519         149.073         113.688         148.882 
       0.386598         144.755          109.89         145.598 
       0.392688          141.89         106.121         141.228 
        0.39888         137.995         102.389         137.258 
       0.405048         133.902         98.8433         134.226 
       0.411186         130.656         95.5497         130.547 
       0.417313         127.463         92.4989         126.694 
       0.423458         124.256         89.6546         123.901 
       0.429607           121.2         86.9872         121.077 
       0.435692         117.186         84.4672         117.917 
       0.441815         115.878         82.0051         115.935 
       0.447964         113.288         79.5914         112.989 
       0.454126         108.215         77.2276         109.539 
       0.460267         106.783         74.9319         108.141 
       0.466387         105.052         72.7256         105.407 
        0.47254          102.34         70.6084         103.178 
       0.478662         101.392         68.6077         101.044 
       0.484765          97.992          66.712         98.1625 
       0.490885         96.1679         64.9031         96.6435 
       0.497035         94.6704         63.1653         95.0051 
       0.503198         91.8627         61.4888          92.948 
       0.509342         90.1375         59.8678          91.298 
       0.515458         88.5422          58.299         89.9252 
       0.521598         86.8883         56.7719           87.45 
       0.527764         85.5431         55.2888         85.6445 
       0.533884         84.1387         53.8687         84.3043 
           0.54         82.1821          52.502         82.6591 
       0.546137         81.1616         51.1832         81.4725 
       0.552299         79.6889         49.9115         79.4543 
       0.558452         77.9565         48.6912         77.8977 
       0.564573          76.526           47.52         76.9832 
       0.570708         75.1043         46.3838         75.7034 
       0.576825         74.0228         45.2848         74.1066 
       0.582926         72.3492          44.221         72.8315 
       0.589034         71.0404         43.1884         72.0375 
       0.595184         69.9311         42.1819         70.5337 
       0.601379         68.7987         41.2017         69.6391 
       0.607522          67.254         40.2618         68.0591 
       0.613639         66.7768         39.3561         67.2982 
       0.619772         65.3629          38.477         66.1468 
       0.625918         64.3408         37.6235         65.1958 
       0.632068         63.5628         36.7958          64.073 
       0.638161          62.682         36.0006         63.2855 
         0.6443         61.7967         35.2234         62.1843 
       0.650464          60.917         34.4663         60.8901 
       0.656582         59.8311         33.7368         60.3522 
       0.662703         58.7424         33.0281         59.2548 
       0.668861         57.9139         32.3357         58.5621 
       0.675024         57.0985         31.6626         57.5612 
       0.681124         56.3644         31.0154         56.7465 
       0.687237         55.1928         30.3853         55.9487 
       0.693381         54.5225         29.7699         55.0391 
       0.699536          53.838         29.1707         54.5475 
       0.705665         53.7528         28.5909         53.9751 
       0.711789         52.3156         28.0275           52.86 
       0.717957         51.8154         27.4756         52.2972 
        0.72409         50.9735         26.9417         51.8059 
       0.730186         50.1109         26.4254          51.135 
       0.736317          49.925         25.9198         50.2883 
       0.742472         49.2275         25.4257         49.6951 
       0.748622          48.526          24.945         49.0188 
        0.75476         47.9628         24.4778         48.3457 
       0.760888         47.2005         24.0233         47.6669 
       0.767043         46.7051         23.5787         47.3636 
       0.773185           46.05         23.1462         46.8476 
       0.779291         45.5952         22.7272         46.2282 
       0.785407          45.194         22.3179         45.5241 
       0.791564         44.6292         21.9162         45.0285 
       0.797719         43.7255         21.5247         44.7102 
       0.803834         43.5024         21.1452         43.9979 
       0.809972         42.6453         20.7736         43.4815 
       0.816124         42.3086         20.4102         43.0807 
       0.822261         41.9184         20.0565         42.5081 
       0.828378         41.6278         19.7122         41.9122 
       0.834502         41.0623         19.3758         41.5708 
       0.840667         40.5571         19.0451         41.2596 
       0.846816         39.9469         18.7231         40.7749 
       0.852925         39.6189         18.4106         40.3134 
       0.859047         39.0278         18.1046          39.823 
       0.865192         38.7007         17.8046         39.4547 
       0.871341         38.4442         17.5112         39.0062 
       0.877463         37.7234         17.2258          38.616 
       0.883569         37.4266         16.9475         38.3569 
       0.889708          37.133          16.674         37.8932 
       0.895864         36.7257         16.4058         37.5244 
       0.902008         36.3482         16.1441         37.0622 
       0.908149         36.0087         15.8883         36.8036 
       0.914301         35.6711         15.6376         36.5156 
       0.920448         35.3469         15.3926         36.0736 
       0.926574         34.8486         15.1537         35.6843 
       0.932687         34.6551         14.9204         35.3816 
       0.938823         34.0988         14.6912         34.9323 
       0.944975         33.8593         14.4664         34.6555 
       0.951105         33.4811          14.247         34.3771 
       0.957225          33.088         14.0326         34.0289 
       0.963368         33.0397         13.8219         33.6781 
       0.969511         32.6535         13.6156         33.3527 
       0.975621         32.4315         13.4146          33.184 
       0.981748         31.9816         13.2171         32.8746 
       0.987916         31.6375         13.0224         32.6278 
        0.99406         31.4731         12.8324         32.2296 
        1.00019         31.1053         12.6465         31.9113 
        1.00632           30.88         12.4645          31.655 
        1.01246         30.6889         12.2859         31.3617 
        1.01859         30.2072          12.111         31.2181 
        1.02471         30.0644         11.9398         30.9752 
        1.03085          29.817         11.7713         30.6145 
        1.03698         29.4527         11.6064         30.3343 
        1.04314         29.2471          11.444         30.0456 
        1.04929         28.9689         11.2851         29.8699 
        1.05541         28.6463         11.1299         29.7295 
        1.06154         28.5842         10.9772           29.42 
        1.06769         28.2283         10.8271         29.1564 
        1.07382         28.0857         10.6803         28.9436 
        1.07993          27.875         10.5366         28.7008 
        1.08607         27.5891          10.395         28.5014 
        1.09222         27.3897         10.2558         28.2591 
        1.09836         27.1354         10.1193         28.0325 
        1.10449          26.928         9.98553         27.8283 
        1.11063         26.5905         9.85399         27.5387 
        1.11677         26.4299         9.72488         27.3079 
         1.1229         26.2457         9.59831         27.1882 
        1.12903         25.8949         9.47389         26.9797 
        1.13518         25.9328         9.35157          26.756 
        1.14131         25.7212         9.23149         26.5482 
        1.14745         25.3421         9.11359         26.4022 
        1.15359          25.292         8.99774          26.144 
        1.15973         24.9627         8.88385         25.9972 
        1.16584         24.8157         8.77245         25.7411 
        1.17197         24.6673          8.6628         25.6372 
        1.17811         24.4812          8.5547         25.4085 
        1.18424         24.2643         8.44876          25.225 
        1.19038         24.1034         8.34431         25.0808 
        1.19652         24.0274         8.24167         24.8324 
        1.20267         23.7911         8.14077         24.7186 
        1.20881         23.5899         8.04157         24.5603 
        1.21495         23.3904          7.9442         24.3871 
        1.22108         23.2507         7.84845         24.2113 
         1.2272         22.9738         7.75451         24.0828 
        1.23334         22.8942          7.6619         23.8919 
        1.23949         22.8336         7.57058         23.6745 
        1.24562         22.5359         7.48101         23.5416 
        1.25174         22.4543         7.39302         23.4244 
        1.25789         22.2871         7.30618         23.2524 
        1.26402         22.0991         7.22089         23.0628 
        1.27014         21.8923         7.13718         22.9567 
        1.27628         21.7589         7.05454         22.7939 
        1.28244         21.6397         6.97305         22.6701 
        1.28858         21.5149         6.89296         22.5049 
        1.29471         21.4123         6.81431         22.3988 
        1.30084         21.2664         6.73696         22.2387 
        1.30697         21.0756         6.66069         22.0497 
        1.31312         20.9085          6.5855         21.9368 
        1.31925          20.782          6.5117         21.8009 
        1.32537         20.6528         6.43912         21.6944 
        1.33151         20.5002         6.36738         21.5428 
        1.33765         20.4106         6.29677         21.3992 
        1.34378         20.2528         6.22738         21.3009 
        1.34992         20.0954         6.15899         21.1692 
        1.35606         19.9849         6.09149          21.039 
         1.3622         19.8742         6.02511         20.9192 
        1.36833         19.6814         5.95988         20.8263 
        1.37445         19.6418         5.89566         20.6872 
        1.38059         19.4794         5.83218         20.5732 
        1.38675         19.2666         5.76949         20.4561 
        1.39288         19.2627         5.70796         20.3317 
        1.39901         19.0891         5.64737         20.1972 
        1.40515         18.9632         5.58752         20.0774 
         1.4113         18.8568         5.52855         19.9562 
        1.41742         18.7101         5.47067         19.8391 
        1.42355         18.6381          5.4135         19.7629 
         1.4297         18.5264         5.35698          19.606 
        1.43585         18.4635          5.3013         19.5243 
        1.44198         18.2417         5.24661         19.4216 
        1.44809          18.173          5.1928         19.3047 
        1.45423         18.0667         5.13955         19.1687 
        1.46036         17.9993         5.08714         19.0713 
        1.46649         17.8632         5.03545         18.9993 
        1.47263          17.733         4.98443         18.9138 
        1.47877           17.68         4.93414         18.7949 
        1.48491         17.6348         4.88447          18.698 
        1.49104         17.4498         4.83559         18.5914 
        1.49718         17.3015         4.78734         18.5011 
        1.50333         17.2675         4.73967         18.3887 
        1.50947         17.1757         4.69275         18.2937 
         1.5156          17.076         4.64653         18.2153 
        1.52172           16.96         4.60094         18.1185 
        1.52787         16.8739         4.55587         18.0074 
          1.534         16.7782         4.51145         17.9112 
        1.54013         16.6426         4.46767         17.8117 
        1.54627         16.5858         4.42439         17.7153 
        1.55241         16.4341         4.38168         17.6324 
        1.55855         16.3822         4.33959         17.5496 
        1.56467          16.242         4.29817         17.4776 
         1.5708         16.2424         4.25718         17.3813 
        1.57695         16.0781         4.21666         17.2814 
        1.58308         16.0133         4.17676         17.2063 
        1.58922         15.9442         4.13735         17.1217 
        1.59535         15.8384         4.09846          17.026 
         1.6015         15.7318         4.06002         16.9384 
        1.60764         15.6629         4.02209         16.8509 
        1.61376         15.5315         3.98475         16.7706 
        1.61989         15.4551         3.94785         16.7185 
        1.62604         15.4276         3.91134         16.6359 
        1.63218         15.3513         3.87531         16.5575 
        1.63831         15.2389         3.83982         16.4975 
        1.64444         15.1626         3.80476         16.4075 
        1.65059         15.0729         3.77006         16.3145 
        1.65673         14.9597         3.73583         16.2404 
        1.66285         14.9492         3.70211         16.1815 
        1.66898         14.8573         3.66881         16.1104 
        1.67512         14.7814         3.63584         16.0091 
        1.68127         14.6842         3.60325         15.9392 
         1.6874         14.5961         3.57114         15.8658 
        1.69353         14.5426         3.53943         15.7436 
        1.69967         14.4489         3.50804         15.6963 
        1.70581         14.3647         3.47703         15.6541 
        1.71193         14.3265         3.44652         15.5836 
        1.71806         14.2204         3.41631         15.5216 
        1.72421          14.143         3.38641         15.4423 
        1.73035         14.0536         3.35689         15.3836 
        1.73649         14.0399         3.32774         15.3345 
        1.74262         13.9437         3.29895          15.222 
        1.74876         13.9042         3.27048         15.1319 
        1.75489         13.8101         3.24241         15.0878 
        1.76101         13.7284         3.21468         15.0502 
        1.76715         13.6709         3.18724         14.9711 
        1.77329          13.623         3.16008         14.8847 
        1.77943         13.5336         3.13322         14.8123 
        1.78557         13.4685         3.10672         14.7494 
        1.79171         13.3912         3.08052         14.6966 
        1.79785         13.3077         3.05462         14.6448 
        1.80399         13.2807         3.02901         14.5838 
        1.81012          13.222         3.00374          14.517 
        1.81625          13.165         2.97877         14.4544 
        1.82239         13.1017         2.95404          14.399 
        1.82853         13.0076          2.9296         14.3448 
        1.83466         12.9521         2.90547         14.2847 
        1.84078         12.8593         2.88163         14.2141 
        1.84692         12.8306         2.85802         14.1386 
        1.85306         12.7605         2.83464         14.0946 
         1.8592         12.6922         2.81157         14.0556 
        1.86533         12.6294         2.78876         13.9814 
        1.87147         12.5819         2.76618         13.9121 
