# k  (h/Mpc)    P(k)  (Mpc/h)^3    P_linear(k)  (Mpc/h)^3     P_NL(k)  ShotnoiseSubtracted = false
     0.00783031         25653.9         26080.6           25826 
       0.013688           29525         29130.6         28885.6 
       0.019231         27056.7         26910.1         26682.6 
      0.0249154         22167.2         22660.2           22484 
      0.0312784         17646.5         17780.4         17670.5 
      0.0375637         14140.1         13999.6         13952.1 
      0.0433917         11557.9           11651         11598.2 
      0.0492413         10251.5         10213.8         10172.1 
      0.0555754         9085.02         9303.35         9270.29 
      0.0619321         8755.55         8645.71         8609.53 
       0.067871         7829.73         7984.42         7961.96 
      0.0738098         7060.64         7169.31         7083.51 
      0.0800417         6083.78         6195.15         6177.65 
      0.0862327          5276.3          5245.9         5350.84 
      0.0921407         4673.92            4482          4625.3 
      0.0982031         4072.07         3906.89         4139.77 
       0.104506         3813.28         3528.82         3811.32 
       0.110769         3550.39         3317.29         3525.31 
       0.116806         3396.77         3190.51         3352.47 
       0.122832         3243.53         3066.65         3208.74 
       0.129052         2985.44         2891.04         3013.13 
       0.135211         2776.64         2657.47          2791.6 
       0.141259         2606.52         2393.06          2583.2 
       0.147318          2403.5         2131.78         2387.34 
       0.153489          2166.7         1904.39         2146.28 
       0.159709         2029.83         1733.49         2011.89 
       0.165845         1946.86         1621.58         1935.89 
       0.171974         1858.45         1551.33         1839.13 
       0.178125         1773.02         1501.01          1792.9 
       0.184229         1689.62         1450.45         1707.88 
        0.19034         1599.18         1385.67         1624.24 
       0.196428          1547.6          1303.8         1537.86 
       0.202534         1475.18         1210.28         1462.67 
       0.208729         1390.57         1114.81         1364.19 
       0.214876         1329.51         1030.08         1319.43 
       0.220989         1273.33         961.941         1269.67 
       0.227147         1223.95         910.497         1226.11 
        0.23329         1172.86         872.841         1192.35 
       0.239377         1150.25         843.156         1145.74 
       0.245482         1077.49         814.944         1097.15 
       0.251667         1068.87         783.442         1067.57 
       0.257832         1020.85         747.503         1022.03 
       0.263955         982.825         708.432         982.906 
       0.270079         943.995         668.709         947.969 
        0.27624         928.719         631.269         912.027 
       0.282372         890.989         598.644         890.684 
        0.28843          879.86         571.755          870.18 
       0.294538         833.239         549.389         842.233 
       0.300721         825.483         530.056         817.467 
        0.30691         793.925         512.191         805.483 
       0.313033         775.792         494.481           776.4 
       0.319153         758.132         475.997         753.042 
       0.325316         734.916         456.594         735.025 
        0.33145         715.186         437.137         706.936 
       0.337538         698.404         418.509         691.004 
       0.343633         683.038         401.234         680.858 
       0.349808         656.394         385.567          668.03 
       0.355968         650.685         371.684          652.57 
       0.362074          643.32         359.359         639.841 
       0.368217         621.817         347.848         622.963 
       0.374374          597.11         336.735         608.469 
       0.380519         596.142         325.762          593.97 
       0.386598         576.809         314.876         587.001 
       0.392688         573.083         304.079         571.579 
        0.39888         555.435         293.383         559.143 
       0.405048         547.697         283.225         547.484 
       0.411186          539.39         273.787         536.675 
       0.417313         528.242         265.045         527.469 
       0.423458           514.9         256.896         517.704 
       0.429607         510.356         249.252         509.373 
       0.435692          496.48         242.032         495.089 
       0.441815         490.206         234.976          491.14 
       0.447964         480.273         228.061         484.406 
       0.454126         474.842         221.287         470.337 
       0.460267         462.573         214.709         467.353 
       0.466387         455.871         208.387         459.577 
        0.47254         453.024          202.32         451.277 
       0.478662          446.55         196.588         442.711 
       0.484765         431.424         191.156         436.537 
       0.490885          427.32         185.973         427.955 
       0.497035         418.592         180.993         422.943 
       0.503198         414.731          176.19         417.576 
       0.509342         411.961         171.544         409.898 
       0.515458         407.324         167.049         405.091 
       0.521598         394.908         162.673         399.949 
       0.527764         390.942         158.424         396.247 
       0.533884         386.302         154.355         390.786 
           0.54         381.451         150.439         384.361 
       0.546137         378.236         146.659         379.705 
       0.552299         372.598         143.016         374.183 
       0.558452          369.01         139.519         369.959 
       0.564573         364.649         136.163         366.513 
       0.570708         358.357         132.908         361.561 
       0.576825          351.14         129.758         355.414 
       0.582926         349.467          126.71         352.668 
       0.589034         344.885         123.752         347.673 
       0.595184         342.798         120.868         342.505 
       0.601379         335.168         118.059         338.497 
       0.607522          332.07         115.366         333.047 
       0.613639         328.915         112.771         332.489 
       0.619772         324.756         110.251         330.255 
       0.625918         322.191         107.806         324.591 
       0.632068         316.359         105.434         322.051 
       0.638161         314.119         103.156         318.849 
         0.6443         310.256         100.929         314.693 
       0.650464         307.564         98.7594         309.363 
       0.656582         302.781         96.6691         307.432 
       0.662703         302.544         94.6384         304.602 
       0.668861         298.467         92.6543         303.132 
       0.675024         294.981         90.7255         300.054 
       0.681124         291.704         88.8713         295.467 
       0.687237         289.318         87.0657         292.277 
       0.693381         284.657         85.3023         289.345 
       0.699536         281.019         83.5855         287.442 
       0.705665         279.195         81.9239         282.895 
       0.711789         278.125         80.3096         281.527 
       0.717957         275.214         78.7282         280.302 
        0.72409         273.568         77.1985         276.196 
       0.730186         269.455          75.719         273.191 
       0.736317         267.367         74.2704         271.656 
       0.742472         264.281         72.8546         269.446 
       0.748622         262.492         71.4771         266.235 
        0.75476         258.923         70.1384         266.325 
       0.760888         256.211         68.8362         262.649 
       0.767043         255.352          67.562          259.75 
       0.773185         253.198          66.323             258 
       0.779291         249.637         65.1221         255.314 
       0.785407         248.729         63.9495         253.269 
       0.791564         246.165         62.7985         251.289 
       0.797719         243.725         61.6765         249.231 
       0.803834         240.547         60.5893         247.747 
       0.809972          239.83         59.5245         245.465 
       0.816124         238.381         58.4831         243.038 
       0.822261         236.594         57.4696         242.085 
       0.828378         234.156         56.4832          239.74 
       0.834502         231.324         55.5193         237.971 
       0.840667         230.004         54.5717         235.803 
       0.846816         228.674          53.649         234.243 
       0.852925         227.098         52.7536         232.592 
       0.859047         224.919         51.8768          230.39 
       0.865192         222.162         51.0172         228.325 
       0.871341         220.119         50.1765         226.792 
       0.877463         220.389         49.3587         225.628 
       0.883569          217.77         48.5613         225.273 
       0.889708         215.459         47.7775         222.187 
       0.895864          215.29          47.009          221.14 
       0.902008          212.71         46.2591         218.816 
       0.908149         210.534         45.5261         217.174 
       0.914301         208.858         44.8078         215.395 
       0.920448         207.266         44.1058         214.443 
       0.926574         205.074         43.4213         212.876 
       0.932687          204.93         42.7528         210.906 
       0.938823         202.205         42.0961         210.572 
       0.944975         201.858         41.4518         208.652 
       0.951105         200.031         40.8233         207.297 
       0.957225          199.07         40.2089         205.668 
       0.963368         196.005         39.6052         204.303 
       0.969511         195.161         39.0139         203.074 
       0.975621         193.861         38.4379         201.698 
       0.981748         192.413         37.8722         200.862 
       0.987916         191.258         37.3142         199.153 
        0.99406         189.854         36.7697         197.878 
        1.00019         188.138         36.2372          196.47 
        1.00632         187.446         35.7157         194.926 
        1.01246         185.626         35.2038         193.421 
        1.01859         185.084         34.7028         192.546 
        1.02471         182.696         34.2121         191.315 
        1.03085         181.824         33.7293         190.312 
        1.03698         180.331         33.2569         189.606 
        1.04314         179.142         32.7916         188.005 
        1.04929         178.341         32.3362         186.512 
        1.05541         176.977         31.8914          185.63 
        1.06154         175.224         31.4539         184.883 
        1.06769         174.817         31.0239         183.578 
        1.07382         173.326         30.6033         182.481 
        1.07993         172.087         30.1915         181.462 
        1.08607          171.67         29.7857         179.977 
        1.09222         169.829         29.3869         179.051 
        1.09836         168.466         28.9958         178.078 
        1.10449          167.23         28.6124         177.492 
        1.11063          165.95         28.2355         175.953 
        1.11677         165.182         27.8655         174.909 
         1.1229         163.338         27.5029         173.795 
        1.12903         162.753         27.1464         172.706 
        1.13518           161.9         26.7959         171.807 
        1.14131         160.487         26.4518         170.866 
        1.14745          160.37          26.114         169.441 
        1.15359         158.432          25.782         169.018 
        1.15973         157.252         25.4557          167.87 
        1.16584         156.678         25.1365         167.413 
        1.17197         156.362         24.8223         166.332 
        1.17811         154.209         24.5125         165.118 
        1.18424         153.652          24.209          164.15 
        1.19038         152.769         23.9097         163.744 
        1.19652         151.242         23.6156         162.193 
        1.20267          151.15         23.3264         161.851 
        1.20881          149.59         23.0422         160.773 
        1.21495         148.749         22.7632         159.785 
        1.22108          147.87         22.4888         158.894 
         1.2272         146.657         22.2197         158.316 
        1.23334         146.601         21.9543         157.432 
        1.23949          144.71         21.6926         156.439 
        1.24562         144.045          21.436         155.215 
        1.25174         143.249         21.1839         154.484 
        1.25789         142.625          20.935         153.541 
        1.26402         140.944         20.6907         153.063 
        1.27014         140.498         20.4508         152.182 
        1.27628         139.301          20.214         151.856 
        1.28244         139.036         19.9805         150.809 
        1.28858         137.713          19.751         150.098 
        1.29471         137.135         19.5256         149.276 
        1.30084         135.854          19.304         148.167 
        1.30697         134.874         19.0855         147.402 
        1.31312         133.948           18.87         146.585 
        1.31925         133.152         18.6585         146.029 
        1.32537         132.895         18.4506         145.249 
        1.33151         131.757          18.245          144.55 
        1.33765         130.909         18.0427         143.863 
        1.34378         130.143         17.8439         143.065 
        1.34992         129.546         17.6479         142.309 
        1.35606         128.941         17.4545         141.386 
         1.3622         127.419         17.2643         141.028 
        1.36833         126.992         17.0774         140.174 
        1.37445         126.272         16.8933         139.261 
        1.38059         125.472         16.7114         138.673 
        1.38675         124.981         16.5318         137.838 
        1.39288         123.771         16.3555         137.356 
        1.39901         123.194         16.1819         136.634 
        1.40515         122.532         16.0104         135.822 
         1.4113         121.866         15.8414         135.132 
        1.41742         120.656         15.6756         134.534 
        1.42355         120.387         15.5118         133.758 
         1.4297         119.271         15.3498         133.171 
        1.43585         118.627         15.1903         132.694 
        1.44198         118.493         15.0336         132.104 
        1.44809         117.484         14.8794         131.268 
        1.45423         117.046         14.7268         130.548 
        1.46036         115.991         14.5766         129.927 
        1.46649         115.351         14.4285         129.388 
        1.47263         114.546         14.2823         128.785 
        1.47877         113.755         14.1382         127.913 
        1.48491         113.013         13.9959         127.304 
        1.49104         112.651         13.8558          126.87 
        1.49718         111.444         13.7176         126.231 
        1.50333         110.844          13.581         125.495 
        1.50947         110.271         13.4465         124.911 
         1.5156         109.777         13.3141         124.441 
        1.52172         109.093         13.1835         123.915 
        1.52787         108.234         13.0543         123.199 
          1.534         107.844          12.927         122.625 
        1.54013         107.267         12.8016         122.187 
        1.54627         106.594         12.6776         121.636 
        1.55241         105.863         12.5552         120.973 
        1.55855         105.194         12.4346         120.311 
        1.56467         104.287         12.3159         119.767 
         1.5708         103.796         12.1985         119.161 
        1.57695         103.702         12.0824         118.601 
        1.58308         102.998          11.968         118.159 
        1.58922         102.318         11.8551         117.622 
        1.59535         101.605         11.7437         117.071 
         1.6015         101.276         11.6335         116.542 
        1.60764         100.738         11.5248         115.974 
        1.61376         99.9424         11.4178         115.434 
        1.61989         99.1515         11.3121         114.971 
        1.62604         98.7458         11.2075         114.239 
        1.63218         98.3371         11.1043         113.643 
        1.63831         97.8148         11.0026          113.32 
        1.64444         97.1001         10.9021         112.804 
        1.65059         96.2251         10.8027         112.258 
        1.65673         96.0214         10.7046         111.682 
        1.66285          95.577          10.608         111.222 
        1.66898         94.9003         10.5125         110.865 
        1.67512         93.9986         10.4181         110.266 
        1.68127         93.7711         10.3247         109.755 
         1.6874         93.4227         10.2327          109.32 
        1.69353         92.7919         10.1418         108.766 
        1.69967         92.1712         10.0519         108.311 
        1.70581         91.3351         9.96304         107.821 
        1.71193          90.797         9.87561         107.278 
        1.71806           90.76         9.78905         106.831 
        1.72421         90.1151         9.70336         106.454 
        1.73035         89.7911         9.61879         105.995 
        1.73649         89.1343         9.53524         105.399 
        1.74262         88.6325         9.45276         104.785 
        1.74876         88.0808          9.3712         104.333 
        1.75489         87.5046         9.29076         103.989 
        1.76101         86.9278          9.2113         103.621 
        1.76715         86.7024         9.13266         103.155 
        1.77329         85.9014         9.05483         102.667 
        1.77943         85.7899         8.97789         102.236 
        1.78557         85.3146         8.90195         101.838 
        1.79171         84.4643         8.82687         101.328 
        1.79785         84.2316         8.75265         100.808 
        1.80399         83.6576         8.67929          100.43 
        1.81012         83.2219         8.60687         100.072 
        1.81625         82.8222         8.53531         99.6051 
        1.82239         82.3094         8.46446         99.1057 
        1.82853         81.7333         8.39444         98.7102 
        1.83466         81.4001         8.32529         98.2567 
        1.84078         81.0453         8.25698         97.7932 
        1.84692          80.325         8.18933         97.4984 
        1.85306         80.0715         8.12235         97.0195 
         1.8592         79.4509         8.05622         96.4821 
        1.86533         79.0218         7.99087         96.1843 
        1.87147         78.5926         7.92616         95.8117 
        1.87761         77.9678         7.86215         95.3423 
