# k  (h/Mpc)    Pcb(k)  (Mpc/h)^3    Pcb_linear(k) (Mpc/h)^3    Pcb_NL(k) (Mpc/h)^3   ShotnoiseSubtracted = false
     0.00783031           19388         19687.5         19502.8 
       0.013688         22204.8         21958.3         21788.2 
       0.019231         20381.2         20278.2         20124.8 
      0.0249154         16765.4         17073.6         16963.7 
      0.0312784         13328.5         13396.1         13339.8 
      0.0375637         10648.5         10547.2         10527.1 
      0.0433917         8726.35         8777.68         8754.53 
      0.0492413         7724.43         7694.83         7677.93 
      0.0555754          6875.8         7008.87         6993.59 
      0.0619321         6596.74         6513.39         6494.61 
       0.067871         5924.85         6015.18         6003.49 
      0.0738098         5336.22         5401.09         5353.62 
      0.0800417         4596.99         4667.19         4659.27 
      0.0862327         3970.62         3952.05          4015.8 
      0.0921407         3493.06         3376.56         3462.65 
      0.0982031         3036.29         2943.29          3082.1 
       0.104506         2832.61         2658.47         2826.19 
       0.110769          2639.8         2499.11         2620.45 
       0.116806         2520.79         2403.59         2497.44 
       0.122832         2415.67         2310.28          2393.4 
       0.129052         2228.91         2177.99         2248.39 
       0.135211         2069.99         2002.02         2080.96 
       0.141259         1929.77         1802.83         1914.23 
       0.147318         1767.57         1605.99          1759.1 
       0.153489         1588.02         1434.68         1576.97 
       0.159709         1482.87         1305.94         1469.78 
       0.165845         1415.87         1221.63         1409.13 
       0.171974         1348.03         1168.71         1337.18 
       0.178125         1290.49         1130.79         1303.15 
       0.184229         1235.97         1092.71         1244.53 
        0.19034         1160.02          1043.9         1183.57 
       0.196428         1123.88         982.227         1115.99 
       0.202534         1071.55         911.774         1057.67 
       0.208729         1004.14         839.852         985.034 
       0.214876         950.446         776.017         948.724 
       0.220989         908.596         724.683         908.079 
       0.227147         869.515         685.926         872.158 
        0.23329         833.389         657.558         847.279 
       0.239377         815.306         635.196         813.878 
       0.245482         760.913         613.943         778.217 
       0.251667         753.955         590.212         757.341 
       0.257832         720.931         563.138          723.43 
       0.263955          693.43         533.701         693.543 
       0.270079          663.25         503.775         667.336 
        0.27624          651.85         475.568          639.71 
       0.282372         625.218         450.991          621.17 
        0.28843         611.342         430.735         603.702 
       0.294538         578.658         413.886         584.782 
       0.300721         573.837          399.32         567.788 
        0.30691         548.664         385.862         556.822 
       0.313033         536.464          372.52         536.287 
       0.319153          520.58         358.595         519.778 
       0.325316         505.088         343.978         505.667 
        0.33145         489.104          329.32         485.593 
       0.337538         479.023         315.286         472.765 
       0.343633         464.823         302.272         465.704 
       0.349808         446.659         290.469         455.397 
       0.355968          442.15         280.012         445.102 
       0.362074          435.48         270.725         434.476 
       0.368217         422.042         262.053         420.944 
       0.374374         402.876         253.682         410.745 
       0.380519         401.012         245.413         399.816 
       0.386598         389.161         237.214         395.171 
       0.392688         385.564         229.079          382.55 
        0.39888         374.276         221.022         374.759 
       0.405048          365.93         213.369         367.528 
       0.411186         359.903         206.259         357.797 
       0.417313         352.285         199.673         350.384 
       0.423458         343.603         193.534         344.293 
       0.429607          338.86         187.775         337.617 
       0.435692         329.437         182.336          328.22 
       0.441815         325.526         177.021         324.724 
       0.447964         317.807          171.81         319.011 
       0.454126         311.148         166.708         309.618 
       0.460267         304.445         161.752          307.31 
       0.466387         300.235          156.99         301.546 
        0.47254          294.79         152.419         295.827 
       0.478662         293.147           148.1         289.703 
       0.484765         282.037         144.008         284.209 
       0.490885         278.933         140.104         279.283 
       0.497035         273.341         136.352         275.335 
       0.503198         269.367         132.733         271.185 
       0.509342         267.333         129.234         266.725 
       0.515458         263.298         125.848         263.265 
       0.521598         255.952         122.551         258.635 
       0.527764         252.943          119.35         255.935 
       0.533884         249.792         116.284         252.088 
           0.54         246.022         113.334         247.193 
       0.546137         244.263         110.487         244.108 
       0.552299         239.251         107.742         240.015 
       0.558452         237.688         105.108         236.758 
       0.564573         234.203         102.579         234.625 
       0.570708         229.004         100.127         231.758 
       0.576825         224.936         97.7542         226.853 
       0.582926         222.552         95.4579         224.573 
       0.589034         219.938          93.229         221.786 
       0.595184         218.019         91.0563         217.628 
       0.601379         213.804         88.9403         215.095 
       0.607522         211.192         86.9114          211.78 
       0.613639         209.104         84.9563         211.109 
       0.619772         205.157         83.0585          209.13 
       0.625918          203.95         81.2162         204.964 
       0.632068         200.083         79.4295         202.428 
       0.638161         198.926          77.713         201.205 
         0.6443         195.747         76.0352          198.56 
       0.650464         193.665         74.4009         194.459 
       0.656582         190.824         72.8262         193.058 
       0.662703         190.595         71.2964         191.108 
       0.668861         187.514         69.8016         189.593 
       0.675024         184.521         68.3486         187.533 
       0.681124         182.886         66.9517         184.423 
       0.687237         180.906         65.5914         182.476 
       0.693381         177.877          64.263         180.325 
       0.699536         176.169         62.9696         178.833 
       0.705665         174.379         61.7178         176.403 
       0.711789         172.923         60.5016         175.431 
       0.717957         171.995         59.3103         174.011 
        0.72409         169.889         58.1579         171.931 
       0.730186          167.45         57.0433         169.993 
       0.736317          165.63          55.952         168.262 
       0.742472         164.062         54.8854         166.397 
       0.748622         162.758         53.8477         164.731 
        0.75476         160.873         52.8391         164.202 
       0.760888          159.15         51.8581         161.533 
       0.767043         158.495         50.8982         160.332 
       0.773185         157.078         49.9647         159.071 
       0.779291         154.068         49.0601         157.082 
       0.785407         153.499         48.1767         155.626 
       0.791564         152.065         47.3096         154.215 
       0.797719         149.396         46.4643         153.116 
       0.803834         148.441         45.6453         151.965 
       0.809972         147.768         44.8431         150.533 
       0.816124         146.564         44.0586         149.126 
       0.822261         145.502          43.295         148.127 
       0.828378         143.895         42.5519         146.486 
       0.834502         143.018         41.8257         145.099 
       0.840667         141.118         41.1119         143.816 
       0.846816         139.877         40.4168         142.902 
       0.852925         138.867         39.7422          141.82 
       0.859047         137.871         39.0817         140.704 
       0.865192         135.867         38.4341         139.078 
       0.871341         134.789         37.8008         138.065 
       0.877463         133.865         37.1847           137.3 
       0.883569         133.345         36.5839         136.695 
       0.889708         131.605         35.9934          134.96 
       0.895864         130.465         35.4145         134.125 
       0.902008         129.419         34.8495         132.815 
       0.908149         128.877         34.2973         131.827 
       0.914301         127.093         33.7562         130.685 
       0.920448         126.366         33.2273         129.819 
       0.926574         125.156         32.7117          128.72 
       0.932687         125.082         32.2081         127.988 
       0.938823         123.172         31.7133         127.073 
       0.944975         122.551         31.2279         126.023 
       0.951105         121.528         30.7544          125.05 
       0.957225         120.881         30.2916         124.101 
       0.963368         118.795         29.8368         123.231 
       0.969511         118.484         29.3914         122.173 
       0.975621         117.374         28.9574         121.722 
       0.981748         117.196         28.5312         120.901 
       0.987916         115.957         28.1109         119.934 
        0.99406         115.006         27.7007         118.968 
        1.00019         114.575         27.2995         118.045 
        1.00632         113.262         26.9066         117.191 
        1.01246         112.616          26.521         116.086 
        1.01859         112.177         26.1435         115.649 
        1.02471         110.621         25.7739          115.03 
        1.03085          109.77         25.4102         114.344 
        1.03698         109.234         25.0543         113.826 
        1.04314         107.996         24.7037         112.762 
        1.04929         107.865         24.3607         112.025 
        1.05541         106.866         24.0256         111.471 
        1.06154         106.197         23.6959         110.751 
        1.06769           105.8          23.372         110.036 
        1.07382          104.63         23.0552         109.402 
        1.07993         103.962          22.745         108.678 
        1.08607         103.264         22.4392         107.855 
        1.09222         102.804         22.1388         107.305 
        1.09836         101.932         21.8442         106.518 
        1.10449         100.874         21.5553         106.169 
        1.11063         100.271         21.2714         105.304 
        1.11677         99.5044         20.9927         104.533 
         1.1229         98.8804         20.7194         103.966 
        1.12903         98.5171         20.4509         103.294 
        1.13518          97.878         20.1868         102.761 
        1.14131         96.8439         19.9276           101.9 
        1.14745         96.6743         19.6731         101.357 
        1.15359         95.7153          19.423         100.916 
        1.15973         95.2481         19.1772         100.351 
        1.16584         94.4372         18.9367         99.5846 
        1.17197         93.8663            18.7          99.235 
        1.17811         93.1176         18.4666         98.4835 
        1.18424         92.8568          18.238         97.7858 
        1.19038         92.5732         18.0125         97.5703 
        1.19652         91.6983         17.7909         96.8369 
        1.20267         90.9242         17.5731         96.3459 
        1.20881         90.5499          17.359         95.6407 
        1.21495         89.5563         17.1488         95.2681 
        1.22108         89.3228         16.9421         94.6627 
         1.2272         88.4756         16.7393         94.0744 
        1.23334         88.0276         16.5394         93.7889 
        1.23949         87.5611         16.3423         93.1743 
        1.24562          86.942         16.1489         92.3439 
        1.25174         86.6195          15.959         91.8801 
        1.25789         86.0087         15.7715         91.3464 
        1.26402          84.898         15.5874         91.0962 
        1.27014          84.677         15.4067         90.6138 
        1.27628         84.3322         15.2283         90.3172 
        1.28244         83.9418         15.0524         89.6267 
        1.28858         83.3987         14.8795         89.1183 
        1.29471         82.6632         14.7097         88.6528 
        1.30084         82.5435         14.5428         87.9855 
        1.30697         81.5508         14.3781         87.5776 
        1.31312         81.1684         14.2158         87.1349 
        1.31925         80.6457         14.0565         86.7921 
        1.32537         80.2147         13.8998         86.4281 
        1.33151         79.6622          13.745          85.898 
        1.33765         79.1641         13.5926         85.4656 
        1.34378         78.7833         13.4428         85.0539 
        1.34992         78.4806         13.2951         84.4981 
        1.35606         77.9713         13.1494         84.0629 
         1.3622         77.2624         13.0061          83.702 
        1.36833         76.9074         12.8653         83.1528 
        1.37445         76.5742         12.7267         82.8512 
        1.38059         75.8399         12.5897         82.1696 
        1.38675         75.3342         12.4543         81.8506 
        1.39288         75.2666         12.3215         81.3235 
        1.39901         74.6875         12.1907         81.0675 
        1.40515         74.0674         12.0615         80.8005 
         1.4113         73.8598         11.9342         80.4416 
        1.41742         73.3235         11.8093         80.0024 
        1.42355         72.9768         11.6859         79.4626 
         1.4297         72.5688         11.5639         79.1896 
        1.43585         72.0495         11.4437         78.6665 
        1.44198         71.6343         11.3256         78.5075 
        1.44809          71.419         11.2095         78.0268 
        1.45423         71.0357         11.0945         77.4817 
        1.46036         70.4343         10.9814         77.1411 
        1.46649         70.0343         10.8698         76.9047 
        1.47263         69.4524         10.7597          76.576 
        1.47877         69.1364         10.6511         76.0385 
        1.48491         68.7755         10.5439         75.6738 
        1.49104         68.5157         10.4384         75.4978 
        1.49718         68.1137         10.3342         74.9398 
        1.50333         67.7942         10.2313         74.5587 
        1.50947          67.224           10.13         74.3032 
         1.5156         67.0805         10.0303         73.9502 
        1.52172         66.6178         9.93184         73.5424 
        1.52787         66.1224         9.83454          73.212 
          1.534         65.7597         9.73865         72.9373 
        1.54013         65.3998         9.64415         72.6251 
        1.54627         65.1038         9.55073         72.2645 
        1.55241         64.7423         9.45853         71.8795 
        1.55855         64.3378         9.36768         71.5101 
        1.56467         64.0496         9.27827         71.2563 
         1.5708         63.5459         9.18978         70.9076 
        1.57695         63.5027          9.1023         70.5629 
        1.58308          63.083         9.01617         70.3044 
        1.58922          62.691          8.9311          69.968 
        1.59535         62.3704         8.84715         69.6905 
         1.6015         62.0129         8.76417         69.3083 
        1.60764         61.6282         8.68229         68.9426 
        1.61376         61.3611         8.60169         68.7599 
        1.61989          60.997         8.52204         68.4561 
        1.62604         60.6595         8.44322         67.9419 
        1.63218         60.4971         8.36546         67.6142 
        1.63831         59.8482         8.28885         67.5089 
        1.64444         59.5114         8.21317         67.1727 
        1.65059          59.257         8.13825         66.8334 
        1.65673         58.8732         8.06436         66.4958 
        1.66285         58.6796         7.99158         66.2264 
        1.66898         58.4484         7.91968         66.0105 
        1.67512         57.8868         7.84852         65.6654 
        1.68127         57.7364         7.77818         65.4122 
         1.6874         57.3151         7.70885         65.1691 
        1.69353         57.0184         7.64041         64.7634 
        1.69967         56.8545         7.57263         64.5041 
        1.70581         56.4582         7.50571         64.2717 
        1.71193         56.1436         7.43985         63.9894 
        1.71806         55.8724         7.37464         63.7188 
        1.72421         55.5852         7.31008         63.4362 
        1.73035         55.2932         7.24637         63.1516 
        1.73649         55.0426         7.18343         62.8715 
        1.74262         54.6378         7.12129         62.5859 
        1.74876         54.4403         7.05984         62.3286 
        1.75489         54.1139         6.99925         62.0708 
        1.76101         53.8934         6.93938         61.7907 
        1.76715         53.4615         6.88014         61.5224 
        1.77329         53.2137         6.82151         61.2415 
        1.77943         52.9503         6.76354         60.9705 
        1.78557         52.7557         6.70633         60.7373 
        1.79171         52.3626         6.64977         60.4935 
        1.79785         52.0096         6.59385         60.2134 
        1.80399         51.8517         6.53859          59.918 
        1.81012         51.5853         6.48404         59.6858 
        1.81625         51.3429         6.43013         59.4577 
        1.82239         50.9793         6.37675         59.1999 
        1.82853          50.804           6.324         58.9602 
        1.83466         50.5607          6.2719         58.6951 
        1.84078         50.1494         6.22044         58.4456 
        1.84692          49.997         6.16947         58.2847 
        1.85306         49.7042         6.11901         58.0114 
         1.8592          49.542          6.0692         57.6904 
        1.86533         49.1779         6.01996         57.4919 
        1.87147         48.8297         5.97122         57.2658 
