# k  (h/Mpc)    Pcb(k)  (Mpc/h)^3    Pcb_linear(k) (Mpc/h)^3    Pcb_NL(k) (Mpc/h)^3   ShotnoiseSubtracted = false
     0.00783031         16408.5         16652.9         16498.8 
       0.013688           18752         18566.2         18427.7 
       0.019231         17226.9         17144.2         17021.3 
      0.0249154         14199.7         14434.4         14350.2 
      0.0312784           11281         11325.2         11287.8 
      0.0375637         8999.83          8916.7         8905.68 
      0.0433917         7384.93         7420.69         7407.56 
      0.0492413         6530.49         6505.23          6496.5 
      0.0555754         5825.65         5925.31         5916.02 
      0.0619321         5575.78         5506.43         5493.78 
       0.067871         5019.11         5085.24         5077.19 
      0.0738098         4517.91         4566.09         4532.45 
      0.0800417         3891.96         3945.65         3940.92 
      0.0862327            3355         3341.07         3388.76 
      0.0921407          2941.5         2854.54         2918.65 
      0.0982031         2554.68         2488.26         2590.91 
       0.104506          2378.1         2247.47         2371.11 
       0.110769         2217.51         2112.75         2201.59 
       0.116806         2115.95            2032         2100.51 
       0.122832         2031.11         1953.11         2014.06 
       0.129052         1876.81         1841.27         1892.58 
       0.135211          1741.3         1692.51          1750.6 
       0.141259         1617.68         1524.12         1605.77 
       0.147318            1477          1357.7         1471.07 
       0.153489         1325.04         1212.88         1317.34 
       0.159709         1234.65         1104.04         1224.23 
       0.165845         1176.52         1032.77         1171.18 
       0.171974         1118.61         988.025         1111.26 
       0.178125         1073.01         955.974          1082.5 
       0.184229         1029.84         923.775         1035.35 
        0.19034         963.934         882.516         984.777 
       0.196428         933.649         830.376         927.002 
       0.202534         889.795         770.815         876.797 
       0.208729         831.318         710.012         816.128 
       0.214876         783.174         656.046         783.691 
       0.220989         747.784         612.648         748.031 
       0.227147         713.824         579.883         716.548 
        0.23329         684.285         555.901         695.502 
       0.239377         668.715         536.996         668.335 
       0.245482         623.742         519.028         638.758 
       0.251667         617.276         498.966         621.418 
       0.257832          591.01         476.078         593.148 
       0.263955         567.666         451.192          567.78 
       0.270079         542.015         425.892         545.521 
        0.27624         531.821         402.046         521.846 
       0.282372         510.144         381.269         505.435 
        0.28843         496.179         364.144          489.97 
       0.294538         470.099         349.899         474.663 
       0.300721         465.842         337.586         461.073 
        0.30691         444.602         326.208         450.987 
       0.313033         434.551         314.929         434.195 
       0.319153         420.129         303.157         420.614 
       0.325316         407.893           290.8          408.71 
        0.33145         393.969         278.407         392.288 
       0.337538         386.185         266.543         381.014 
       0.343633         373.543         255.541         374.891 
       0.349808         359.271         245.562         366.089 
       0.355968         354.973         236.723         357.695 
       0.362074         348.618         228.871         348.388 
       0.368217         338.142          221.54         337.031 
       0.374374         322.817         214.463         328.574 
       0.380519         320.382         207.472         319.545 
       0.386598         311.258         200.541         315.327 
       0.392688         307.611         193.664         304.969 
        0.39888         298.971         186.852         298.463 
       0.405048         291.327         180.382         292.886 
       0.411186         285.955         174.372         284.508 
       0.417313         279.921         168.804         277.979 
       0.423458         273.132         163.614         272.961 
       0.429607         268.531         158.746         267.445 
       0.435692         260.864         154.147         260.112 
       0.441815         257.852         149.654          256.99 
       0.447964         251.649         145.249         252.026 
       0.454126         244.594         140.935         244.495 
       0.460267         240.004         136.746         242.428 
       0.466387         236.808         132.719         237.549 
        0.47254         231.439         128.855         232.887 
       0.478662         230.644         125.204         228.063 
       0.484765         221.904         121.745         223.034 
       0.490885         219.091         118.444         219.417 
       0.497035         214.933         115.272         216.115 
       0.503198         210.889         112.213          212.58 
       0.509342         208.899         109.255          209.19 
       0.515458          205.56         106.392         206.323 
       0.521598         200.319         103.605         202.119 
       0.527764          197.89         100.898         199.742 
       0.533884         195.181         98.3067         196.706 
           0.54         191.986         95.8125         192.741 
       0.546137         190.404         93.4058          190.37 
       0.552299          186.33         91.0851         186.811 
       0.558452          184.87          88.858         183.982 
       0.564573         181.975         86.7207         182.246 
       0.570708         177.758         84.6472         179.942 
       0.576825         174.985         82.6416         175.994 
       0.582926          172.43         80.7002         173.953 
       0.589034         170.477         78.8159         171.981 
       0.595184         168.563         76.9792          168.43 
       0.601379         165.716         75.1902         166.608 
       0.607522         163.212          73.475          163.92 
       0.613639         161.504         71.8222         163.006 
       0.619772         158.281         70.2178         161.156 
       0.625918         157.059         68.6603          158.09 
       0.632068         154.358         67.1498         155.791 
       0.638161         153.273         65.6987         154.899 
         0.6443         150.864         64.2802         152.802 
       0.650464         149.199         62.8986         149.549 
       0.656582         146.895         61.5674         148.384 
       0.662703         146.324          60.274         146.642 
       0.668861         143.718         59.0104         145.263 
       0.675024         141.378          57.782         143.515 
       0.681124         140.345          56.601         141.323 
       0.687237         138.427          55.451         139.733 
       0.693381         136.102          54.328         137.879 
       0.699536         135.005         53.2346         136.558 
       0.705665         133.764         52.1763         135.106 
       0.711789         131.927         51.1482          133.93 
       0.717957         131.522          50.141         132.527 
        0.72409         129.482         49.1668         131.214 
       0.730186         127.594         48.2245         129.775 
       0.736317         126.224         47.3019         128.131 
       0.742472         125.144         46.4002         126.741 
       0.748622         123.966         45.5229         125.366 
        0.75476         122.602         44.6703         124.511 
       0.760888         121.194         43.8409         122.535 
       0.767043         120.602         43.0294         121.711 
       0.773185         119.418         42.2403         120.742 
       0.779291         117.052         41.4755         119.173 
       0.785407         116.588         40.7286         117.875 
       0.791564           115.6         39.9956         116.902 
       0.797719          113.24          39.281          116.16 
       0.803834         112.718         38.5886         114.922 
       0.809972         111.892         37.9104         113.812 
       0.816124         111.028         37.2472         112.846 
       0.822261         110.036         36.6017         111.855 
       0.828378         108.984         35.9735         110.515 
       0.834502         108.471         35.3595          109.39 
       0.840667         106.666         34.7561         108.615 
       0.846816         105.576         34.1684         107.805 
       0.852925         104.893         33.5981         106.917 
       0.859047         103.859         33.0397          105.99 
       0.865192         102.629         32.4922         104.786 
       0.871341         101.812         31.9568         103.864 
       0.877463         100.651          31.436         103.228 
       0.883569         100.523         30.9281         102.664 
       0.889708         99.3337         30.4289         101.469 
       0.895864         98.1965         29.9395         100.828 
       0.902008         97.5088         29.4619         99.7866 
       0.908149         97.0493          28.995         98.9862 
       0.914301          95.789         28.5375         98.1261 
       0.920448          95.119         28.0904           97.43 
       0.926574         94.2598         27.6545         96.5611 
       0.932687         94.1673         27.2288         96.0129 
       0.938823         92.6497         26.8105          95.099 
       0.944975          91.867         26.4001          94.381 
       0.951105         91.1991         25.9998          93.579 
       0.957225         90.5543         25.6086         92.8908 
       0.963368         89.1742         25.2241         92.1424 
       0.969511         89.0676         24.8475         91.3389 
       0.975621          88.314         24.4807         91.1218 
       0.981748         87.9575         24.1203         90.4285 
       0.987916         86.9463          23.765         89.6796 
        0.99406         86.1993         23.4182         88.8739 
        1.00019         85.9596          23.079         88.1482 
        1.00632         84.8714         22.7469         87.4727 
        1.01246          84.511         22.4209         86.6334 
        1.01859          83.787         22.1018         86.3833 
        1.02471         82.8209         21.7893         85.9512 
        1.03085         82.1404         21.4818         85.3002 
        1.03698         81.8667         21.1809           84.78 
        1.04314         80.9757         20.8846         84.0125 
        1.04929         80.6679         20.5946         83.5681 
        1.05541         79.7969         20.3112         83.1118 
        1.06154         79.4954         20.0326         82.4804 
        1.06769         79.0852         19.7587          81.978 
        1.07382          78.307         19.4909         81.4646 
        1.07993         77.8571         19.2286         80.8878 
        1.08607          77.112         18.9701          80.324 
        1.09222         76.9947         18.7161         79.8821 
        1.09836         76.2122         18.4671         79.2516 
        1.10449         75.5622         18.2229         78.9064 
        1.11063         75.0375         17.9828         78.1555 
        1.11677         74.5019         17.7472          77.648 
         1.1229         73.9855         17.5162         77.3063 
        1.12903          73.521         17.2892         76.7025 
        1.13518         73.2437          17.066         76.2623 
        1.14131         72.6104         16.8468         75.6248 
        1.14745         72.2021         16.6317         75.2946 
        1.15359         71.6607         16.4202         74.8952 
        1.15973         71.2814         16.2124         74.5127 
        1.16584         70.5966         16.0091         73.8024 
        1.17197         70.1164          15.809         73.6042 
        1.17811         69.7926         15.6117         73.0479 
        1.18424         69.3042         15.4184         72.5506 
        1.19038         69.0918         15.2278         72.2728 
        1.19652         68.5302         15.0405         71.8073 
        1.20267         67.7729         14.8563          71.415 
        1.20881         67.5794         14.6753         70.8484 
        1.21495         66.9105         14.4976         70.5432 
        1.22108         66.7659         14.3229         70.1702 
         1.2272         66.0096         14.1514         69.6831 
        1.23334         65.6422         13.9824         69.4863 
        1.23949         65.3906         13.8158         68.9343 
        1.24562         64.8257         13.6523          68.351 
        1.25174         64.5669         13.4917         68.0418 
        1.25789         64.2077         13.3333         67.6609 
        1.26402           63.45         13.1776         67.4292 
        1.27014         63.3049         13.0249         67.1283 
        1.27628         62.9313          12.874         66.7899 
        1.28244         62.5156         12.7253         66.2364 
        1.28858         62.2907         12.5792           65.85 
        1.29471          61.839         12.4356         65.5583 
        1.30084         61.5398         12.2945         65.0412 
        1.30697         60.9954         12.1553         64.8042 
        1.31312         60.6288         12.0181         64.5176 
        1.31925         60.2698         11.8834         64.1515 
        1.32537         59.8969         11.7509         63.8866 
        1.33151         59.4121           11.62         63.4928 
        1.33765         59.2209         11.4912         63.1691 
        1.34378         58.8933         11.3645         62.8405 
        1.34992         58.5393         11.2397         62.4253 
        1.35606         58.1321         11.1165         62.1124 
         1.3622         57.6845         10.9954         61.8527 
        1.36833         57.5417         10.8764         61.4438 
        1.37445         57.1214         10.7592         61.2543 
        1.38059         56.6112         10.6433         60.7677 
        1.38675         56.3214         10.5289         60.4915 
        1.39288          56.164         10.4166         60.0838 
        1.39901         55.7665         10.3061         59.8936 
        1.40515         55.3458         10.1968         59.7433 
         1.4113         55.1109         10.0892          59.484 
        1.41742         54.8934         9.98359         59.0922 
        1.42355         54.5487         9.87926         58.7314 
         1.4297         54.3465         9.77612          58.511 
        1.43585         53.9286         9.67449         58.0754 
        1.44198         53.4957          9.5747         57.9093 
        1.44809         53.3461          9.4765         57.6174 
        1.45423         53.0823         9.37932         57.2542 
        1.46036         52.6927         9.28368         56.9877 
        1.46649          52.346         9.18934         56.8006 
        1.47263         52.0419         9.09624         56.5576 
        1.47877         51.7742         9.00447         56.1413 
        1.48491         51.5101         8.91382         55.9168 
        1.49104         51.2886         8.82461          55.744 
        1.49718         50.9251         8.73656          55.359 
        1.50333         50.8063         8.64957         55.0979 
        1.50947         50.3804         8.56394         54.8797 
         1.5156         50.2141          8.4796         54.6048 
        1.52172         49.8495         8.39639          54.326 
        1.52787         49.6623         8.31413         54.0838 
          1.534         49.2649         8.23307         53.8814 
        1.54013         48.9643         8.15318         53.6269 
        1.54627         48.8471          8.0742         53.3364 
        1.55241         48.4052         7.99626         53.0779 
        1.55855         48.2124         7.91945         52.8568 
        1.56467         47.9979         7.84386         52.6308 
         1.5708          47.771         7.76905         52.3704 
        1.57695         47.6582          7.6951         52.1523 
        1.58308         47.2647         7.62229         51.9283 
        1.58922         46.9135         7.55037         51.6553 
        1.59535         46.8304          7.4794         51.4612 
         1.6015          46.386         7.40924         51.1828 
        1.60764         46.2484         7.34002         50.9233 
        1.61376         45.9957         7.27188         50.8071 
        1.61989         45.7403         7.20455          50.569 
        1.62604         45.4926         7.13792         50.2274 
        1.63218         45.3853         7.07217         49.9871 
        1.63831         44.8877          7.0074         49.8625 
        1.64444          44.717         6.94342         49.6319 
        1.65059         44.6548         6.88009         49.3826 
        1.65673         44.2783         6.81762         49.1289 
        1.66285         44.0103          6.7561         48.9417 
        1.66898         43.9353         6.69531         48.8063 
        1.67512          43.511         6.63516         48.5414 
        1.68127         43.3969         6.57568         48.2968 
         1.6874         43.1523         6.51707         48.1105 
        1.69353         42.9115         6.45921         47.9093 
        1.69967         42.7221         6.40192          47.697 
        1.70581         42.5488         6.34534         47.5023 
        1.71193         42.3344         6.28966         47.3228 
        1.71806         41.9989         6.23453         47.1286 
        1.72421          41.901         6.17995         46.9141 
        1.73035         41.6726         6.12609         46.6857 
        1.73649         41.4007         6.07288         46.4707 
        1.74262         41.1866         6.02035         46.3021 
        1.74876          40.973          5.9684         46.1107 
        1.75489          40.828         5.91718         45.8919 
        1.76101         40.6473         5.86657         45.6724 
        1.76715         40.3374         5.81648         45.4666 
        1.77329          40.102         5.76692         45.3045 
        1.77943         39.9286         5.71791         45.1484 
        1.78557           39.72         5.66954         44.9586 
        1.79171         39.5803         5.62173         44.7714 
        1.79785         39.2777         5.57446         44.5782 
        1.80399          39.231         5.52774         44.3672 
        1.81012         38.9157         5.48162         44.1975 
        1.81625         38.7269         5.43604         44.0233 
        1.82239         38.5183         5.39091         43.8392 
        1.82853         38.3435         5.34632         43.6976 
        1.83466         38.1084         5.30227         43.5037 
        1.84078         37.8715         5.25877         43.2896 
        1.84692         37.7479         5.21568         43.1715 
        1.85306         37.5365         5.17303         42.9912 
         1.8592         37.3703         5.13091         42.7636 
        1.86533         37.1413         5.08929         42.5985 
        1.87147          36.886         5.04808         42.4002 
