# k  (h/Mpc)    P(k)  (Mpc/h)^3    P_linear(k)  (Mpc/h)^3     P_NL(k)  ShotnoiseSubtracted = false
     0.00783031         2062.69         2086.26         2067.69 
       0.013688         2325.65          2325.3         2310.94 
       0.019231         2150.46         2147.34         2135.82 
      0.0249154         1798.88         1808.06         1802.45 
      0.0312784          1420.8         1418.68         1419.79 
      0.0375637         1123.45         1117.01         1118.99 
      0.0433917         930.528         929.628           931.6 
      0.0492413         817.294         814.959         816.784 
      0.0555754         739.292          742.32         742.813 
      0.0619321         693.751         689.851         689.617 
       0.067871         634.919         637.089         636.418 
      0.0738098         569.985         572.053         571.033 
      0.0800417         491.793         494.325         494.199 
      0.0862327         418.711         418.584         419.771 
      0.0921407         359.743         357.631         359.354 
      0.0982031          312.46         311.742         314.225 
       0.104506         285.132         281.575         284.319 
       0.110769         267.127         264.698         266.579 
       0.116806         255.231         254.582         255.824 
       0.122832         246.145         244.699         245.696 
       0.129052         230.441         230.687         231.413 
       0.135211         212.033          212.05          212.99 
       0.141259         192.496         190.952         192.392 
       0.147318         172.625         170.103         172.339 
       0.153489         154.048         151.959         154.001 
       0.159709         140.765         138.322         140.656 
       0.165845          132.68         129.392         132.116 
       0.171974         125.681         123.787         126.062 
       0.178125         121.738         119.772         122.088 
       0.184229         117.728         115.737          117.78 
        0.19034          111.12         110.569         112.381 
       0.196428         105.607         104.036         105.599 
       0.202534         99.2414         96.5737         98.3598 
       0.208729         91.1779         88.9557         90.9146 
       0.214876         84.1093         82.1942         84.6723 
       0.220989         79.3766         76.7575         79.3655 
       0.227147         74.6531         72.6525         75.1695 
        0.23329         71.5591         69.6478         72.2395 
       0.239377         69.3087         67.2791         69.7377 
       0.245482         66.2505          65.028         67.1133 
       0.251667          64.332         62.5143         64.7098 
       0.257832         61.4475         59.6466         61.7291 
       0.263955         58.3321         56.5289          58.568 
       0.270079          55.271         53.3593         55.4549 
        0.27624         52.7801         50.3718         52.4461 
       0.282372         50.2465         47.7685         50.0255 
        0.28843         47.8198          45.623         47.9017 
       0.294538          45.851         43.8383          46.064 
       0.300721         44.6155         42.2956         44.5337 
        0.30691         42.7931         40.8701         43.0789 
       0.313033         41.3092         39.4569         41.5227 
       0.319153         39.3254          37.982         40.0384 
       0.325316         38.4468         36.4338         38.5423 
        0.33145         36.6853         34.8812         36.9179 
       0.337538         35.3527         33.3947         35.4025 
       0.343633          33.821         32.0163         34.0455 
       0.349808         32.6646         30.7662          32.879 
       0.355968         31.6308         29.6584          31.891 
       0.362074         30.5367         28.6749          30.781 
       0.368217         29.5209         27.7564         29.6991 
       0.374374          28.543         26.8697          28.845 
       0.380519         27.7537         25.9941         27.8852 
       0.386598         26.8888         25.1254          27.033 
       0.392688         26.1645         24.2639         26.1786 
        0.39888          25.223         23.4104         25.3224 
       0.405048         24.4635         22.5999         24.4374 
       0.411186         23.7185         21.8468         23.7904 
       0.417313         22.9036         21.1492         23.0276 
       0.423458         22.2374         20.4989         22.3872 
       0.429607         21.5661          19.889         21.7147 
       0.435692         20.9064         19.3129         21.1388 
       0.441815         20.4052         18.7499         20.6147 
       0.447964         19.9534          18.198         19.9826 
       0.454126          19.149         17.6575         19.4094 
       0.460267         18.7282         17.1327         18.9471 
       0.466387          18.097         16.6282         18.3635 
        0.47254         17.7104         16.1441         17.9001 
       0.478662         17.3298         15.6867         17.4142 
       0.484765         16.7551         15.2532         16.9351 
       0.490885         16.3441         14.8397          16.596 
       0.497035         16.0621         14.4423         16.2167 
       0.503198         15.5957          14.059         15.7295 
       0.509342         15.1869         13.6883         15.3703 
       0.515458         14.7717         13.3297         15.0584 
       0.521598         14.4562         12.9805         14.5994 
       0.527764         14.0787         12.6414         14.2211 
       0.533884         13.8163         12.3167         13.8885 
           0.54         13.4517         12.0042         13.5692 
       0.546137           13.18         11.7027         13.2946 
       0.552299         12.9005         11.4119         12.9152 
       0.558452         12.4904         11.1329          12.638 
       0.564573         12.2797         10.8651         12.4228 
       0.570708         12.0123         10.6054         12.1366 
       0.576825         11.6901          10.354         11.8576 
       0.582926         11.4442         10.1108         11.6133 
       0.589034         11.1032         9.87475         11.4099 
       0.595184         10.9264         9.64461         11.0768 
       0.601379         10.6578         9.42049         10.9271 
       0.607522         10.4694         9.20559          10.658 
       0.613639         10.3032         8.99851         10.4336 
       0.619772         10.0133          8.7975         10.2576 
       0.625918          9.9081         8.60236         10.0292 
       0.632068           9.733         8.41312         9.80717 
       0.638161          9.4648          8.2313         9.61978 
         0.6443         9.26285         8.05359         9.41169 
       0.650464         9.05032         7.88049         9.27348 
       0.656582         8.96572          7.7137         9.08557 
       0.662703         8.77373         7.55166         8.89406 
       0.668861         8.59227         7.39334          8.7633 
       0.675024         8.40399         7.23943         8.56046 
       0.681124         8.24904         7.09147         8.39877 
       0.687237         8.09276         6.94739         8.22434 
       0.693381         7.96319         6.80669          8.0653 
       0.699536         7.74593         6.66969         7.93507 
       0.705665         7.65056         6.53711         7.83406 
       0.711789         7.49276         6.40829         7.66054 
       0.717957         7.34808          6.2821         7.51465 
        0.72409         7.21479         6.16004         7.40371 
       0.730186         7.11102         6.04198          7.2586 
       0.736317         7.01014          5.9264         7.12408 
       0.742472         6.88237         5.81342         7.03417 
       0.748622         6.76323         5.70351         6.90846 
        0.75476         6.61146         5.59668         6.78167 
       0.760888         6.50459         5.49277         6.67941 
       0.767043         6.41282          5.3911         6.57549 
       0.773185          6.2727         5.29223         6.46702 
       0.779291          6.2084         5.19641         6.36839 
       0.785407         6.10896         5.10284           6.252 
       0.791564         6.00004           5.011         6.15692 
       0.797719         5.86584         4.92147         6.04941 
       0.803834         5.82821         4.83471         5.95114 
       0.809972         5.74754         4.74975         5.88305 
       0.816124         5.60827         4.66665         5.77203 
       0.822261         5.51213         4.58578         5.67976 
       0.828378         5.44315         4.50707         5.59707 
       0.834502         5.38403         4.43015         5.51239 
       0.840667         5.27092         4.35454          5.4249 
       0.846816         5.16899         4.28092         5.35222 
       0.852925         5.11668         4.20947         5.28159 
       0.859047         5.03379          4.1395         5.20706 
       0.865192         4.97928         4.07091          5.1247 
       0.871341         4.90897         4.00383         5.05729 
       0.877463         4.82247         3.93857         4.97578 
       0.883569           4.736         3.87494         4.90351 
       0.889708         4.65007          3.8124         4.83877 
       0.895864         4.58998         3.75108         4.76462 
       0.902008            4.54         3.69124         4.70472 
       0.908149         4.48532         3.63275         4.62989 
       0.914301         4.41096         3.57544         4.58513 
       0.920448         4.33484         3.51942         4.50258 
       0.926574         4.27438          3.4648         4.45296 
       0.932687         4.21657         3.41146         4.36302 
       0.938823          4.1555         3.35906         4.32611 
       0.944975         4.09766         3.30764         4.26732 
       0.951105          4.0441         3.25749         4.19967 
       0.957225         4.01563         3.20847          4.1588 
       0.963368         3.95288          3.1603         4.09535 
       0.969511         3.89545         3.11311         4.04771 
       0.975621         3.84208         3.06715          3.9862 
       0.981748         3.79079         3.02201         3.93395 
       0.987916         3.74637         2.97749         3.88802 
        0.99406         3.67825         2.93404         3.84384 
        1.00019         3.62134         2.89154         3.80197 
        1.00632          3.5929         2.84993         3.74755 
        1.01246         3.54359         2.80908         3.71102 
        1.01859         3.48979          2.7691         3.65505 
        1.02471         3.45451         2.72996         3.59404 
        1.03085         3.40499         2.69143         3.55707 
        1.03698          3.3521         2.65374         3.52149 
        1.04314         3.32062          2.6166         3.47425 
        1.04929          3.2766         2.58027         3.43488 
        1.05541         3.22927         2.54477         3.39878 
        1.06154         3.19631         2.50986         3.35618 
        1.06769         3.17325         2.47555         3.31996 
        1.07382         3.11887         2.44199         3.27799 
        1.07993         3.07334         2.40913         3.23523 
        1.08607         3.05228         2.37675         3.20544 
        1.09222         3.00949         2.34492         3.16426 
        1.09836         2.97054         2.31372         3.11877 
        1.10449         2.94115         2.28313         3.09011 
        1.11063         2.89763         2.25305         3.05325 
        1.11677         2.87218         2.22353         3.02025 
         1.1229         2.84027         2.19459          2.9905 
        1.12903         2.79878         2.16614          2.9618 
        1.13518         2.76473         2.13818         2.92371 
        1.14131         2.72799         2.11072         2.88515 
        1.14745         2.69029         2.08376         2.85319 
        1.15359         2.67191         2.05727         2.82929 
        1.15973         2.63285         2.03124         2.79447 
        1.16584          2.6015         2.00576         2.76847 
        1.17197          2.5741         1.98069         2.73718 
        1.17811         2.55568         1.95598         2.70564 
        1.18424         2.52242         1.93175         2.67423 
        1.19038         2.50172         1.90787         2.64706 
        1.19652         2.46946         1.88441         2.62343 
        1.20267         2.44071         1.86133         2.59165 
        1.20881         2.42013         1.83865         2.56672 
        1.21495         2.39284         1.81639         2.54416 
        1.22108         2.36293          1.7945         2.51611 
         1.2272         2.34037         1.77302         2.48444 
        1.23334         2.30734         1.75184         2.46499 
        1.23949         2.28226         1.73096         2.44495 
        1.24562         2.26375         1.71048         2.41841 
        1.25174         2.23702         1.69037         2.38908 
        1.25789         2.21705         1.67051         2.36317 
        1.26402         2.19452         1.65101         2.33904 
        1.27014         2.16939         1.63187         2.32056 
        1.27628         2.14856         1.61298         2.29635 
        1.28244         2.11828         1.59434         2.27238 
        1.28858         2.10766         1.57603         2.25054 
        1.29471         2.07689         1.55805         2.23049 
        1.30084         2.05258         1.54036         2.21348 
        1.30697         2.04596         1.52292         2.18514 
        1.31312         2.00683         1.50573          2.1648 
        1.31925         1.99009         1.48886         2.15227 
        1.32537          1.9692         1.47226         2.13115 
        1.33151         1.96052         1.45586         2.10937 
        1.33765          1.9311         1.43972         2.08866 
        1.34378         1.91669         1.42385         2.07006 
        1.34992          1.9012         1.40821         2.05034 
        1.35606         1.87108         1.39278         2.02859 
         1.3622         1.86076          1.3776         2.00909 
        1.36833         1.83882         1.36269         1.99913 
        1.37445         1.82074           1.348         1.97888 
        1.38059          1.8124         1.33349         1.95773 
        1.38675         1.79416         1.31916          1.9381 
        1.39288         1.77713         1.30509         1.92738 
        1.39901         1.75148         1.29124         1.90844 
        1.40515         1.73628         1.27755         1.89044 
         1.4113          1.7218         1.26407         1.87526 
        1.41742         1.70748         1.25083         1.85799 
        1.42355         1.68924         1.23776         1.83952 
         1.4297         1.67425         1.22484         1.82723 
        1.43585         1.66244         1.21211         1.81336 
        1.44198         1.64744          1.1996         1.79386 
        1.44809         1.62883          1.1873         1.78017 
        1.45423          1.6129         1.17513         1.76296 
        1.46036          1.5954         1.16314         1.74815 
        1.46649         1.58418         1.15132          1.7354 
        1.47263         1.56666         1.13966         1.72082 
        1.47877         1.55215         1.12816         1.70342 
        1.48491          1.5397          1.1168         1.69246 
        1.49104         1.52717         1.10563         1.67525 
        1.49718         1.51161          1.0946         1.66261 
        1.50333         1.50003          1.0837         1.64981 
        1.50947         1.48404         1.07297         1.63495 
         1.5156          1.4718          1.0624         1.62336 
        1.52172         1.45904         1.05198         1.61338 
        1.52787         1.44672         1.04167         1.59337 
          1.534         1.43188         1.03151         1.58206 
        1.54013          1.4213          1.0215         1.57012 
        1.54627          1.4067         1.01161         1.55586 
        1.55241         1.39309         1.00184         1.54435 
        1.55855         1.38428        0.992221         1.52977 
        1.56467         1.37261        0.982751         1.52073 
         1.5708         1.35926        0.973378         1.50962 
        1.57695         1.34796        0.964113         1.49516 
        1.58308         1.33355         0.95499         1.48453 
        1.58922         1.32694        0.945979         1.47439 
        1.59535         1.31471        0.937087         1.46428 
         1.6015         1.30194        0.928298         1.45199 
        1.60764           1.293        0.919625         1.44022 
        1.61376         1.28297        0.911087         1.43081 
        1.61989         1.26935        0.902651         1.41961 
        1.62604         1.25893        0.894303         1.40845 
        1.63218         1.25296        0.886066         1.39904 
        1.63831         1.23885        0.877952         1.38893 
        1.64444            1.23        0.869936         1.37631 
        1.65059         1.21775        0.862001         1.36686 
        1.65673         1.21013        0.854174         1.35622 
        1.66285         1.19741        0.846465         1.34505 
        1.66898         1.18996         0.83885         1.33558 
        1.67512         1.17766        0.831313         1.32636 
        1.68127         1.16945        0.823862         1.31881 
         1.6874         1.16393        0.816519         1.31106 
        1.69353          1.1481        0.809269         1.29993 
        1.69967         1.14111        0.802091         1.28802 
        1.70581          1.1347        0.795002         1.27963 
        1.71193         1.12311        0.788026         1.27264 
        1.71806         1.11664        0.781119         1.26155 
        1.72421         1.10728        0.774281           1.252 
        1.73035         1.09756        0.767533         1.24378 
        1.73649         1.08892        0.760867         1.23526 
        1.74262          1.0799        0.754285         1.22681 
        1.74876         1.07331        0.747776          1.2197 
        1.75489         1.06283        0.741358         1.21091 
        1.76101         1.05377        0.735017         1.19979 
        1.76715         1.04836        0.728742         1.19143 
        1.77329         1.04085        0.722532         1.18415 
        1.77943         1.02867        0.716392         1.17629 
        1.78557         1.02193        0.710333         1.16806 
        1.79171         1.01764        0.704342         1.15964 
        1.79785         1.00672        0.698419         1.15168 
        1.80399         0.99947        0.692566         1.14441 
        1.81012        0.992116        0.686787          1.1363 
        1.81625        0.985862        0.681077         1.12812 
        1.82239         0.97773        0.675423         1.12114 
        1.82853        0.967618        0.669836         1.11516 
        1.83466        0.962902        0.664318         1.10865 
        1.84078         0.95676        0.658867         1.10103 
        1.84692        0.950107        0.653469         1.09272 
        1.85306         0.94086        0.648124         1.08384 
         1.8592        0.933234        0.642848         1.07676 
        1.86533        0.926679        0.637633         1.07184 
        1.87147        0.921366         0.63247         1.06477 
        1.87761        0.913586        0.627362          1.0574 
