# k  (h/Mpc)    Pcb(k)  (Mpc/h)^3    Pcb_linear(k) (Mpc/h)^3    Pcb_NL(k) (Mpc/h)^3   ShotnoiseSubtracted = false
     0.00783031         2773.76         2806.18         2781.24 
       0.013688         3130.74         3127.48         3107.98 
       0.019231         2893.35         2888.04          2872.3 
      0.0249154         2417.37         2431.69         2423.85 
      0.0312784         1910.34         1907.98         1909.15 
      0.0375637         1511.51         1502.26         1504.73 
      0.0433917         1250.99         1250.24         1252.69 
      0.0492413         1099.33         1096.02         1098.34 
      0.0555754         993.395         998.331         998.941 
      0.0619321         933.827         927.765         927.432 
       0.067871         853.476         856.806         855.952 
      0.0738098         766.262          769.34         767.833 
      0.0800417         660.974         664.805         664.677 
      0.0862327         563.235         562.942         564.935 
      0.0921407         484.518         480.968         483.786 
      0.0982031         420.662         419.253         423.377 
       0.104506         384.551         378.683         383.326 
       0.110769          360.13         355.984         359.195 
       0.116806         343.887         342.379         344.603 
       0.122832         331.727         329.087         330.951 
       0.129052          310.21         310.244         311.667 
       0.135211         285.578         285.179         286.957 
       0.141259          259.67         256.805         259.417 
       0.147318         233.136         228.766         232.717 
       0.153489         208.062         204.365         207.943 
       0.159709         190.382         186.025         190.111 
       0.165845         179.616         174.016         178.801 
       0.171974         170.042         166.478         170.507 
       0.178125         164.683         161.077         165.205 
       0.184229         159.231         155.652         159.314 
        0.19034         150.008           148.7         151.967 
       0.196428         142.868         139.915         142.751 
       0.202534         134.489         129.879         133.097 
       0.208729         123.638         119.634         123.122 
       0.214876         114.126         110.541         114.931 
       0.220989         107.841         103.229         107.845 
       0.227147         101.445         97.7079         102.181 
        0.23329         97.2473          93.667         98.2752 
       0.239377          94.271         90.4816         94.8558 
       0.245482         89.8557         87.4541         91.1909 
       0.251667         87.4107         84.0738         88.0026 
       0.257832         83.5854         80.2172          83.945 
       0.263955         79.3665         76.0241          79.679 
       0.270079         75.2523         71.7612         75.5177 
        0.27624         72.0374         67.7432         71.4589 
       0.282372         68.6499         64.2423         68.2579 
        0.28843         65.3603         61.3569         65.4074 
       0.294538         62.6329         58.9567           62.93 
       0.300721         61.0415          56.882         60.8803 
        0.30691         58.4922         54.9648         58.9134 
       0.313033         56.4946         53.0644         56.7656 
       0.319153         53.7529         51.0808         54.7598 
       0.325316         52.6105         48.9987         52.7666 
        0.33145         50.1918         46.9106           50.55 
       0.337538         48.4823         44.9115         48.4995 
       0.343633         46.4087         43.0577          46.707 
       0.349808         44.8305         41.3764         45.1609 
       0.355968         43.4714         39.8869         43.8527 
       0.362074         41.9832         38.5639         42.3308 
       0.368217         40.5788         37.3287         40.8267 
       0.374374         39.2704         36.1362         39.6709 
       0.380519         38.2024         34.9583         38.3575 
       0.386598         37.0172         33.7905         37.2129 
       0.392688         36.0584         32.6316         36.0676 
        0.39888          34.798         31.4839         34.8992 
       0.405048         33.7686         30.3938         33.7157 
       0.411186         32.7718          29.381         32.8598 
       0.417313         31.6639         28.4429          31.801 
       0.423458         30.7444         27.5683         30.9458 
       0.429607         29.8457         26.7481         30.0316 
       0.435692         28.9004         25.9732         29.2462 
       0.441815         28.2783         25.2161         28.5518 
       0.447964         27.6663         24.4739         27.6791 
       0.454126         26.4975         23.7471         26.8837 
       0.460267           25.97         23.0412         26.2868 
       0.466387         25.1245         22.3627         25.4834 
        0.47254         24.6079         21.7117         24.8679 
       0.478662         24.1104         21.0965         24.2123 
       0.484765         23.3124         20.5136         23.5377 
       0.490885         22.7482         19.9574         23.0924 
       0.497035         22.3703          19.423         22.5877 
       0.503198         21.7198         18.9075         21.9169 
       0.509342         21.1433          18.409          21.436 
       0.515458         20.5921         17.9266         21.0267 
       0.521598         20.1773          17.457         20.3787 
       0.527764         19.6775          17.001         19.8434 
       0.533884         19.3143         16.5644         19.4016 
           0.54         18.8045         16.1441         18.9753 
       0.546137         18.4556         15.7386         18.6066 
       0.552299         18.0842         15.3475         18.0793 
       0.558452         17.5059         14.9723         17.6939 
       0.564573         17.2086         14.6121         17.4077 
       0.570708         16.8573         14.2628         17.0228 
       0.576825         16.4184         13.9248         16.6423 
       0.582926         16.0585         13.5977         16.3037 
       0.589034         15.5955         13.2802         16.0343 
       0.595184         15.3652         12.9707         15.5824 
       0.601379         14.9972         12.6693         15.3753 
       0.607522         14.7165         12.3803         14.9911 
       0.613639         14.5076         12.1018         14.6938 
       0.619772         14.1088         11.8315         14.4508 
       0.625918         13.9763          11.569         14.1525 
       0.632068          13.734         11.3145         13.8418 
       0.638161         13.3731           11.07         13.5834 
         0.6443         13.0899          10.831         13.2956 
       0.650464         12.8022         10.5982         13.1044 
       0.656582         12.6937         10.3739         12.8527 
       0.662703         12.4257          10.156         12.5839 
       0.668861         12.1627         9.94305         12.4132 
       0.675024         11.9067         9.73607         12.1206 
       0.681124          11.692         9.53709         11.9043 
       0.687237         11.4638         9.34332         11.6696 
       0.693381         11.3069         9.15409         11.4488 
       0.699536         11.0031         8.96985         11.2793 
       0.705665         10.8982         8.79154          11.132 
       0.711789         10.6498          8.6183         10.8813 
       0.717957         10.4606         8.44859         10.6963 
        0.72409         10.2845         8.28444         10.5426 
       0.730186         10.1323         8.12567         10.3422 
       0.736317         9.98995         7.97021         10.1581 
       0.742472         9.80519         7.81828         10.0309 
       0.748622         9.65975         7.67046         9.85015 
        0.75476         9.45214          7.5268          9.6857 
       0.760888         9.29432         7.38705         9.54766 
       0.767043         9.16176         7.25032         9.40132 
       0.773185         8.97291         7.11735         9.24571 
       0.779291         8.89175         6.98849         9.11574 
       0.785407         8.76957         6.86264         8.95479 
       0.791564         8.60077         6.73913          8.8242 
       0.797719          8.3889         6.61873         8.68266 
       0.803834         8.35744         6.50205         8.53919 
       0.809972         8.25264         6.38778         8.44097 
       0.816124         8.04941         6.27603         8.29157 
       0.822261         7.92711         6.16726         8.16506 
       0.828378         7.83396         6.06141         8.04558 
       0.834502         7.74752         5.95797          7.9373 
       0.840667         7.59835         5.85628         7.81112 
       0.846816         7.44701         5.75727         7.70682 
       0.852925         7.36916         5.66117         7.62169 
       0.859047         7.26118         5.56708         7.50805 
       0.865192         7.18428         5.47483         7.39488 
       0.871341         7.08806         5.38462         7.30433 
       0.877463         6.96158         5.29686         7.19357 
       0.883569         6.84639         5.21128         7.08805 
       0.889708         6.71882         5.12717         6.99913 
       0.895864          6.6407          5.0447         6.89523 
       0.902008         6.57925         4.96423         6.81394 
       0.908149         6.49976         4.88557          6.7135 
       0.914301          6.4135         4.80849         6.65699 
       0.920448         6.29348         4.73315         6.53637 
       0.926574         6.21486         4.65969         6.46053 
       0.932687         6.12723         4.58796         6.34029 
       0.938823         6.04032         4.51749         6.28268 
       0.944975         5.95699         4.44834         6.20965 
       0.951105         5.88302         4.38089         6.10627 
       0.957225         5.83416         4.31497         6.05483 
       0.963368         5.75532         4.25018         5.96589 
       0.969511         5.68175         4.18673         5.89818 
       0.975621         5.61177         4.12491         5.81711 
       0.981748         5.52809          4.0642         5.74547 
       0.987916         5.47447         4.00433         5.67284 
        0.99406         5.38223         3.94589         5.61281 
        1.00019         5.29174         3.88874         5.55498 
        1.00632         5.26052         3.83278         5.48206 
        1.01246         5.19247         3.77784          5.4352 
        1.01859         5.10482         3.72408         5.35533 
        1.02471         5.06491         3.67143         5.26798 
        1.03085         4.99845         3.61962         5.21766 
        1.03698         4.91374         3.56892         5.16722 
        1.04314         4.87549         3.51898         5.10066 
        1.04929          4.8085         3.47012         5.04789 
        1.05541         4.73943         3.42238         4.99843 
        1.06154         4.69907         3.37543         4.93381 
        1.06769         4.66586         3.32928         4.87809 
        1.07382         4.59224         3.28415         4.82502 
        1.07993         4.52974         3.23996         4.76715 
        1.08607         4.49185         3.19641         4.72239 
        1.09222         4.43837         3.15361         4.66883 
        1.09836         4.37738         3.11165         4.60156 
        1.10449          4.3382          3.0705         4.55884 
        1.11063         4.27506         3.03005         4.51197 
        1.11677         4.24418         2.99035         4.46163 
         1.1229         4.20471         2.95143         4.42071 
        1.12903         4.14121         2.91317         4.38298 
        1.13518         4.08551         2.87556         4.32856 
        1.14131          4.0449         2.83864         4.27541 
        1.14745         3.99531         2.80239         4.23102 
        1.15359         3.96573         2.76676         4.19109 
        1.15973         3.91183         2.73174         4.14421 
        1.16584         3.85676         2.69749         4.10987 
        1.17197         3.82253         2.66377         4.06866 
        1.17811         3.79791         2.63053         4.01871 
        1.18424         3.75051         2.59795         3.97756 
        1.19038         3.72489         2.56584         3.93888 
        1.19652         3.67473         2.53427           3.901 
        1.20267         3.63234         2.50325         3.86167 
        1.20881         3.61175         2.47275         3.82721 
        1.21495         3.57026          2.4428         3.79155 
        1.22108         3.52204         2.41336         3.75463 
         1.2272         3.48917         2.38447         3.70874 
        1.23334         3.44582           2.356         3.68019 
        1.23949         3.40864         2.32792         3.65045 
        1.24562         3.38334         2.30037          3.6122 
        1.25174         3.35002         2.27332         3.57489 
        1.25789         3.31808         2.24662         3.53657 
        1.26402         3.29294         2.22039         3.50424 
        1.27014         3.25509         2.19465         3.47603 
        1.27628         3.21696         2.16924         3.43943 
        1.28244         3.17586         2.14418         3.40928 
        1.28858          3.1679         2.11955         3.37738 
        1.29471         3.12181         2.09537         3.35129 
        1.30084         3.08499         2.07158         3.32674 
        1.30697         3.07655         2.04813         3.28424 
        1.31312          3.0201         2.02501         3.25701 
        1.31925         2.99229         2.00232         3.23851 
        1.32537         2.96562            1.98         3.20932 
        1.33151         2.95413         1.95794         3.17783 
        1.33765         2.91197         1.93623         3.14552 
        1.34378         2.88913         1.91489         3.11926 
        1.34992         2.86585         1.89386         3.09371 
        1.35606         2.83006          1.8731         3.06342 
         1.3622         2.81165         1.85269         3.03384 
        1.36833         2.77721         1.83264         3.02069 
        1.37445         2.75475         1.81289         2.99065 
        1.38059         2.74176         1.79337         2.95895 
        1.38675         2.71322         1.77409         2.93574 
        1.39288         2.69473         1.75517         2.91828 
        1.39901         2.65465         1.73654         2.89145 
        1.40515         2.63517         1.71813         2.86558 
         1.4113         2.61141             1.7         2.84239 
        1.41742         2.58983          1.6822         2.81849 
        1.42355         2.56192         1.66463         2.79562 
         1.4297         2.54455         1.64725         2.77274 
        1.43585         2.52722         1.63012         2.75411 
        1.44198         2.50714         1.61331         2.72708 
        1.44809         2.47979         1.59676         2.70664 
        1.45423         2.45595         1.58039          2.6851 
        1.46036         2.43026         1.56427         2.66336 
        1.46649          2.4151         1.54838         2.64399 
        1.47263         2.38935         1.53269         2.62354 
        1.47877         2.36911         1.51723         2.59732 
        1.48491         2.35168         1.50195         2.58188 
        1.49104         2.33285         1.48692         2.56087 
        1.49718         2.31018         1.47208         2.53995 
        1.50333         2.29494         1.45743         2.52083 
        1.50947         2.26846           1.443         2.50129 
         1.5156         2.25404         1.42879         2.48455 
        1.52172         2.23664         1.41477         2.46828 
        1.52787         2.21822         1.40091         2.44004 
          1.534         2.19706         1.38725         2.42415 
        1.54013         2.18212         1.37379         2.40698 
        1.54627         2.15998         1.36048         2.38739 
        1.55241         2.13936         1.34735         2.37098 
        1.55855         2.12784          1.3344          2.3485 
        1.56467         2.10972         1.32167         2.33611 
         1.5708          2.0934         1.30906         2.32247 
        1.57695         2.07483          1.2966         2.29984 
        1.58308         2.05235         1.28433         2.28306 
        1.58922         2.04593         1.27222         2.27141 
        1.59535         2.02982         1.26026           2.257 
         1.6015         2.00778         1.24844         2.23819 
        1.60764         1.99234         1.23677         2.22043 
        1.61376         1.97981         1.22529         2.20644 
        1.61989         1.96069         1.21395         2.19091 
        1.62604         1.94736         1.20272         2.17487 
        1.63218         1.93843         1.19164         2.16165 
        1.63831         1.91653         1.18073         2.14762 
        1.64444         1.90556         1.16995         2.12867 
        1.65059         1.88207         1.15928         2.11479 
        1.65673         1.87783         1.14875         2.09983 
        1.66285         1.85574         1.13838         2.08423 
        1.66898         1.84349         1.12814         2.07061 
        1.67512         1.82983         1.11801         2.05667 
        1.68127         1.81612         1.10798         2.04493 
         1.6874          1.8058         1.09811          2.0342 
        1.69353         1.78566         1.08836         2.01992 
        1.69967         1.77825         1.07871         2.00135 
        1.70581         1.76533         1.06917         1.98814 
        1.71193         1.74872         1.05979         1.97882 
        1.71806         1.73815          1.0505         1.96342 
        1.72421         1.72525         1.04131          1.9494 
        1.73035         1.71252         1.03223         1.93694 
        1.73649         1.69921         1.02326         1.92444 
        1.74262         1.68478         1.01441         1.91285 
        1.74876         1.67611         1.00566         1.90192 
        1.75489         1.66375        0.997028         1.88851 
        1.76101         1.64817        0.988501         1.87297 
        1.76715          1.6406        0.980061         1.86157 
        1.77329         1.62885         0.97171         1.85096 
        1.77943         1.61128        0.963452         1.83924 
        1.78557         1.60168        0.955303         1.82722 
        1.79171         1.59365        0.947246         1.81451 
        1.79785         1.58065        0.939281         1.80255 
        1.80399         1.56883        0.931409          1.7925 
        1.81012         1.55663        0.923637         1.78184 
        1.81625         1.54888        0.915958         1.77033 
        1.82239         1.53772        0.908354         1.75977 
        1.82853          1.5221        0.900841         1.75092 
        1.83466         1.51504        0.893419         1.74098 
        1.84078         1.50764        0.886089         1.72934 
        1.84692         1.49768        0.878829         1.71752 
        1.85306         1.48287        0.871641         1.70461 
         1.8592         1.47182        0.864545         1.69406 
        1.86533         1.46189        0.857531         1.68706 
        1.87147         1.45416        0.850588         1.67663 
