# k  (h/Mpc)    Pcb(k)  (Mpc/h)^3    Pcb_linear(k) (Mpc/h)^3    Pcb_NL(k) (Mpc/h)^3   ShotnoiseSubtracted = false
     0.00783031         1005.25         1016.23         1007.11 
       0.013688         1131.01          1132.9         1125.97 
       0.019231         1046.93         1046.27         1040.78 
      0.0249154         877.894         880.997         878.404 
      0.0312784         692.617         691.281         691.989 
      0.0375637          546.99         544.298         545.369 
      0.0433917         453.751         452.992         454.058 
      0.0492413         398.144         397.119          398.07 
      0.0555754         360.852         361.724         361.979 
      0.0619321         337.442         336.158         336.033 
       0.067871         309.658         310.448         310.079 
      0.0738098         277.964         278.757         278.325 
      0.0800417         239.976         240.881         240.784 
      0.0862327         203.992         203.973         204.313 
      0.0921407         174.886         174.272         174.812 
      0.0982031         152.057          151.91         152.658 
       0.104506         138.276         137.211         137.986 
       0.110769         129.643         128.986         129.503 
       0.116806         124.049         124.057         124.337 
       0.122832         119.533         119.241         119.417 
       0.129052         112.156         112.413         112.503 
       0.135211         103.119         103.331         103.484 
       0.141259         93.3537         93.0501         93.3549 
       0.147318         83.5389         82.8906          83.423 
       0.153489         74.5562         74.0491          74.557 
       0.159709         67.9782         67.4041         67.9881 
       0.165845         63.9399         63.0526         63.7208 
       0.171974         60.6812         60.3212         60.8639 
       0.178125          58.772         58.3644         58.9004 
       0.184229         56.8424         56.3986         56.8556 
        0.19034         53.8609         53.8797         54.2759 
       0.196428         50.9887         50.6965         51.0323 
       0.202534         47.7433         47.0602         47.4577 
       0.208729          43.844          43.348         43.8009 
       0.214876         40.4237         40.0533         40.6375 
       0.220989         38.0421         37.4038         38.0224 
       0.227147         35.7981         35.4034          35.995 
        0.23329         34.3099         33.9392         34.5456 
       0.239377         33.1809          32.785         33.3561 
       0.245482         31.8756          31.688         32.1625 
       0.251667         30.8462         30.4632         30.9633 
       0.257832         29.4094         29.0658          29.539 
       0.263955          27.913         27.5465         28.0096 
       0.270079         26.4116         26.0019         26.4798 
        0.27624         25.1095          24.546         25.0214 
       0.282372         23.8599         23.2775         23.8029 
        0.28843         22.7054          22.232         22.7635 
       0.294538         21.7912         21.3623         21.8765 
       0.300721         21.1435         20.6106         21.1263 
        0.30691         20.3195         19.9159         20.4237 
       0.313033          19.607         19.2273         19.6992 
       0.319153         18.7074         18.5086         18.9793 
       0.325316         18.2145         17.7541         18.2381 
        0.33145         17.3967         16.9976         17.4651 
       0.337538         16.6991         16.2732         16.7344 
       0.343633          15.967         15.6015         16.0624 
       0.349808         15.4061         14.9923         15.4765 
       0.355968          14.888         14.4526         14.9732 
       0.362074         14.3669         13.9732         14.4571 
       0.368217         13.8977         13.5257         13.9654 
       0.374374         13.4172         13.0936         13.5466 
       0.380519         13.0349         12.6668         13.0961 
       0.386598         12.6246         12.2436         12.6791 
       0.392688         12.2553         11.8237         12.2596 
        0.39888         11.8004         11.4079         11.8483 
       0.405048         11.4255         11.0129         11.4259 
       0.411186         11.0603         10.6459         11.0908 
       0.417313         10.6803          10.306         10.7381 
       0.423458         10.3731         9.98909         10.4221 
       0.429607         10.0427         9.69189         10.1061 
       0.435692         9.75121         9.41112         9.82835 
       0.441815         9.48167          9.1368         9.56537 
       0.447964         9.25683         8.86787         9.27468 
       0.454126         8.91885          8.6045         9.00606 
       0.460267         8.68715         8.34873          8.7656 
       0.466387         8.39639          8.1029         8.49723 
        0.47254         8.19154           7.867         8.26554 
       0.478662         7.99448          7.6441         8.03317 
       0.484765         7.73627         7.43288         7.81451 
       0.490885          7.5443         7.23135         7.63674 
       0.497035         7.39847         7.03772         7.44808 
       0.503198         7.18151         6.85093         7.22865 
       0.509342         7.00205         6.67032          7.0513 
       0.515458         6.80037         6.49553         6.88991 
       0.521598         6.63864         6.32538         6.68946 
       0.527764         6.45178         6.16014         6.51911 
       0.533884         6.32938         6.00192         6.35671 
           0.54         6.16066         5.84964         6.20067 
       0.546137         6.01987          5.7027          6.0634 
       0.552299         5.87959         5.56102         5.89386 
       0.558452         5.70402         5.42505         5.76248 
       0.564573         5.59892         5.29456         5.65096 
       0.570708         5.46648         5.16796         5.51438 
       0.576825         5.32185         5.04552         5.38286 
       0.582926         5.21553         4.92699         5.26707 
       0.589034           5.056         4.81195         5.16329 
       0.595184         4.96083         4.69981         5.01503 
       0.601379         4.84049         4.59059         4.93388 
       0.607522         4.75509         4.48587          4.8166 
       0.613639         4.66808         4.38496         4.70867 
       0.619772         4.53566         4.28701          4.6206 
       0.625918         4.46714         4.19192         4.51126 
       0.632068         4.38589          4.0997         4.41053 
       0.638161         4.26638          4.0111          4.3227 
         0.6443         4.17581          3.9245         4.22698 
       0.650464         4.07387         3.84015         4.15584 
       0.656582         4.02068         3.75887         4.06735 
       0.662703         3.93333         3.67991         3.98054 
       0.668861         3.86158         3.60276         3.91145 
       0.675024          3.7719         3.52776         3.82691 
       0.681124          3.6948         3.45567         3.74831 
       0.687237         3.62928         3.38545          3.6669 
       0.693381         3.55931         3.31689         3.59262 
       0.699536         3.46364         3.25013         3.52823 
       0.705665         3.40693         3.18552         3.47875 
       0.711789         3.34684         3.12275         3.40516 
       0.717957         3.27414         3.06126         3.33421 
        0.72409         3.21123         3.00178         3.27889 
       0.730186         3.15877         2.94425          3.2132 
       0.736317         3.11738         2.88792         3.15042 
       0.742472         3.05857         2.83287         3.10531 
       0.748622         2.99498         2.77931         3.05162 
        0.75476         2.92726         2.72726          2.9894 
       0.760888         2.87839         2.67662         2.93867 
       0.767043         2.84078         2.62708         2.89069 
       0.773185         2.77541          2.5789         2.84277 
       0.779291         2.73808         2.53221         2.79371 
       0.785407         2.68679         2.48661         2.74138 
       0.791564         2.64467         2.44185         2.69599 
       0.797719         2.59756         2.39823         2.64482 
       0.803834           2.564         2.35595         2.60253 
       0.809972         2.51985         2.31455         2.56831 
       0.816124         2.46482         2.27405         2.51771 
       0.822261         2.41674         2.23464         2.47431 
       0.828378         2.38507         2.19629          2.4367 
       0.834502         2.35667         2.15881         2.39436 
       0.840667          2.3023         2.12196         2.35751 
       0.846816         2.26251         2.08609         2.32589 
       0.852925         2.23935         2.05127         2.28603 
       0.859047         2.19971         2.01718         2.25622 
       0.865192         2.16598         1.98375         2.21686 
       0.871341           2.135         1.95106         2.18312 
       0.877463         2.10174         1.91926          2.1458 
       0.883569         2.06069         1.88826         2.11638 
       0.889708         2.02807         1.85778         2.08481 
       0.895864         1.99538          1.8279         2.05067 
       0.902008          1.9659         1.79874         2.02157 
       0.908149         1.94047         1.77023         1.98907 
       0.914301         1.90148         1.74231         1.96186 
       0.920448         1.87348         1.71501         1.92947 
       0.926574         1.84397         1.68839         1.90647 
       0.932687         1.81791          1.6624         1.86889 
       0.938823         1.79491         1.63686         1.85124 
       0.944975         1.76943         1.61181         1.81941 
       0.951105         1.74377         1.58737         1.79355 
       0.957225         1.72853         1.56348         1.77112 
       0.963368         1.69922         1.54001         1.74361 
       0.969511         1.67036         1.51702         1.72099 
       0.975621         1.64426         1.49462           1.692 
       0.981748         1.62667         1.47262         1.66813 
       0.987916         1.60062         1.45093         1.65077 
        0.99406         1.57226         1.42975         1.62977 
        1.00019         1.55491         1.40905         1.60841 
        1.00632         1.53112         1.38877         1.58301 
        1.01246         1.51107         1.36886         1.56262 
        1.01859          1.4919         1.34938         1.54187 
        1.02471         1.47074          1.3303         1.51823 
        1.03085         1.45054         1.31153         1.49713 
        1.03698         1.42893         1.29316         1.47885 
        1.04314         1.41233         1.27507         1.45917 
        1.04929         1.39288         1.25736         1.44099 
        1.05541          1.3749         1.24007          1.4244 
        1.06154         1.35553         1.22305         1.40605 
        1.06769         1.34119         1.20633         1.38966 
        1.07382         1.32051         1.18998          1.3698 
        1.07993         1.29956         1.17397         1.35112 
        1.08607         1.29054         1.15819         1.33787 
        1.09222         1.26994         1.14268         1.31772 
        1.09836         1.25715         1.12747         1.30105 
        1.10449          1.2421         1.11256         1.28747 
        1.11063         1.22073         1.09791         1.26811 
        1.11677         1.20603         1.08352         1.25462 
         1.1229           1.191         1.06942         1.24079 
        1.12903         1.17526         1.05556         1.22536 
        1.13518         1.16318         1.04193         1.20978 
        1.14131         1.14474         1.02855         1.19419 
        1.14745         1.12494         1.01542         1.17817 
        1.15359         1.11721         1.00251         1.16844 
        1.15973         1.09861        0.989818         1.15362 
        1.16584         1.09225        0.977406         1.13885 
        1.17197         1.07686         0.96519         1.12694 
        1.17811         1.06654        0.953145         1.11418 
        1.18424         1.05409        0.941342         1.09904 
        1.19038         1.03899        0.929704         1.08658 
        1.19652         1.02711        0.918269         1.07649 
        1.20267         1.01724        0.907026         1.06112 
        1.20881         1.00225        0.895974         1.04946 
        1.21495         0.99316        0.885124         1.04122 
        1.22108        0.981158        0.874456         1.02738 
         1.2272        0.971649         0.86399         1.01419 
        1.23334        0.957145        0.853671         1.00517 
        1.23949         0.94612        0.843497        0.995614 
        1.24562        0.937428        0.833517        0.984075 
        1.25174        0.926068        0.823714        0.971101 
        1.25789        0.916179        0.814038        0.960331 
        1.26402        0.902919        0.804536        0.949646 
        1.27014        0.893184        0.795208        0.940502 
        1.27628        0.887431        0.786001         0.92957 
        1.28244        0.873103        0.776922        0.919041 
        1.28858        0.865208        0.767998        0.908881 
        1.29471        0.854962        0.759235         0.89916 
        1.30084        0.844051        0.750617        0.892517 
        1.30697        0.836837        0.742119        0.881889 
        1.31312        0.823472        0.733741        0.872043 
        1.31925         0.81761        0.725519        0.865424 
        1.32537        0.808669        0.717432        0.855819 
        1.33151        0.802315        0.709439        0.846635 
        1.33765        0.791423        0.701573        0.838312 
        1.34378        0.782452        0.693841        0.829853 
        1.34992        0.776316        0.686222        0.821019 
        1.35606        0.764656          0.6787        0.811005 
         1.3622        0.759177        0.671304        0.803293 
        1.36833        0.750227        0.664037        0.797638 
        1.37445        0.740555        0.656881        0.789208 
        1.38059        0.734852        0.649809        0.781083 
        1.38675        0.730471        0.642824        0.771555 
        1.39288        0.720196        0.635969         0.76557 
        1.39901        0.711595        0.629218        0.757798 
        1.40515        0.704726        0.622549        0.749516 
         1.4113        0.697563        0.615979        0.743423 
        1.41742        0.690909         0.60953        0.737446 
        1.42355        0.686385        0.603161        0.726689 
         1.4297        0.676509        0.596864        0.723847 
        1.43585        0.670508        0.590659        0.715956 
        1.44198        0.666036        0.584566         0.70692 
        1.44809        0.656899        0.578571        0.702233 
        1.45423        0.650803        0.572638        0.693604 
        1.46036        0.644068        0.566799        0.687562 
        1.46649        0.638049        0.561039        0.682555 
        1.47263        0.630669        0.555355        0.675843 
        1.47877        0.624168        0.549752        0.668696 
        1.48491        0.618604        0.544217         0.66374 
        1.49104        0.612503        0.538771        0.655818 
        1.49718        0.607482        0.533395        0.651552 
        1.50333        0.599966        0.528084        0.644721 
        1.50947        0.595686        0.522856        0.637926 
         1.5156        0.589258        0.517707        0.633103 
        1.52172          0.5833        0.512627        0.627801 
        1.52787        0.577398        0.507605         0.62088 
          1.534        0.572701        0.502656        0.616119 
        1.54013         0.56617        0.497778        0.610577 
        1.54627        0.560454        0.492956        0.604287 
        1.55241        0.555401        0.488197        0.599187 
        1.55855        0.550913        0.483508        0.594056 
        1.56467        0.546354        0.478893         0.58913 
         1.5708        0.539409        0.474326        0.583184 
        1.57695        0.536504        0.469811         0.57823 
        1.58308        0.530809        0.465366        0.574161 
        1.58922        0.525786        0.460974        0.568688 
        1.59535        0.520918        0.456642        0.563824 
         1.6015        0.515996        0.452359        0.558716 
        1.60764        0.512208        0.448132        0.554009 
        1.61376        0.506813        0.443972        0.550227 
        1.61989        0.502376        0.439861        0.545559 
        1.62604        0.497135        0.435793        0.540862 
        1.63218        0.494085        0.431779         0.53648 
        1.63831        0.489228        0.427825        0.531834 
        1.64444        0.484344        0.423919        0.526705 
        1.65059        0.480298        0.420052        0.522384 
        1.65673        0.475312        0.416238        0.518231 
        1.66285        0.471357        0.412482        0.513692 
        1.66898        0.468804        0.408771        0.509026 
        1.67512        0.462368        0.405098        0.505266 
        1.68127        0.458891        0.401467        0.501666 
         1.6874        0.456484        0.397889        0.497795 
        1.69353        0.451032        0.394356        0.493591 
        1.69967        0.446598        0.390858        0.489052 
        1.70581        0.444041        0.387404        0.485471 
        1.71193        0.439694        0.384004        0.482161 
        1.71806        0.436437        0.380639        0.477373 
        1.72421        0.432369        0.377307        0.473581 
        1.73035        0.427705        0.374018        0.469962 
        1.73649        0.425515         0.37077        0.465822 
        1.74262        0.421584        0.367562        0.462266 
        1.74876        0.417244        0.364391        0.459385 
        1.75489         0.41316        0.361263        0.455979 
        1.76101        0.410303        0.358173        0.451772 
        1.76715        0.406969        0.355115         0.44829 
        1.77329        0.403901        0.352089        0.445035 
        1.77943        0.399351        0.349097        0.441356 
        1.78557        0.396401        0.346144        0.437408 
        1.79171        0.393973        0.343225        0.433915 
        1.79785        0.390001        0.340339        0.430924 
        1.80399         0.38712        0.337487        0.427866 
        1.81012        0.383958        0.334671         0.42394 
        1.81625        0.380453        0.331888        0.420541 
        1.82239        0.378046        0.329133        0.418225 
        1.82853        0.373482        0.326411        0.415726 
        1.83466        0.371031        0.323722        0.412496 
        1.84078        0.367646        0.321065        0.408909 
        1.84692        0.365851        0.318435        0.405716 
        1.85306        0.362905         0.31583        0.402335 
         1.8592        0.359686        0.313259        0.399313 
        1.86533        0.356726        0.310718         0.39693 
        1.87147        0.353802        0.308202        0.393564 
