# k  (h/Mpc)    P(k)  (Mpc/h)^3    P_linear(k)  (Mpc/h)^3     P_NL(k)  ShotnoiseSubtracted = false
     0.00783031            1480         1496.53         1483.18 
       0.013688          1666.9         1668.16         1657.92 
       0.019231         1542.16         1540.55         1532.39 
      0.0249154          1291.6         1297.16         1293.26 
      0.0312784         1019.58         1017.82         1018.76 
      0.0375637         805.692         801.397         802.906 
      0.0433917         667.845         666.961         668.464 
      0.0492413         586.284         584.694         586.059 
      0.0555754         530.856          532.58         532.951 
      0.0619321         497.285         494.936         494.768 
       0.067871         455.729         457.083         456.573 
      0.0738098         409.095         410.423         409.747 
      0.0800417         353.075         354.657         354.541 
      0.0862327         300.362         300.316         300.979 
      0.0921407         257.768         256.585         257.585 
      0.0982031         223.996         223.662         225.076 
       0.104506         204.047         202.018         203.541 
       0.110769         191.236         189.909         190.941 
       0.116806         182.844         182.652         183.285 
       0.122832         176.271         175.561         176.031 
       0.129052          165.21         165.508          165.82 
       0.135211         151.948         152.137         152.569 
       0.141259         137.745             137         137.717 
       0.147318         123.391         122.042         123.203 
       0.153489         110.112         109.024         110.101 
       0.159709         100.498         99.2405         100.474 
       0.165845         94.6299         92.8337         94.2631 
       0.171974         89.7117         88.8122         89.9929 
       0.178125         86.8983         85.9313         87.1202 
       0.184229         84.0442         83.0369         84.0737 
        0.19034         79.4811         79.3285         80.2409 
       0.196428         75.3849         74.6416         75.4223 
       0.202534          70.715         69.2877         70.1911 
       0.208729         64.9454         63.8221          64.828 
       0.214876          59.887          58.971         60.2529 
       0.220989         56.4405         55.0704         56.4222 
       0.227147         53.0879         52.1252         53.4244 
        0.23329         50.8841         49.9695         51.3053 
       0.239377         49.2444         48.2701         49.5345 
       0.245482         47.1958          46.655         47.7182 
       0.251667         45.7489         44.8515          45.972 
       0.257832         43.6532          42.794          43.856 
       0.263955         41.4349         40.5572         41.5962 
       0.270079         39.2331         38.2832          39.352 
        0.27624         37.3786         36.1397         37.1995 
       0.282372         35.5496          34.272         35.4335 
        0.28843         33.8272         32.7326         33.9064 
       0.294538         32.4508         31.4522         32.5935 
       0.300721         31.5298         30.3454         31.4918 
        0.30691         30.2711         29.3226          30.453 
       0.313033         29.2125         28.3087         29.3631 
       0.319153         27.8358         27.2505         28.3015 
       0.325316         27.1662         26.1398         27.2185 
        0.33145         25.9318         25.0259          26.068 
       0.337538         24.9367         23.9594         24.9868 
       0.343633         23.8469         22.9704         24.0026 
       0.349808         23.0226         22.0735         23.1528 
       0.355968         22.2687         21.2787         22.4291 
       0.362074         21.4927         20.5731         21.6504 
       0.368217         20.7838         19.9141         20.9008 
       0.374374         20.0776         19.2779         20.2878 
       0.380519         19.5144         18.6497         19.6118 
       0.386598         18.9036         18.0265         18.9995 
       0.392688         18.3732         17.4083         18.3839 
        0.39888         17.6986          16.796         17.7756 
       0.405048         17.1523         16.2145         17.1443 
       0.411186         16.6156         15.6742          16.667 
       0.417313         16.0421         15.1737         16.1353 
       0.423458         15.5776         14.7072         15.6725 
       0.429607         15.0929         14.2696         15.1979 
       0.435692         14.6452         13.8562          14.788 
       0.441815         14.2634         13.4523         14.4064 
       0.447964         13.9376         13.0564         13.9658 
       0.454126          13.403         12.6686         13.5639 
       0.460267         13.0807          12.292         13.2203 
       0.466387         12.6364         11.9301          12.813 
        0.47254         12.3494         11.5828         12.4759 
       0.478662         12.0681         11.2546           12.13 
       0.484765         11.6709         10.9436         11.7989 
       0.490885         11.3826         10.6469         11.5474 
       0.497035         11.1761         10.3618         11.2724 
       0.503198         10.8502         10.0868         10.9348 
       0.509342         10.5722         9.82083         10.6754 
       0.515458         10.2732          9.5635          10.445 
       0.521598          10.041         9.31299         10.1328 
       0.527764         9.76704          9.0697         9.87337 
       0.533884         9.58389         8.83675         9.63376 
           0.54         9.32992         8.61255         9.40374 
       0.546137         9.12774         8.39619         9.20486 
       0.552299         8.92424         8.18761         8.94319 
       0.558452         8.64706         7.98741         8.74841 
       0.564573         8.49704         7.79528         8.59026 
       0.570708         8.30259         7.60892         8.38627 
       0.576825         8.07916         7.42861         8.18908 
       0.582926         7.91494         7.25411         8.01722 
       0.589034         7.67393         7.08474         7.86833 
       0.595184         7.54098         6.91962         7.63715 
       0.601379         7.35508         6.75882         7.52646 
       0.607522         7.22771         6.60464         7.34432 
       0.613639         7.10332         6.45607         7.18343 
       0.619772         6.90117         6.31185          7.0568 
       0.625918         6.81455         6.17185         6.89238 
       0.632068         6.69269         6.03607         6.73903 
       0.638161           6.506         5.90563         6.60759 
         0.6443         6.36734         5.77813         6.46246 
       0.650464         6.21582         5.65393         6.36192 
       0.656582          6.1478         5.53427         6.22874 
       0.662703         6.01451         5.41801         6.09651 
       0.668861         5.89721         5.30442         5.99888 
       0.675024         5.76348           5.194         5.86459 
       0.681124         5.65232         5.08785         5.74818 
       0.687237         5.54896         4.98447         5.62479 
       0.693381         5.44911         4.88353         5.51325 
       0.699536         5.30042         4.78524         5.41875 
       0.705665           5.223         4.69011          5.3482 
       0.711789          5.1245         4.59769         5.23226 
       0.717957          5.0185         4.50716         5.12591 
        0.72409         4.92321         4.41958         5.04622 
       0.730186          4.8498         4.33488         4.94562 
       0.736317         4.78343         4.25195         4.85087 
       0.742472          4.6957          4.1709         4.78668 
       0.748622         4.60424         4.09204          4.7028 
        0.75476         4.49909          4.0154          4.6103 
       0.760888         4.42665         3.94084         4.53638 
       0.767043         4.36599          3.8679         4.46455 
       0.773185         4.26708         3.79696         4.39109 
       0.779291         4.21706         3.72822         4.31914 
       0.785407         4.14187         3.66108         4.23851 
       0.791564          4.0737         3.59519         4.17112 
       0.797719         3.99279         3.53096         4.09421 
       0.803834         3.95392         3.46871         4.02872 
       0.809972          3.8924         3.40775         3.98026 
       0.816124         3.80214         3.34814         3.90242 
       0.822261         3.73089         3.29011         3.83732 
       0.828378         3.68309         3.23364         3.78064 
       0.834502         3.64204         3.17846         3.71831 
       0.840667         3.56035         3.12421          3.6603 
       0.846816         3.49495         3.07139         3.61136 
       0.852925          3.4603         3.02012         3.55575 
       0.859047         3.40041         2.96993         3.50837 
       0.865192         3.35761         2.92071         3.44981 
       0.871341         3.30979         2.87259         3.40097 
       0.877463          3.2539         2.82577         3.34381 
       0.883569         3.19202         2.78012         3.29678 
       0.889708          3.1378         2.73524         3.25037 
       0.895864         3.09199         2.69125         3.19872 
       0.902008         3.05189         2.64832         3.15592 
       0.908149         3.01457         2.60635         3.10455 
       0.914301         2.95756         2.56523         3.06852 
       0.920448         2.91074         2.52504         3.01517 
       0.926574         2.86657         2.48585         2.98185 
       0.932687         2.82815         2.44759         2.92062 
       0.938823         2.78878         2.40999         2.89555 
       0.944975         2.74997          2.3731         2.85019 
       0.951105         2.71197         2.33712           2.808 
       0.957225         2.69224         2.30195         2.77626 
       0.963368         2.64727         2.26739          2.7334 
       0.969511         2.60457         2.23354         2.69992 
       0.975621         2.56606         2.20056         2.65601 
       0.981748         2.53555         2.16817         2.61964 
       0.987916         2.49978         2.13623         2.59141 
        0.99406         2.45364         2.10505          2.5599 
        1.00019         2.42157         2.07457         2.52953 
        1.00632          2.3939         2.04471         2.49105 
        1.01246         2.36166         2.01541         2.46264 
        1.01859         2.32935         1.98672         2.42705 
        1.02471          2.3003         1.95863         2.38767 
        1.03085         2.26651         1.93099         2.35921 
        1.03698         2.23317         1.90395         2.33347 
        1.04314         2.20927         1.87731         2.30198 
        1.04929         2.18016         1.85124         2.27434 
        1.05541         2.14974         1.82577         2.24916 
        1.06154         2.12373         1.80072         2.22094 
        1.06769         2.10576         1.77611         2.19679 
        1.07382         2.06993         1.75203         2.16634 
        1.07993         2.03808         1.72846         2.13683 
        1.08607         2.02498         1.70522         2.11711 
        1.09222         1.99388         1.68239         2.08703 
        1.09836         1.97099            1.66         2.05864 
        1.10449         1.94929         1.63805         2.03903 
        1.11063         1.91844         1.61647         2.01084 
        1.11677         1.89834         1.59529         1.98942 
         1.1229         1.87497         1.57453         1.96907 
        1.12903         1.84899         1.55412         1.94703 
        1.13518         1.82887         1.53406         1.92195 
        1.14131         1.80077         1.51436         1.89631 
        1.14745         1.77247         1.49502         1.87333 
        1.15359         1.76082         1.47601          1.8586 
        1.15973         1.73283         1.45733         1.83467 
        1.16584         1.71798         1.43906          1.8145 
        1.17197         1.69691         1.42107         1.79428 
        1.17811         1.68231         1.40334         1.77403 
        1.18424          1.6611         1.38596         1.75131 
        1.19038         1.64259         1.36882         1.73254 
        1.19652         1.62343         1.35199         1.71738 
        1.20267         1.60564         1.33543         1.69399 
        1.20881         1.58616         1.31916         1.67623 
        1.21495          1.5701         1.30319         1.66263 
        1.22108          1.5515         1.28748         1.64238 
         1.2272         1.53636         1.27207         1.62135 
        1.23334         1.51366         1.25688         1.60822 
        1.23949         1.49646          1.2419         1.59423 
        1.24562          1.4838          1.2272         1.57635 
        1.25174         1.46489         1.21277          1.5555 
        1.25789         1.45103         1.19853         1.53837 
        1.26402          1.4325         1.18453         1.52159 
        1.27014         1.41663          1.1708         1.50897 
        1.27628         1.40614         1.15725         1.49263 
        1.28244         1.38484         1.14388         1.47572 
        1.28858         1.37432         1.13074         1.46064 
        1.29471         1.35561         1.11784         1.44576 
        1.30084         1.33924         1.10515         1.43505 
        1.30697          1.3319         1.09264         1.41739 
        1.31312         1.30801          1.0803         1.40261 
        1.31925         1.29841          1.0682         1.39368 
        1.32537          1.2839         1.05629         1.37891 
        1.33151         1.27584         1.04452         1.36432 
        1.33765         1.25728         1.03294         1.35129 
        1.34378         1.24627         1.02156          1.3384 
        1.34992         1.23627         1.01034         1.32449 
        1.35606         1.21575        0.999264         1.30925 
         1.3622         1.20906        0.988375         1.29679 
        1.36833         1.19478        0.977675         1.28932 
        1.37445         1.18102        0.967139         1.27587 
        1.38059         1.17403        0.956727         1.26263 
        1.38675         1.16421        0.946442          1.2479 
        1.39288         1.14998         0.93635         1.24011 
        1.39901         1.13476         0.92641         1.22747 
        1.40515          1.1242        0.916591         1.21503 
         1.4113         1.11455        0.906919         1.20549 
        1.41742         1.10461        0.897423          1.1947 
        1.42355          1.0949        0.888046         1.17958 
         1.4297          1.0819        0.878774         1.17408 
        1.43585         1.07337        0.869639         1.16335 
        1.44198         1.06409        0.860669         1.14958 
        1.44809         1.05109        0.851842         1.14107 
        1.45423         1.04102        0.843106         1.12833 
        1.46036         1.02993        0.834509         1.11859 
        1.46649         1.02148        0.826029         1.11053 
        1.47263         1.00974         0.81766         1.10056 
        1.47877        0.999582        0.809411         1.08909 
        1.48491        0.991148        0.801262         1.08134 
        1.49104        0.982732        0.793244         1.06911 
        1.49718        0.973504        0.785329         1.06171 
        1.50333        0.963233        0.777509         1.05254 
        1.50947        0.955243        0.769812         1.04195 
         1.5156        0.945721         0.76223         1.03412 
        1.52172        0.936672        0.754751         1.02721 
        1.52787        0.927811        0.747357         1.01475 
          1.534        0.919162         0.74007         1.00709 
        1.54013        0.910644        0.732889        0.998663 
        1.54627         0.90123        0.725789        0.988765 
        1.55241        0.892854        0.718783        0.981127 
        1.55855         0.88653        0.711879         0.97256 
        1.56467        0.878727        0.705084        0.965453 
         1.5708        0.868493         0.69836        0.956704 
        1.57695        0.862981        0.691712        0.948466 
        1.58308         0.85396        0.685167        0.941896 
        1.58922        0.847255        0.678702        0.933563 
        1.59535        0.839342        0.672323        0.926516 
         1.6015        0.831497        0.666017        0.918638 
        1.60764        0.826019        0.659794         0.91096 
        1.61376        0.818591        0.653669        0.904904 
        1.61989        0.810037        0.647616        0.897483 
        1.62604        0.801985        0.641627        0.890094 
        1.63218         0.79794        0.635717        0.883394 
        1.63831        0.789259        0.629895        0.876248 
        1.64444         0.78249        0.624144        0.868189 
        1.65059        0.776123        0.618451        0.861647 
        1.65673        0.768588        0.612836        0.854721 
        1.66285        0.761779        0.607305        0.847269 
        1.66898        0.757289        0.601841        0.840395 
        1.67512        0.747788        0.596434        0.834615 
        1.68127         0.74249        0.591088        0.829451 
         1.6874        0.739002         0.58582         0.82368 
        1.69353        0.729001        0.580618        0.816366 
        1.69967        0.722754        0.575468        0.809034 
        1.70581        0.719596        0.570382        0.803643 
        1.71193        0.711854        0.565377         0.79865 
        1.71806        0.707619        0.560422        0.791033 
        1.72421        0.701186        0.555516        0.784793 
        1.73035        0.693968        0.550674         0.77936 
        1.73649        0.689453        0.545892        0.773427 
        1.74262        0.683624        0.541169         0.76758 
        1.74876        0.677854          0.5365        0.762948 
        1.75489        0.670452        0.531895        0.757448 
        1.76101        0.665929        0.527346        0.750326 
        1.76715         0.66131        0.522843        0.744677 
        1.77329        0.656365        0.518388        0.739607 
        1.77943        0.648889        0.513983        0.734072 
        1.78557        0.644229        0.509635        0.728313 
        1.79171        0.641281        0.505337        0.722961 
        1.79785        0.633902        0.501088         0.71807 
        1.80399        0.629641        0.496888        0.713107 
        1.81012        0.624832        0.492743        0.707223 
        1.81625        0.619648        0.488646        0.701752 
        1.82239        0.615031        0.484589        0.697513 
        1.82853        0.608047        0.480581        0.693576 
        1.83466        0.604658        0.476622         0.68907 
        1.84078        0.599867        0.472711        0.683859 
        1.84692        0.596453        0.468838        0.678379 
        1.85306        0.590993        0.465004        0.672726 
         1.8592        0.585986        0.461218        0.668163 
        1.86533        0.581258        0.457476        0.664621 
        1.87147        0.577284        0.453772        0.659417 
        1.87761        0.572443        0.450107        0.654602 
