# k  (h/Mpc)    Pcb(k)  (Mpc/h)^3    Pcb_linear(k) (Mpc/h)^3    Pcb_NL(k) (Mpc/h)^3   ShotnoiseSubtracted = false
     0.00783031         18647.6         18933.1         18756.1 
       0.013688         21345.4         21114.5         20952.4 
       0.019231         19596.4         19498.5         19352.9 
      0.0249154         16127.7         16416.9         16313.7 
      0.0312784         12819.5         12880.8         12829.6 
      0.0375637         10238.2         10141.5         10123.9 
      0.0433917         8392.79         8440.01         8419.58 
      0.0492413         7427.37         7398.82         7384.14 
      0.0555754         6614.87         6739.24         6725.59 
      0.0619321         6342.77         6262.82         6245.69 
       0.067871         5699.81         5783.77         5773.07 
      0.0738098         5132.81         5193.31         5149.52 
      0.0800417         4421.71         4487.64          4480.6 
      0.0862327         3817.38         3800.02         3859.59 
      0.0921407         3355.49         3246.66         3327.02 
      0.0982031         2916.05         2830.06         2959.43 
       0.104506         2719.05          2556.2          2712.4 
       0.110769         2534.31         2402.97         2515.78 
       0.116806         2419.58         2311.13         2398.32 
       0.122832         2319.65          2221.4         2298.72 
       0.129052         2141.03          2094.2         2159.58 
       0.135211         1987.94         1925.01         1998.48 
       0.141259         1851.72         1733.48         1837.09 
       0.147318         1694.75         1544.21         1686.97 
       0.153489         1522.04         1379.49         1511.88 
       0.159709         1420.56          1255.7         1408.13 
       0.165845          1355.7         1174.63         1349.34 
       0.171974         1290.31         1123.75         1280.37 
       0.178125         1235.83         1087.29         1247.68 
       0.184229         1184.24         1050.67         1191.97 
        0.19034         1110.64         1003.74         1133.61 
       0.196428         1076.02         944.441         1068.42 
       0.202534         1025.85         876.698         1012.11 
       0.208729         960.626         807.543         942.475 
       0.214876         908.197         746.164         907.126 
       0.220989         867.967         696.805         867.684 
       0.227147         830.144         659.539         832.819 
        0.23329         795.685         632.262         808.909 
       0.239377         778.212          610.76         777.069 
       0.245482         726.123         590.325         742.922 
       0.251667           719.3         567.506         722.954 
       0.257832         687.994         541.474         690.442 
       0.263955          661.56          513.17         661.673 
       0.270079         632.486         484.395         636.458 
        0.27624         621.413         457.273         609.808 
       0.282372          596.04         433.642         591.756 
        0.28843         582.062         414.165         574.753 
       0.294538         551.032         397.963         556.771 
       0.300721         546.389         383.959         540.649 
        0.30691         522.148         371.018         529.873 
       0.313033          510.52          358.19         510.285 
       0.319153         494.967           344.8         494.519 
       0.325316         480.303         330.745         480.943 
        0.33145         464.811         316.651         461.787 
       0.337538         455.348         303.157         449.338 
       0.343633         441.485         290.643         442.536 
       0.349808         424.314         279.294         432.589 
       0.355968         419.861          269.24         422.795 
       0.362074         413.265          260.31         412.475 
       0.368217         400.615         251.972         399.459 
       0.374374         382.353         243.923         389.703 
       0.380519         380.338         235.972         379.246 
       0.386598         369.221         228.089         374.735 
       0.392688         365.607         220.266         362.635 
        0.39888         355.008         212.519         355.205 
       0.405048          346.78         205.161         348.417 
       0.411186         340.925         198.324         338.975 
       0.417313         333.713         191.992         331.776 
       0.423458         325.526         186.088         325.978 
       0.429607         320.798         180.552         319.577 
       0.435692         311.837         175.321          310.71 
       0.441815          308.16         170.211         307.302 
       0.447964         300.803         165.201         301.767 
       0.454126         294.007         160.295         292.856 
       0.460267         287.871          155.53         290.607 
       0.466387         283.921          150.95         285.065 
        0.47254         278.425         146.556         279.619 
       0.478662         277.071         142.403         273.815 
       0.484765         266.537         138.468         268.419 
       0.490885         263.508         134.714         263.847 
       0.497035         258.279         131.107         260.054 
       0.503198         254.277         127.627         256.054 
       0.509342         252.262         124.262         251.889 
       0.515458          248.38         121.006         248.575 
       0.521598         241.589         117.836         244.035 
       0.527764          238.72         114.758         241.427 
       0.533884         235.684         111.811         237.782 
           0.54         232.062         108.974         233.109 
       0.546137         230.361         106.236         230.213 
       0.552299         225.552         103.597         226.258 
       0.558452         224.057         101.064         223.104 
       0.564573         220.713         98.6331         221.078 
       0.570708         215.728         96.2747         218.368 
       0.576825         212.013         93.9936         213.689 
       0.582926         209.563         91.7856         211.467 
       0.589034         207.139         89.6425         208.901 
       0.595184         205.209         87.5534         204.879 
       0.601379         201.377         85.5187          202.53 
       0.607522         198.779         83.5679         199.393 
       0.613639         196.777         81.6881         198.657 
       0.619772         192.991         79.8633         196.705 
       0.625918          191.81         78.0918         192.804 
       0.632068         188.226         76.3739         190.307 
       0.638161           187.1         74.7234         189.202 
         0.6443         184.095         73.1101         186.701 
       0.650464          182.11         71.5387         182.808 
       0.656582         179.434         70.0246         181.457 
       0.662703         179.135         68.5536         179.572 
       0.668861         176.156         67.1163         178.078 
       0.675024         173.302         65.7192         176.104 
       0.681124         171.842          64.376         173.224 
       0.687237         169.889         63.0681         171.375 
       0.693381         167.028         61.7908         169.293 
       0.699536         165.491         60.5471         167.842 
       0.705665         163.817         59.3435         165.672 
       0.711789         162.256         58.1741         164.662 
       0.717957         161.499         57.0286         163.229 
        0.72409         159.389         55.9205         161.357 
       0.730186         157.105         54.8488         159.549 
       0.736317         155.364         53.7995         157.826 
       0.742472         153.939         52.7739         156.074 
       0.748622         152.665         51.7761         154.499 
        0.75476         150.931         50.8064         153.876 
       0.760888         149.297         49.8631         151.375 
       0.767043         148.653         48.9402         150.286 
       0.773185         147.302         48.0426         149.097 
       0.779291         144.429         47.1728         147.207 
       0.785407         143.885         46.3233         145.788 
       0.791564          142.58         45.4896         144.491 
       0.797719         139.956         44.6769         143.499 
       0.803834         139.148         43.8893         142.321 
       0.809972         138.442          43.118         140.973 
       0.816124         137.311         42.3636         139.687 
       0.822261         136.262         41.6294          138.68 
       0.828378         134.803          40.915         137.116 
       0.834502         134.063         40.2167         135.784 
       0.840667         132.134         39.5303         134.635 
       0.846816         130.925         38.8619          133.76 
       0.852925         130.013         38.2133         132.728 
       0.859047          129.02         37.5782         131.667 
       0.865192           127.2         36.9555          130.14 
       0.871341         126.205         36.3466         129.147 
       0.877463         125.175         35.7542         128.425 
       0.883569         124.805         35.1765         127.812 
       0.889708         123.219         34.6087         126.222 
       0.895864         122.021         34.0521         125.433 
       0.902008         121.091         33.5089         124.205 
       0.908149         120.605         32.9779         123.266 
       0.914301         118.937         32.4576         122.191 
       0.920448         118.222         31.9491         121.359 
       0.926574         117.116         31.4532         120.328 
       0.932687          117.03          30.969         119.659 
       0.938823         115.218         30.4933         118.716 
       0.944975         114.554         30.0266         117.769 
       0.951105         113.617         29.5713         116.837 
       0.957225         112.972         29.1263         115.954 
       0.963368         111.044          28.689         115.114 
       0.969511         110.801         28.2607          114.11 
       0.975621         109.779         27.8434         113.734 
       0.981748         109.592         27.4336         112.942 
       0.987916         108.394         27.0295         112.033 
        0.99406         107.471          26.635         111.108 
        1.00019         107.133         26.2493          110.24 
        1.00632         105.835         25.8715         109.432 
        1.01246         105.289         25.5007         108.391 
        1.01859         104.779         25.1378         108.005 
        1.02471         103.359         24.7824         107.436 
        1.03085         102.544         24.4327         106.765 
        1.03698         102.098         24.0904          106.25 
        1.04314         100.926         23.7534         105.254 
        1.04929         100.768         23.4235         104.601 
        1.05541         99.7902         23.1013         104.069 
        1.06154         99.2325         22.7843         103.361 
        1.06769         98.8302         22.4729         102.711 
        1.07382         97.7446         22.1682         102.106 
        1.07993         97.1512           21.87         101.417 
        1.08607         96.4003          21.576         100.667 
        1.09222         96.0754         21.2871         100.148 
        1.09836         95.2249         21.0038         99.3993 
        1.10449         94.2393         20.7261         99.0579 
        1.11063         93.6787         20.4531         98.2254 
        1.11677          92.956         20.1851         97.5168 
         1.1229         92.3961         19.9224         97.0051 
        1.12903         92.0076         19.6641         96.3513 
        1.13518         91.4534         19.4102         95.8414 
        1.14131         90.5112          19.161         95.0314 
        1.14745         90.2816         18.9163         94.5557 
        1.15359          89.448         18.6758         94.1266 
        1.15973         89.0213         18.4394         93.6058 
        1.16584         88.2114         18.2082         92.8413 
        1.17197         87.6365         17.9806         92.5431 
        1.17811         87.0486         17.7562         91.8369 
        1.18424         86.7322         17.5363         91.1835 
        1.19038         86.4639         17.3195         90.9613 
        1.19652         85.6655         17.1065         90.3101 
        1.20267         84.8875         16.8971          89.829 
        1.20881          84.575         16.6912         89.1597 
        1.21495         83.6479         16.4891         88.8191 
        1.22108         83.4429         16.2903          88.271 
         1.2272          82.636         16.0953         87.6944 
        1.23334         82.1802         15.9031         87.4424 
        1.23949         81.7953         15.7136         86.8527 
        1.24562         81.1763         15.5277         86.0777 
        1.25174         80.8755          15.345         85.6521 
        1.25789         80.3224         15.1648           85.16 
        1.26402         79.2914         14.9878         84.9157 
        1.27014         79.1204          14.814         84.4803 
        1.27628         78.7671         14.6425         84.1748 
        1.28244         78.3573         14.4733         83.5187 
        1.28858         77.9112         14.3071         83.0374 
        1.29471         77.2333         14.1439         82.6204 
        1.30084         77.0809         13.9833         81.9892 
        1.30697          76.203          13.825         81.6274 
        1.31312         75.8262         13.6689         81.2324 
        1.31925         75.3526         13.5158         80.8819 
        1.32537          74.906         13.3651         80.5476 
        1.33151         74.3737         13.2162         80.0542 
        1.33765         73.9678         13.0697          79.645 
        1.34378         73.6136         12.9256         79.2547 
        1.34992         73.3023         12.7837         78.7341 
        1.35606         72.7897         12.6436         78.3364 
         1.3622         72.1625         12.5058         77.9992 
        1.36833         71.8744         12.3704          77.482 
        1.37445         71.5161         12.2371         77.2235 
        1.38059         70.8227         12.1053         76.5748 
        1.38675          70.368         11.9752         76.2746 
        1.39288         70.3152         11.8475          75.772 
        1.39901         69.7449         11.7217         75.5385 
        1.40515         69.1923         11.5975         75.3099 
         1.4113         68.9691         11.4751         74.9815 
        1.41742         68.5217          11.355         74.5552 
        1.42355         68.1738         11.2363         74.0594 
         1.4297         67.8397          11.119         73.7998 
        1.43585         67.3378         11.0034         73.2868 
        1.44198         66.8978         10.8899         73.1363 
        1.44809         66.7106         10.7782         72.7062 
        1.45423         66.3661         10.6677         72.2079 
        1.46036          65.814         10.5589          71.885 
        1.46649         65.4151         10.4516         71.6604 
        1.47263         64.9086         10.3457         71.3555 
        1.47877          64.636         10.2414         70.8533 
        1.48491         64.2722         10.1383         70.5277 
        1.49104         64.0403         10.0368         70.3515 
        1.49718         63.6488         9.93665          69.832 
        1.50333          63.392         9.83772         69.4825 
        1.50947         62.8406         9.74032         69.2382 
         1.5156         62.7125          9.6444         68.9059 
        1.52172         62.2385         9.54976         68.5337 
        1.52787         61.8375          9.4562         68.2254 
          1.534         61.4673         9.36401         67.9742 
        1.54013         61.1138         9.27314         67.6776 
        1.54627          60.874         9.18331          67.332 
        1.55241         60.4846         9.09466         66.9802 
        1.55855         60.1469          9.0073         66.6504 
        1.56467         59.8992         8.92134         66.4014 
         1.5708          59.455         8.83625         66.0797 
        1.57695         59.4048         8.75214         65.7687 
        1.58308         58.9651         8.66932         65.5143 
        1.58922         58.5875         8.58752         65.1977 
        1.59535         58.3519          8.5068         64.9445 
         1.6015         57.9357         8.42701         64.5886 
        1.60764         57.6429         8.34828         64.2458 
        1.61376         57.3792         8.27078         64.0799 
        1.61989         57.0383          8.1942         63.8011 
        1.62604          56.738         8.11841         63.3308 
        1.63218         56.5727         8.04364         63.0248 
        1.63831         55.9377         7.96997         62.9147 
        1.64444         55.6479         7.89721         62.5995 
        1.65059         55.4722         7.82517         62.2871 
        1.65673         55.0661         7.75412         61.9726 
        1.66285         54.8669         7.68414         61.7252 
        1.66898         54.6884         7.61501         61.5346 
        1.67512         54.1652         7.54659         61.2105 
        1.68127         54.0235         7.47895         60.9573 
         1.6874         53.6406         7.41229          60.729 
        1.69353         53.3573         7.34648         60.3792 
        1.69967         53.1696         7.28131          60.129 
        1.70581         52.8487         7.21696         59.9051 
        1.71193          52.577         7.15364         59.6529 
        1.71806         52.2792         7.09093         59.4032 
        1.72421         52.0335         7.02886         59.1345 
        1.73035         51.7665          6.9676         58.8623 
        1.73649         51.5128         6.90708         58.6032 
        1.74262         51.1465         6.84733         58.3556 
        1.74876         50.9694         6.78825         58.1159 
        1.75489         50.6727         6.72999         57.8621 
        1.76101          50.484         6.67243         57.5918 
        1.76715         50.0639         6.61546         57.3406 
        1.77329         49.8145         6.55909         57.0923 
        1.77943         49.5951         6.50335         56.8512 
        1.78557         49.3822         6.44834         56.6306 
        1.79171         49.0663         6.39396         56.4068 
        1.79785         48.7134         6.34019         56.1493 
        1.80399         48.5959         6.28705         55.8657 
        1.81012         48.3173          6.2346         55.6531 
        1.81625          48.097         6.18276         55.4461 
        1.82239         47.7631         6.13143         55.2074 
        1.82853         47.5846         6.08072         54.9942 
        1.83466         47.3529         6.03062         54.7485 
        1.84078         46.9746         5.98114         54.5082 
        1.84692         46.8422         5.93213          54.359 
        1.85306         46.5629         5.88362         54.1124 
         1.8592         46.4091         5.83572         53.8147 
        1.86533         46.0873         5.78838         53.6187 
        1.87147         45.7396         5.74151         53.3984 
