# k  (h/Mpc)    Pcb(k)  (Mpc/h)^3    Pcb_linear(k) (Mpc/h)^3    Pcb_NL(k) (Mpc/h)^3   ShotnoiseSubtracted = false
     0.00783031           24785         25192.2         24948.4 
       0.013688         28500.3         28130.4         27897.3 
       0.019231         26124.8         25984.6           25769 
      0.0249154         21418.3         21880.3         21715.4 
      0.0312784         17046.5         17168.2         17068.2 
      0.0375637         13652.3         13517.5         13475.2 
      0.0433917           11164         11249.8         11202.5 
      0.0492413         9898.73         9862.02         9825.07 
      0.0555754         8779.09         8982.92         8953.19 
      0.0619321         8454.44         8347.92         8314.89 
       0.067871         7565.97          7709.4         7688.93 
      0.0738098         6821.26         6922.37         6843.44 
      0.0800417         5877.22         5981.76         5966.03 
      0.0862327         5093.53          5065.2         5163.06 
      0.0921407         4506.64         4327.61            4461 
      0.0982031         3924.58         3772.31          3988.9 
       0.104506         3672.99         3407.27          3669.9 
       0.110769         3420.24         3203.02         3395.75 
       0.116806         3271.08         3080.61         3230.46 
       0.122832         3125.44         2961.01         3092.69 
       0.129052         2877.82         2791.46         2904.31 
       0.135211         2676.01         2565.93         2690.34 
       0.141259         2509.11         2310.63         2486.93 
       0.147318         2310.97         2058.34         2296.27 
       0.153489         2081.96         1838.79         2063.27 
       0.159709         1949.56         1673.78         1932.21 
       0.165845         1868.33         1565.72         1858.19 
       0.171974         1782.74         1497.89         1764.81 
       0.178125         1701.65          1449.3         1720.45 
       0.184229         1623.14         1400.49         1639.49 
        0.19034         1533.65         1337.94         1559.15 
       0.196428         1484.67         1258.89          1475.1 
       0.202534         1415.38         1168.59         1402.19 
       0.208729         1332.85         1076.41          1307.4 
       0.214876         1272.12         994.597          1263.8 
       0.220989         1218.03         928.805         1215.05 
       0.227147         1169.97         879.131         1172.28 
        0.23329         1121.16         842.773         1139.88 
       0.239377         1099.05         814.112         1095.13 
       0.245482         1028.68         786.872         1048.38 
       0.251667         1020.37         756.457         1020.22 
       0.257832         974.533         721.757         976.266 
       0.263955         938.248         684.029         938.369 
       0.270079         900.481         645.674          904.69 
        0.27624         885.929         609.522         869.911 
       0.282372         849.822         578.022         848.694 
        0.28843         837.907          552.06         828.429 
       0.294538         793.259         530.465         801.944 
       0.300721         786.172         511.797         778.329 
        0.30691         755.234         494.547         766.362 
       0.313033         738.125         477.448         738.587 
       0.319153         720.466         459.601         716.307 
       0.325316         698.479         440.866         698.717 
        0.33145         679.215         422.079         671.802 
       0.337538         663.648         404.092         656.263 
       0.343633         648.129         387.413          646.69 
       0.349808         622.667         372.285         634.111 
       0.355968         617.257         358.883         619.538 
       0.362074         609.994          346.98         607.023 
       0.368217         589.863         335.866         590.426 
       0.374374         565.579         325.136         576.647 
       0.380519         564.561         314.538          562.54 
       0.386598          546.48          304.03         556.107 
       0.392688         542.817         293.604         540.793 
        0.39888         526.166         283.277         529.291 
       0.405048         518.052         273.469         518.358 
       0.411186         510.217         264.356         507.475 
       0.417313         499.589         255.915         498.515 
       0.423458         486.991         248.046         489.485 
       0.429607         482.351         240.666         481.269 
       0.435692         469.152         233.694         467.751 
       0.441815          463.29         226.882         463.807 
       0.447964         453.526         220.204         457.107 
       0.454126         447.916         213.665         443.801 
       0.460267         436.547         207.313         440.956 
       0.466387         430.286         201.209         433.482 
        0.47254         426.666         195.351         425.581 
       0.478662         421.295         189.816          417.32 
       0.484765         406.563         184.571         411.227 
       0.490885         402.686         179.567         403.274 
       0.497035         394.416         174.759         398.362 
       0.503198         390.577          170.12         393.158 
       0.509342         388.002         165.635         386.042 
       0.515458         383.366         161.295         381.459 
       0.521598         371.691          157.07         376.362 
       0.527764         367.827         152.967          372.82 
       0.533884         363.502         149.038         367.563 
           0.54         358.746         145.257           361.3 
       0.546137         355.936         141.608         356.846 
       0.552299         350.216         138.089         351.556 
       0.558452         347.123         134.713         347.493 
       0.564573         342.839         131.473         344.308 
       0.570708         336.629         128.329         339.784 
       0.576825         329.833         125.289         333.695 
       0.582926         328.045         122.345         331.013 
       0.589034         323.796         119.489          326.37 
       0.595184         321.823         116.704         321.332 
       0.601379         314.597         113.992         317.529 
       0.607522         311.673         111.392         312.468 
       0.613639         308.781         108.886         311.988 
       0.619772         304.442         106.454         309.797 
       0.625918         302.213         104.092         304.232 
       0.632068         296.627         101.802         301.661 
       0.638161          294.69         99.6024         298.863 
         0.6443          290.79          97.452          294.99 
       0.650464         288.175         95.3574         289.711 
       0.656582         283.726         93.3392          287.92 
       0.662703         283.574         91.3784         285.226 
       0.668861         279.672         89.4626         283.733 
       0.675024         276.198         87.6003         280.854 
       0.681124         273.147           85.81         276.388 
       0.687237         270.778         84.0665         273.432 
       0.693381         266.436         82.3639         270.662 
       0.699536         263.155         80.7062         268.818 
       0.705665         261.212         79.1019         264.567 
       0.711789         260.171         77.5431         263.351 
       0.717957         257.592         76.0162          262.12 
        0.72409         255.823         74.5392         258.324 
       0.730186         251.947         73.1107         255.473 
       0.736317         249.902          71.712         253.878 
       0.742472         247.073         70.3449         251.604 
       0.748622         245.413         69.0149         248.726 
        0.75476         242.108         67.7223         248.791 
       0.760888         239.579          66.465         245.179 
       0.767043         238.768         65.2347         242.639 
       0.773185         236.745         64.0383         240.955 
       0.779291         233.141         62.8789         238.363 
       0.785407         232.372         61.7466         236.448 
       0.791564         229.938         60.6353         234.467 
       0.797719         227.397          59.552         232.518 
       0.803834          224.66         58.5021         231.189 
       0.809972         223.996          57.474         229.068 
       0.816124         222.545         56.4685         226.767 
       0.822261         220.966         55.4899         225.838 
       0.828378         218.544         54.5375         223.594 
       0.834502         216.109         53.6068         221.887 
       0.840667         214.753         52.6919         219.782 
       0.846816         213.412          51.801         218.346 
       0.852925         211.846         50.9364         216.816 
       0.859047         209.965         50.0898         214.856 
       0.865192         207.231         49.2598          212.79 
       0.871341         205.346         48.4481         211.427 
       0.877463         205.481         47.6585         210.289 
       0.883569         203.206         46.8885         209.923 
       0.889708         200.804         46.1317         207.033 
       0.895864         200.522         45.3897         206.002 
       0.902008         198.234         44.6656         203.858 
       0.908149         196.395         43.9578         202.362 
       0.914301         194.592         43.2643         200.694 
       0.920448         193.264         42.5864         199.734 
       0.926574         191.162         41.9255         198.177 
       0.932687         191.136         41.2801         196.506 
       0.938823         188.515          40.646         196.088 
       0.944975         188.083         40.0239         194.232 
       0.951105          186.44          39.417         192.945 
       0.957225         185.592         38.8239         191.458 
       0.963368         182.622         38.2409         190.203 
       0.969511         181.848           37.67         188.993 
       0.975621         180.497         37.1139         187.766 
       0.981748         179.341         36.5676         186.881 
       0.987916          178.15         36.0289         185.331 
        0.99406         176.907         35.5031         184.089 
        1.00019         175.387         34.9889         182.743 
        1.00632         174.546         34.4854         181.345 
        1.01246         172.912         33.9911         179.863 
        1.01859         172.523         33.5073         179.077 
        1.02471         170.165         33.0336         177.987 
        1.03085         169.263         32.5675         177.019 
        1.03698         167.957         32.1113         176.352 
        1.04314         166.709          31.662         174.859 
        1.04929         166.134         31.2224          173.46 
        1.05541         164.843         30.7928          172.65 
        1.06154         163.254         30.3704         171.931 
        1.06769         162.843         29.9552         170.721 
        1.07382         161.392         29.5491         169.735 
        1.07993         160.191         29.1515         168.743 
        1.08607          159.88         28.7596         167.343 
        1.09222         158.168         28.3746           166.5 
        1.09836         156.897          27.997          165.55 
        1.10449         155.695         27.6268         164.985 
        1.11063         154.581         27.2629         163.592 
        1.11677         153.726         26.9057         162.567 
         1.1229         152.119         26.5555         161.553 
        1.12903         151.621         26.2112         160.564 
        1.13518         150.766         25.8728         159.775 
        1.14131         149.358         25.5406         158.778 
        1.14745         149.309         25.2144         157.533 
        1.15359          147.48         24.8939          157.08 
        1.15973         146.391         24.5788         156.061 
        1.16584         145.844         24.2706         155.541 
        1.17197         145.522         23.9672         154.569 
        1.17811         143.488         23.6681         153.449 
        1.18424         143.088          23.375         152.523 
        1.19038         142.373         23.0861         152.191 
        1.19652         140.908         22.8021         150.747 
        1.20267         140.635         22.5229         150.382 
        1.20881          139.36         22.2485         149.348 
        1.21495         138.435         21.9791         148.485 
        1.22108         137.722         21.7142          147.61 
         1.2272         136.533         21.4543         147.034 
        1.23334         136.453          21.198         146.285 
        1.23949         134.744         20.9454         145.348 
        1.24562         134.135         20.6976         144.182 
        1.25174         133.438         20.4541         143.471 
        1.25789         132.787         20.2139         142.611 
        1.26402         131.162         19.9779         142.198 
        1.27014         130.673         19.7463         141.379 
        1.27628         129.748         19.5177         141.082 
        1.28244         129.484         19.2922         140.095 
        1.28858         128.272         19.0706          139.41 
        1.29471         127.607          18.853         138.619 
        1.30084         126.595          18.639         137.617 
        1.30697         125.496          18.428         136.893 
        1.31312         124.775           18.22         136.099 
        1.31925         123.991         18.0158          135.64 
        1.32537         123.772          17.815         134.926 
        1.33151         122.768         17.6165         134.235 
        1.33765         121.868         17.4212         133.624 
        1.34378         121.206         17.2292         132.911 
        1.34992         120.611           17.04         132.183 
        1.35606         120.139         16.8532         131.317 
         1.3622         118.716         16.6696         130.949 
        1.36833         118.256         16.4891         130.147 
        1.37445          117.68         16.3114         129.322 
        1.38059         116.831         16.1358          128.71 
        1.38675         116.348         15.9623         127.983 
        1.39288         115.313         15.7921         127.475 
        1.39901         114.883         15.6245         126.849 
        1.40515         114.057         15.4589         126.147 
         1.4113         113.587         15.2958         125.533 
        1.41742         112.413         15.1356          124.96 
        1.42355         112.184         14.9774         124.164 
         1.4297          111.16         14.8211         123.688 
        1.43585         110.533          14.667           123.2 
        1.44198         110.395         14.5157         122.691 
        1.44809         109.545         14.3668         121.921 
        1.45423         109.084         14.2195         121.193 
        1.46036         108.071         14.0745         120.634 
        1.46649         107.484         13.9315         120.169 
        1.47263         106.724         13.7903         119.612 
        1.47877         105.959         13.6512         118.809 
        1.48491         105.281         13.5138         118.227 
        1.49104         104.958         13.3785         117.842 
        1.49718         103.957          13.245         117.197 
        1.50333         103.322         13.1132         116.541 
        1.50947          102.81         12.9833         116.027 
         1.5156         102.327         12.8555         115.557 
        1.52172         101.769         12.7293         115.033 
        1.52787         100.954         12.6046          114.41 
          1.534         100.583         12.4817         113.889 
        1.54013         100.089         12.3606         113.458 
        1.54627         99.4573         12.2409         112.938 
        1.55241         98.8179         12.1227         112.323 
        1.55855          98.169         12.0063         111.716 
        1.56467          97.382         11.8917         111.241 
         1.5708         96.8387         11.7783         110.679 
        1.57695         96.7654         11.6661         110.149 
        1.58308         96.1433         11.5558         109.742 
        1.58922         95.4814         11.4467          109.24 
        1.59535         94.8431         11.3391         108.756 
         1.6015         94.6504         11.2328         108.233 
        1.60764         93.9923         11.1278         107.699 
        1.61376         93.2956         11.0245         107.261 
        1.61989         92.6069         10.9224         106.791 
        1.62604         92.2099         10.8214         106.075 
        1.63218         91.8423         10.7218         105.532 
        1.63831         91.3468         10.6236         105.265 
        1.64444         90.6805         10.5266         104.793 
        1.65059          89.888         10.4306         104.275 
        1.65673         89.6872         10.3358         103.745 
        1.66285         89.3139         10.2426         103.315 
        1.66898         88.6194         10.1504         102.959 
        1.67512         87.7868         10.0592         102.408 
        1.68127         87.5809         9.96905         101.967 
         1.6874         87.2374          9.8802         101.571 
        1.69353         86.7258         9.79248         101.008 
        1.69967         86.1863         9.70561         100.596 
        1.70581         85.3795         9.61984         100.164 
        1.71193         84.8597         9.53543         99.6544 
        1.71806          84.829         9.45185         99.2242 
        1.72421         84.2427         9.36911         98.8916 
        1.73035         83.9316         9.28745         98.4732 
        1.73649         83.3327         9.20678         97.9111 
        1.74262         82.8465         9.12714         97.3654 
        1.74876         82.3879         9.04839         96.9518 
        1.75489         81.7972         8.97072         96.6153 
        1.76101         81.2929           8.894         96.2662 
        1.76715         81.0494         8.81806         95.8642 
        1.77329         80.3553         8.74292         95.4017 
        1.77943         80.1705         8.66863         94.9704 
        1.78557         79.7667          8.5953         94.6071 
        1.79171         78.9986         8.52281         94.1545 
        1.79785         78.6889         8.45114         93.6734 
        1.80399         78.2312         8.38032         93.3007 
        1.81012         77.7732         8.31039         92.9802 
        1.81625         77.4485          8.2413         92.5528 
        1.82239         76.9023         8.17288         92.0716 
        1.82853          76.416         8.10528          91.706 
        1.83466         76.1094          8.0385         91.2844 
        1.84078         75.7906         7.97255         90.8563 
        1.84692         75.1232         7.90723         90.6085 
        1.85306         74.8322         7.84256         90.1423 
         1.8592         74.3224         7.77871         89.6177 
        1.86533         73.9245         7.71561         89.3813 
        1.87147          73.479         7.65313         89.0581 
