# k  (h/Mpc)    P(k)  (Mpc/h)^3    P_linear(k)  (Mpc/h)^3     P_NL(k)  ShotnoiseSubtracted = false
     0.00783031         23244.6         23621.2         23394.5 
       0.013688         26703.8         26368.1           26153 
       0.019231           24485         24355.1         24157.2 
      0.0249154         20088.8         20507.6         20358.3 
      0.0312784         15984.5           16091         16003.2 
      0.0375637         12794.6         12669.2         12633.2 
      0.0433917         10467.6         10543.8         10503.3 
      0.0492413         9277.79         9243.09         9211.76 
      0.0555754         8235.15         8419.15         8393.48 
      0.0619321         7924.18            7824         7794.97 
       0.067871         7097.05         7225.54         7207.57 
      0.0738098         6396.98          6487.9         6417.86 
      0.0800417          5511.4         5606.33         5592.77 
      0.0862327         4772.86         4747.29         4835.55 
      0.0921407         4217.49            4056         4176.05 
      0.0982031         3671.09         3535.55         3730.26 
       0.104506         3433.47         3193.41         3429.37 
       0.110769         3197.71         3001.99         3174.54 
       0.116806         3057.13         2887.26         3021.25 
       0.122832         2922.96         2775.17         2893.11 
       0.129052         2692.52         2616.25         2717.05 
       0.135211         2503.11         2404.88         2516.43 
       0.141259         2344.01         2165.61         2323.59 
       0.147318         2156.19         1929.15         2143.28 
       0.153489         1941.25         1723.38          1924.7 
       0.159709         1816.81         1568.72         1800.54 
       0.165845         1739.61         1467.45         1730.47 
       0.171974         1659.13         1403.88         1643.08 
       0.178125         1584.61         1358.34         1601.74 
       0.184229         1512.97         1312.59         1527.04 
        0.19034          1427.1         1253.97         1452.19 
       0.196428         1381.93         1179.88         1372.79 
       0.202534         1317.58         1095.25         1304.12 
       0.208729         1239.41         1008.85         1215.59 
       0.214876          1180.7         932.168         1174.26 
       0.220989         1130.16         870.509         1127.87 
       0.227147         1084.71         823.954         1087.07 
        0.23329          1039.5         789.878         1056.88 
       0.239377          1018.5         763.014         1015.24 
       0.245482         952.525         737.484         971.616 
       0.251667         944.693         708.976         945.576 
       0.257832         902.355         676.453         904.429 
       0.263955         868.704         641.095         868.806 
       0.270079         833.059         605.149          837.29 
        0.27624         819.546         571.267         804.599 
       0.282372          786.07         541.743         784.117 
        0.28843         773.697          517.41         764.653 
       0.294538         732.298          497.17         740.332 
       0.300721         725.981         479.675         718.541 
        0.30691         696.579         463.507         706.903 
       0.313033         680.918          447.48         681.179 
       0.319153         663.777         430.753         660.559 
       0.325316         643.611         413.195         643.906 
        0.33145         625.314         395.587         618.906 
       0.337538         611.344         378.729         604.175 
       0.343633         596.144         363.097         595.393 
       0.349808         572.627         348.919         583.431 
       0.355968         567.599         336.356         570.109 
       0.362074         560.587         325.202         558.145 
       0.368217         542.362         314.785         542.334 
       0.374374         519.297         304.729         529.611 
       0.380519         518.178         294.798          516.34 
       0.386598         501.844         284.947         510.537 
       0.392688         498.293         275.176         495.839 
        0.39888         483.112         265.497         485.508 
       0.405048         474.885         256.305         475.609 
       0.411186         467.667         247.764         464.986 
       0.417313         457.856         239.853         456.497 
       0.423458         446.357         232.478         448.393 
       0.429607         441.725         225.561         440.546 
       0.435692         429.587         219.027         428.171 
       0.441815         424.285         212.642         424.347 
       0.447964         415.002         206.383         417.893 
       0.454126         409.277         200.254         405.702 
       0.460267         399.158         194.301         403.048 
       0.466387         393.482          188.58         396.072 
        0.47254         389.262          183.09         388.789 
       0.478662          385.06         177.902         381.082 
       0.484765         371.213         172.986         375.208 
       0.490885         367.622         168.296         368.099 
       0.497035         360.059          163.79         363.438 
       0.503198         356.283         159.443         358.536 
       0.509342         353.931         155.239         352.175 
       0.515458         349.434         151.171         347.928 
       0.521598         338.885         147.211         342.991 
       0.527764         335.233         143.366         339.703 
       0.533884         331.305         139.683         334.814 
           0.54         326.795          136.14           328.9 
       0.546137         324.393         132.719         324.794 
       0.552299         318.785         129.422         319.874 
       0.558452         316.231         126.258         316.065 
       0.564573         312.148         123.221         313.209 
       0.570708         306.187         120.275         309.204 
       0.576825         300.069         117.425         303.376 
       0.582926          298.18         114.666         300.821 
       0.589034         294.377         111.989         296.679 
       0.595184         292.506         109.379         291.902 
       0.601379         285.999         106.837         288.418 
       0.607522         283.256           104.4         283.877 
       0.613639         280.655         102.052         283.434 
       0.619772         276.312         99.7721         281.329 
       0.625918         274.462          97.559         276.057 
       0.632068         269.292         95.4128         273.509 
       0.638161         267.658         93.3509         271.193 
         0.6443         263.876         91.3354         267.683 
       0.650464         261.403         89.3723         262.659 
       0.656582         257.414         87.4807         261.013 
       0.662703         257.312          85.643         258.544 
       0.668861         253.678         83.8475         257.054 
       0.675024           250.3         82.1021          254.43 
       0.681124         247.595         80.4241         250.258 
       0.687237         245.339         78.7901         247.612 
       0.693381         241.397         77.1944         245.055 
       0.699536          238.56         75.6407          243.32 
       0.705665          236.57         74.1371         239.508 
       0.711789         235.536         72.6762         238.446 
       0.717957         233.385          71.245         237.203 
        0.72409         231.521         69.8608         233.855 
       0.730186         228.034         68.5219         231.239 
       0.736317         226.063          67.211         229.617 
       0.742472         223.573         65.9297          227.38 
       0.748622         222.058         64.6832         224.895 
        0.75476         219.131         63.4718         224.875 
       0.760888         216.845         62.2933         221.464 
       0.767043         216.098         61.1403         219.338 
       0.773185         214.254          60.019         217.762 
       0.779291          210.76         58.9323         215.331 
       0.785407         210.087         57.8711         213.586 
       0.791564         207.884         56.8295         211.694 
       0.797719         205.305         55.8142         209.939 
       0.803834         203.093         54.8303         208.756 
       0.809972         202.475         53.8667          206.84 
       0.816124         201.068         52.9243         204.751 
       0.822261         199.711         52.0071         203.839 
       0.828378         197.422         51.1145         201.765 
       0.834502          195.44         50.2422         200.155 
       0.840667         194.009         49.3847         198.209 
       0.846816         192.695         48.5497         196.936 
       0.852925         191.216         47.7394         195.551 
       0.859047         189.684         46.9459         193.881 
       0.865192         187.057          46.168          191.89 
       0.871341         185.398         45.4073         190.687 
       0.877463         185.315         44.6672          189.63 
       0.883569         183.503         43.9455         189.225 
       0.889708          181.15         43.2362         186.634 
       0.895864         180.701         42.5408         185.645 
       0.902008         178.767         41.8622         183.739 
       0.908149         177.338         41.1988          182.41 
       0.914301         175.446         40.5488         180.894 
       0.920448         174.385         39.9135         179.952 
       0.926574         172.494         39.2941          178.48 
       0.932687         172.517         38.6892         177.131 
       0.938823         170.074         38.0949         176.601 
       0.944975         169.589         37.5118         174.911 
       0.951105         168.151          36.943          173.72 
       0.957225         167.405         36.3871         172.398 
       0.963368         164.639         35.8408         171.276 
       0.969511         163.964         35.3057         170.099 
       0.975621         162.612         34.7844         169.075 
       0.981748         161.802         34.2724         168.182 
       0.987916         160.585         33.7675         166.819 
        0.99406         159.498         33.2748         165.649 
        1.00019         158.261         32.7928         164.406 
        1.00632         157.258         32.3209         163.189 
        1.01246         155.888         31.8577         161.788 
        1.01859          155.59         31.4043         161.099 
        1.02471         153.394         30.9603         160.159 
        1.03085         152.488         30.5234         159.272 
        1.03698          151.38         30.0959          158.66 
        1.04314         150.119         29.6747         157.295 
        1.04929         149.743         29.2627         156.054 
        1.05541         148.568         28.8601         155.334 
        1.06154         147.195         28.4642         154.635 
        1.06769         146.805          28.075         153.548 
        1.07382         145.411         27.6945         152.683 
        1.07993          144.31         27.3218         151.759 
        1.08607         144.014         26.9545         150.499 
        1.09222         142.559         26.5936         149.753 
        1.09836         141.413         26.2398         148.841 
        1.10449          140.26         25.8928          148.33 
        1.11063         139.309         25.5517         147.121 
        1.11677         138.445         25.2169         146.141 
         1.1229         137.121         24.8887         145.253 
        1.12903          136.72         24.5661         144.385 
        1.13518         135.874         24.2489         143.695 
        1.14131         134.524         23.9376         142.696 
        1.14745         134.506         23.6318         141.658 
        1.15359          132.86         23.3314          141.19 
        1.15973         131.951         23.0361         140.318 
        1.16584         131.369         22.7472         139.727 
        1.17197         131.026         22.4629         138.918 
        1.17811         129.244         22.1826         137.913 
        1.18424         128.951         21.9079         137.045 
        1.19038         128.421         21.6371          136.78 
        1.19652         127.099         21.3709         135.506 
        1.20267         126.634         21.1093         135.108 
        1.20881         125.673         20.8521         134.156 
        1.21495         124.666         20.5996         133.445 
        1.22108          124.12         20.3513          132.62 
         1.2272         122.999         20.1077         132.051 
        1.23334         122.847         19.8675          131.45 
        1.23949         121.461         19.6308         130.601 
        1.24562         120.886         19.3985         129.528 
        1.25174         120.314         19.1703         128.866 
        1.25789         119.629         18.9452           128.1 
        1.26402         118.124          18.724         127.755 
        1.27014          117.63         18.5069         127.024 
        1.27628         116.988         18.2926         126.747 
        1.28244         116.712         18.0813         125.846 
        1.28858         115.658         17.8737         125.208 
        1.29471         114.911         17.6697         124.482 
        1.30084         114.243         17.4691         123.597 
        1.30697         113.068         17.2714         122.943 
        1.31312         112.515         17.0764         122.217 
        1.31925         111.783         16.8851         121.844 
        1.32537         111.557         16.6968         121.223 
        1.33151         110.725         16.5108         120.556 
        1.33765         109.831         16.3277          120.02 
        1.34378          109.27         16.1478         119.405 
        1.34992          108.73         15.9705         118.716 
        1.35606         108.347         15.7954         117.959 
         1.3622         107.101         15.6233         117.583 
        1.36833         106.606         15.4542         116.851 
        1.37445         106.166         15.2876         116.158 
        1.38059         105.311          15.123          115.52 
        1.38675         104.818         14.9605         114.933 
        1.39288         104.055         14.8009           114.4 
        1.39901         103.681         14.6438         113.895 
        1.40515         102.788         14.4886         113.321 
         1.4113         102.483         14.3357          112.78 
        1.41742          101.43         14.1856         112.248 
        1.42355          101.19         14.0374         111.487 
         1.4297         100.315         13.8908         111.106 
        1.43585         99.7063         13.7464         110.613 
        1.44198         99.5457         13.6046          110.21 
        1.44809         98.8868         13.4651         109.519 
        1.45423         98.4091          13.327         108.808 
        1.46036         97.4923         13.1911         108.323 
        1.46649         96.9713         13.0571         107.943 
        1.47263         96.2625         12.9248         107.451 
        1.47877         95.5714         12.7944         106.725 
        1.48491         95.0043         12.6656         106.189 
        1.49104         94.7119         12.5388         105.869 
        1.49718         93.9298         12.4137         105.233 
        1.50333         93.3019         12.2901         104.663 
        1.50947         92.8225         12.1684         104.239 
         1.5156         92.3958         12.0486         103.791 
        1.52172         91.9626         11.9304         103.276 
        1.52787         91.1991         11.8135         102.761 
          1.534         90.8465         11.6983         102.306 
        1.54013         90.4096         11.5848           101.9 
        1.54627          89.849         11.4726         101.431 
        1.55241         89.3376         11.3618         100.875 
        1.55855          88.725         11.2527          100.33 
        1.56467          88.074         11.1453         99.9421 
         1.5708         87.4966          11.039          99.437 
        1.57695         87.4268         10.9339         98.9465 
        1.58308         86.9176         10.8305          98.594 
        1.58922         86.3019         10.7283         98.1389 
        1.59535         85.7203         10.6274         97.7169 
         1.6015         85.6247         10.5277         97.2202 
        1.60764         84.9147         10.4294         96.7405 
        1.61376         84.3462         10.3326         96.4007 
        1.61989         83.8017         10.2369         95.9466 
        1.62604         83.3797         10.1422         95.2673 
        1.63218         83.0823         10.0488         94.7909 
        1.63831         82.5815         9.95678           94.59 
        1.64444         82.0173         9.86587         94.1705 
        1.65059         81.3142         9.77588          93.694 
        1.65673         81.1139         9.68711         93.2175 
        1.66285         80.7971         9.59969         92.8273 
        1.66898         80.1672         9.51332         92.4886 
        1.67512         79.4075         9.42785          92.003 
        1.68127         79.2397         9.34335         91.6418 
         1.6874         78.8719         9.26007         91.2909 
        1.69353         78.4548         9.17785         90.7352 
        1.69967          78.056         9.09644         90.3777 
        1.70581         77.3118         9.01605         90.0131 
        1.71193         76.8149         8.93694         89.5545 
        1.71806         76.7612          8.8586         89.1667 
        1.72421         76.2391         8.78106         88.8643 
        1.73035         75.9221         8.70452         88.4941 
        1.73649         75.4555         8.62892         88.0051 
        1.74262         74.9721         8.55428         87.5238 
        1.74876         74.5798         8.48047         87.1544 
        1.75489         74.0522         8.40768         86.8441 
        1.76101         73.6074         8.33577         86.5207 
        1.76715         73.3325          8.2646         86.1727 
        1.77329         72.7979         8.19417         85.7487 
        1.77943         72.4978         8.12454         85.3418 
        1.78557         72.2162         8.05582           85.02 
        1.79171         71.5392         7.98788         84.6266 
        1.79785          71.183         7.92071         84.2002 
        1.80399         70.8312         7.85433         83.8585 
        1.81012          70.408         7.78879          83.565 
        1.81625          70.117         7.72403         83.1864 
        1.82239         69.5973         7.65991         82.7588 
        1.82853         69.2216         7.59655         82.4202 
        1.83466         68.9377         7.53397         82.0406 
        1.84078         68.6177         7.47215           81.67 
        1.84692         68.0685         7.41093         81.4572 
        1.85306         67.7576         7.35032         81.0247 
         1.8592         67.3939         7.29048          80.546 
        1.86533          66.998         7.23134         80.3552 
        1.87147         66.5648         7.17278         80.0701 
        1.87761         66.1216         7.11485         79.6658 
