# k  (h/Mpc)    P(k)  (Mpc/h)^3    P_linear(k)  (Mpc/h)^3     P_NL(k)  ShotnoiseSubtracted = false
     0.00783031         3113.31          3150.1         3122.11 
       0.013688         3515.87         3510.67         3488.67 
       0.019231          3248.4         3241.85         3224.02 
      0.0249154         2712.37         2729.57         2720.59 
      0.0312784         2144.04         2141.69          2142.8 
      0.0375637         1696.98         1686.27         1688.92 
      0.0433917         1403.96         1403.38            1406 
      0.0492413         1234.07         1230.27         1232.78 
      0.0555754         1114.58         1120.61         1121.26 
      0.0619321         1048.65          1041.4         1041.01 
       0.067871         957.767         961.751         960.816 
      0.0738098         859.947         863.571          861.79 
      0.0800417         741.698         746.232         746.108 
      0.0862327         632.303         631.893         634.369 
      0.0921407         544.294         539.878         543.343 
      0.0982031         472.476         470.604         475.711 
       0.104506         432.301         425.064         430.858 
       0.110769          404.77         399.586         403.606 
       0.116806         386.409         384.315         387.147 
       0.122832         372.776         369.395         371.803 
       0.129052         348.397         348.243          350.11 
       0.135211         320.826         320.108         322.414 
       0.141259         291.959         288.259         291.601 
       0.147318         262.284         256.786         261.794 
       0.153489         234.089         229.396         233.919 
       0.159709         214.356          208.81         213.973 
       0.165845         202.326         195.329         201.384 
       0.171974         191.501         186.868         191.983 
       0.178125         185.443         180.806         186.058 
       0.184229         179.283         174.716         179.384 
        0.19034         168.743         166.913         171.087 
       0.196428         160.884         157.052         160.686 
       0.202534         151.576         145.787         149.899 
       0.208729         139.402         134.287         138.722 
       0.214876          128.73          124.08         129.651 
       0.220989         121.715         115.872          121.73 
       0.227147          114.52         109.675         115.361 
        0.23329         109.785          105.14         110.998 
       0.239377         106.473         101.564         107.124 
       0.245482         101.337         98.1656         102.931 
       0.251667         98.6696         94.3709         99.3775 
       0.257832         94.4054         90.0419         94.7927 
       0.263955         89.6563         85.3355          89.997 
       0.270079         85.0361         80.5507         85.3428 
        0.27624         81.5065         76.0407           80.78 
       0.282372         77.7144         72.1108          77.216 
        0.28843         74.0112         68.8719         74.0193 
       0.294538            70.9         66.1778         71.2373 
       0.300721         69.1556          63.849         68.9417 
        0.30691         66.2358          61.697         66.7282 
       0.313033          63.997         59.5636         64.2842 
       0.319153         60.8848         57.3371          62.026 
       0.325316         59.6096              55         59.7992 
        0.33145         56.8704         52.6563         57.2915 
       0.337538         55.0003         50.4123         54.9831 
       0.343633         52.6658         48.3315         52.9948 
       0.349808         50.8764         46.4443         51.2713 
       0.355968          49.372          44.772         49.8099 
       0.362074         47.6928         43.2873         48.0879 
       0.368217         46.0952         41.9008          46.373 
       0.374374         44.6267         40.5622         45.0683 
       0.380519         43.4257         39.2403         43.5826 
       0.386598         42.0819         37.9291         42.2984 
       0.392688         41.0123         36.6285         41.0136 
        0.39888         39.6036         35.3401          39.691 
       0.405048         38.4388         34.1165         38.3725 
       0.411186         37.3228         32.9796         37.4136 
       0.417313         36.0769         31.9266         36.2061 
       0.423458         35.0334          30.945          35.249 
       0.429607         34.0253         30.0242         34.2198 
       0.435692         32.9289         29.1545         33.3302 
       0.441815         32.2624         28.3046         32.5566 
       0.447964         31.5697         27.4715         31.5656 
       0.454126         30.2071         26.6556         30.6559 
       0.460267          29.636         25.8633         30.0006 
       0.466387         28.6978         25.1017         29.0899 
        0.47254         28.1122          24.371         28.4025 
       0.478662         27.5618         23.6804         27.6666 
       0.484765         26.6529         23.0261           26.89 
       0.490885         26.0143         22.4018         26.3942 
       0.497035         25.5885          21.802         25.8304 
       0.503198         24.8419         21.2233          25.072 
       0.509342         24.1821         20.6638         24.5328 
       0.515458         23.5693         20.1223         24.0777 
       0.521598         23.1079         19.5952         23.3341 
       0.527764         22.5516         19.0833         22.7181 
       0.533884         22.1387         18.5932         22.2263 
           0.54         21.5533         18.1214         21.7496 
       0.546137         21.1713         17.6662         21.3353 
       0.552299         20.7562         17.2273         20.7346 
       0.558452         20.0948         16.8061         20.2929 
       0.564573         19.7487         16.4018         19.9725 
       0.570708         19.3599         16.0097         19.5411 
       0.576825         18.8687         15.6303         19.1106 
       0.582926         18.4468         15.2632         18.7238 
       0.589034         17.9252         14.9068         18.4234 
       0.595184         17.6681         14.5594         17.9181 
       0.601379         17.2544         14.2211         17.6778 
       0.607522         16.9191         13.8966         17.2334 
       0.613639         16.6952          13.584         16.9045 
       0.619772         16.2433         13.2806         16.6249 
       0.625918         16.0931          12.986         16.2977 
       0.632068         15.8183         12.7003         15.9423 
       0.638161         15.4171         12.4259         15.6487 
         0.6443         15.0936         12.1576         15.3209 
       0.650464         14.7694         11.8963         15.0993 
       0.656582         14.6461         11.6445         14.8195 
       0.662703         14.3383         11.3999         14.5111 
       0.668861          14.037         11.1609         14.3208 
       0.675024          13.748         10.9286         13.9834 
       0.681124         13.5009         10.7052         13.7406 
       0.687237         13.2344         10.4877          13.478 
       0.693381         13.0683         10.2753          13.225 
       0.699536          12.722         10.0685         13.0401 
       0.705665         12.6199         9.86834         12.8658 
       0.711789         12.3178         9.67388          12.574 
       0.717957         12.1085         9.48338         12.3756 
        0.72409         11.9132         9.29912         12.1989 
       0.730186         11.7315         9.12091         11.9716 
       0.736317         11.5715         8.94641         11.7626 
       0.742472         11.3552         8.77587          11.614 
       0.748622         11.1995         8.60994         11.4057 
        0.75476         10.9661         8.44869          11.225 
       0.760888         10.7795         8.29182         11.0686 
       0.767043         10.6256         8.13834         10.9012 
       0.773185         10.4145         7.98909         10.7211 
       0.779291         10.3257         7.84444         10.5761 
       0.785407         10.1952         7.70319         10.3927 
       0.791564         9.99343         7.56454         10.2439 
       0.797719         9.73909         7.42939         10.0886 
       0.803834         9.71128         7.29842         9.92105 
       0.809972         9.59277         7.17016         9.80453 
       0.816124         9.35839         7.04472         9.63812 
       0.822261         9.22473         6.92263         9.49425 
       0.828378         9.12219         6.80382         9.35405 
       0.834502         9.01936         6.68771         9.23652 
       0.840667         8.85361         6.57357          9.0911 
       0.846816         8.67639         6.46242         8.97021 
       0.852925         8.58514         6.35456         8.87914 
       0.859047         8.46569         6.24895         8.74428 
       0.865192         8.37318          6.1454         8.61518 
       0.871341         8.26684         6.04413         8.51332 
       0.877463         8.11879         5.94562         8.38867 
       0.883569         7.99029         5.84957         8.26688 
       0.889708         7.84286         5.75515         8.16466 
       0.895864         7.75473         5.66258         8.04499 
       0.902008         7.68662         5.57225         7.95316 
       0.908149         7.59378         5.48395         7.84266 
       0.914301         7.50692         5.39743         7.77905 
       0.920448         7.36218         5.31287         7.63916 
       0.926574         7.27472         5.23042         7.54783 
       0.932687          7.1705          5.1499         7.41607 
       0.938823         7.07101         5.07079         7.34472 
       0.944975         6.97546         4.99317         7.26491 
       0.951105         6.89063         4.91747         7.14366 
       0.957225         6.82648         4.84347         7.08578 
       0.963368         6.74391         4.77074         6.98524 
       0.969511         6.66183         4.69952         6.90584 
       0.975621         6.58532         4.63014         6.81674 
       0.981748         6.48215         4.56198         6.73572 
       0.987916         6.42364         4.49478         6.64826 
        0.99406         6.32153         4.42919         6.57978 
        1.00019         6.21501         4.36504         6.51304 
        1.00632         6.18003         4.30222         6.43209 
        1.01246         6.10568         4.24056         6.37882 
        1.01859         5.99794         4.18021         6.28884 
        1.02471         5.95632         4.12111         6.18958 
        1.03085         5.88268         4.06295         6.13055 
        1.03698         5.77863         4.00605         6.07134 
        1.04314         5.73805         3.94999         5.99556 
        1.04929         5.65818         3.89514         5.93705 
        1.05541           5.578         3.84156         5.88122 
        1.06154         5.53484         3.78885         5.80336 
        1.06769         5.49479         3.73706          5.7361 
        1.07382         5.41299          3.6864         5.67906 
        1.07993         5.34264          3.6368         5.61416 
        1.08607         5.29251         3.58791         5.56129 
        1.09222         5.23575         3.53987         5.50227 
        1.09836         5.16349         3.49277         5.42474 
        1.10449         5.11916         3.44658         5.37344 
        1.11063         5.04414         3.40118         5.32136 
        1.11677         5.01123         3.35661         5.26112 
         1.1229         4.96904         3.31293         5.21558 
        1.12903         4.89365         3.26998         5.17184 
        1.13518         4.82569         3.22777         5.10942 
        1.14131         4.78648         3.18632         5.05007 
        1.14745         4.73052         3.14562          4.9995 
        1.15359          4.6943         3.10564         4.94938 
        1.15973         4.63176         3.06633         4.89734 
        1.16584         4.56452         3.02788         4.85792 
        1.17197          4.5287         2.99003          4.8144 
        1.17811         4.49797         2.95272         4.75248 
        1.18424          4.4444         2.91615         4.70719 
        1.19038         4.41476          2.8801          4.6629 
        1.19652         4.35665         2.84467         4.61614 
        1.20267         4.30752         2.80985         4.57407 
        1.20881         4.28526         2.77561         4.53415 
        1.21495         4.23797           2.742         4.49137 
        1.22108         4.17942         2.70895         4.45041 
         1.2272          4.1404         2.67653          4.3977 
        1.23334         4.09402         2.64456         4.36434 
        1.23949         4.04917         2.61304         4.32814 
        1.24562         4.02114         2.58212         4.28401 
        1.25174         3.98505         2.55176         4.24353 
        1.25789         3.94517         2.52178         4.19858 
        1.26402         3.91952         2.49235         4.16197 
        1.27014         3.87445         2.46345         4.12818 
        1.27628         3.82698         2.43493         4.08454 
        1.28244         3.78126          2.4068         4.05271 
        1.28858          3.7747         2.37916         4.01507 
        1.29471         3.72132         2.35201         3.98527 
        1.30084         3.67704         2.32531         3.95756 
        1.30697         3.66555         2.29899         3.90831 
        1.31312         3.60212         2.27303          3.8769 
        1.31925         3.56829         2.24756         3.85489 
        1.32537         3.54021         2.22251         3.82181 
        1.33151         3.52492         2.19775          3.7851 
        1.33765         3.47789         2.17338         3.74648 
        1.34378         3.44897         2.14943         3.71588 
        1.34992         3.42033         2.12582         3.68788 
        1.35606         3.38526         2.10252         3.65303 
         1.3622         3.36188         2.07961         3.61819 
        1.36833         3.31908          2.0571         3.60346 
        1.37445         3.29542         2.03493         3.56782 
        1.38059         3.27752         2.01302         3.53083 
        1.38675         3.24339         1.99138         3.50678 
        1.39288         3.22519         1.97015         3.48404 
        1.39901         3.17844         1.94923         3.45324 
        1.40515         3.15745         1.92857         3.42339 
         1.4113         3.12801         1.90822         3.39632 
        1.41742         3.10172         1.88824         3.36982 
        1.42355         3.06974         1.86851         3.34373 
         1.4297         3.05157           1.849         3.31516 
        1.43585         3.03022         1.82978         3.29375 
        1.44198         3.00762         1.81091         3.26331 
        1.44809          2.9759         1.79234         3.23892 
        1.45423         2.94764         1.77396         3.21519 
        1.46036         2.91815         1.75587         3.18961 
        1.46649         2.90118         1.73802         3.16694 
        1.47263         2.87039         1.72041           3.144 
        1.47877         2.84685         1.70306         3.11279 
        1.48491         2.82718         1.68591         3.09406 
        1.49104         2.80494         1.66904         3.07212 
        1.49718         2.77935         1.65239         3.04684 
        1.50333         2.76023         1.63593         3.02405 
        1.50947         2.72926         1.61974         3.00236 
         1.5156         2.71421         1.60379         2.98262 
        1.52172         2.69469         1.58805         2.96215 
        1.52787         2.67164         1.57249         2.93085 
          1.534         2.64796         1.55716         2.91222 
        1.54013         2.62971         1.54205          2.8915 
        1.54627         2.60381         1.52711         2.86929 
        1.55241         2.57998         1.51237         2.85073 
        1.55855         2.56713         1.49784         2.82479 
        1.56467         2.54471         1.48355          2.8098 
         1.5708         2.52752          1.4694         2.79465 
        1.57695         2.50537         1.45541         2.76851 
        1.58308         2.47867         1.44164          2.7483 
        1.58922         2.47142         1.42804         2.73556 
        1.59535         2.45386         1.41461         2.71879 
         1.6015         2.42646         1.40135         2.69635 
        1.60764           2.407         1.38825         2.67526 
        1.61376           2.394         1.37537         2.65906 
        1.61989         2.37175         1.36263         2.64156 
        1.62604         2.35682         1.35003         2.62297 
        1.63218         2.34599         1.33759         2.60742 
        1.63831         2.31999         1.32534         2.59113 
        1.64444         2.30752         1.31324         2.56897 
        1.65059         2.27853         1.30127         2.55256 
        1.65673         2.27608         1.28945          2.5358 
        1.66285         2.24913         1.27781         2.51799 
        1.66898         2.23354         1.26632         2.50131 
        1.67512         2.22017         1.25494           2.485 
        1.68127         2.20282         1.24369         2.47076 
         1.6874         2.18939         1.23261         2.45812 
        1.69353         2.16766         1.22166         2.44291 
        1.69967         2.15984         1.21083         2.42094 
        1.70581         2.14398         1.20013         2.40504 
        1.71193         2.12374         1.18959         2.39444 
        1.71806           2.111         1.17917         2.37671 
        1.72421         2.09664         1.16884         2.36049 
        1.73035          2.0822         1.15866         2.34587 
        1.73649         2.06663         1.14859         2.33107 
        1.74262         2.04909         1.13866         2.31743 
        1.74876         2.03909         1.12883         2.30414 
        1.75489         2.02547         1.11914         2.28823 
        1.76101         2.00741         1.10957         2.27072 
        1.76715         1.99718          1.1001         2.25831 
        1.77329         1.98274         1.09073         2.24569 
        1.77943         1.96382         1.08146         2.23124 
        1.78557         1.95285         1.07231         2.21706 
        1.79171         1.94209         1.06327         2.20219 
        1.79785         1.92749         1.05432         2.18816 
        1.80399         1.91399         1.04549         2.17662 
        1.81012         1.89939         1.03677         2.16503 
        1.81625         1.88966         1.02815         2.15193 
        1.82239         1.87773         1.01961         2.13919 
        1.82853         1.85883         1.01118         2.12873 
        1.83466         1.85016         1.00285         2.11693 
        1.84078         1.84224        0.994618         2.10304 
        1.84692         1.83085        0.986468         2.08928 
        1.85306         1.81343          0.9784         2.07438 
         1.8592         1.80046        0.970435         2.06192 
        1.86533          1.7882        0.962563         2.05327 
        1.87147         1.77854        0.954768         2.04081 
        1.87761          1.7664        0.947057         2.02788 
