# k  (h/Mpc)    Pcb(k)  (Mpc/h)^3    Pcb_linear(k) (Mpc/h)^3    Pcb_NL(k) (Mpc/h)^3   ShotnoiseSubtracted = false
     0.00783031          6826.6         6914.44         6852.67 
       0.013688          7741.6         7704.97          7654.2 
       0.019231         7137.86         7114.46         7072.06 
      0.0249154         5932.21         5989.97         5966.21 
      0.0312784         4698.46         4699.74         4697.45 
      0.0375637         3728.74         3700.31         3703.39 
      0.0433917         3075.77          3079.5         3082.36 
      0.0492413         2709.27         2699.62          2702.9 
      0.0555754         2436.69         2458.97          2459.3 
      0.0619321         2307.62         2285.15         2283.52 
       0.067871         2096.52         2110.36         2108.48 
      0.0738098         1883.66         1894.92         1888.74 
      0.0800417         1623.48         1637.44         1637.22 
      0.0862327         1389.17         1386.55         1396.65 
      0.0921407         1202.82         1184.64         1198.24 
      0.0982031         1043.31         1032.63         1053.48 
       0.104506         961.061         932.705         957.201 
       0.110769         898.507         876.796         894.057 
       0.116806         856.619         843.286         856.271 
       0.122832          826.06         810.548         822.106 
       0.129052         768.656         764.135         773.585 
       0.135211         709.712         702.399         713.548 
       0.141259         650.347         632.514         648.058 
       0.147318         587.238         563.453         585.853 
       0.153489         524.673         503.352         523.509 
       0.159709         483.536         458.182         481.236 
       0.165845         457.865         428.603         455.633 
       0.171974         433.398         410.035         433.321 
       0.178125         418.798         396.734         420.799 
       0.184229         404.266         383.371         404.789 
        0.19034         378.295         366.249           385.6 
       0.196428         363.559         344.611         361.923 
       0.202534         344.502         319.892         339.238 
       0.208729         318.264         294.659         314.847 
       0.214876         295.364         272.263         297.316 
       0.220989          280.41         254.252         280.641 
       0.227147         264.828         240.655         266.635 
        0.23329         253.927         230.702         257.436 
       0.239377         247.085         222.856         248.127 
       0.245482         232.586           215.4         237.567 
       0.251667         228.051         207.074         230.179 
       0.257832         218.904         197.575         219.511 
       0.263955         208.506         187.247         208.916 
       0.270079         198.178         176.748          199.08 
        0.27624         191.862         166.852         188.984 
       0.282372         183.614         158.229         181.551 
        0.28843          175.61         151.122         174.599 
       0.294538         167.653          145.21          168.55 
       0.300721         164.647           140.1         163.562 
        0.30691          157.16         135.378         158.671 
       0.313033         152.519         130.698         152.706 
       0.319153         145.488         125.812         147.566 
       0.325316         142.177         120.684         142.797 
        0.33145         135.997         115.541         136.894 
       0.337538         132.663         110.617         131.766 
       0.343633         127.405         106.051         128.055 
       0.349808          122.97          101.91         124.403 
       0.355968         120.176         98.2413         121.157 
       0.362074         116.488         94.9829         117.232 
       0.368217         112.706         91.9406         113.087 
       0.374374         108.998         89.0034         109.973 
       0.380519         106.566         86.1023         106.548 
       0.386598         103.394         83.2259         103.868 
       0.392688          101.13         80.3716         100.845 
        0.39888         98.1851         77.5448         97.8002 
       0.405048         95.2792         74.8599         95.3003 
       0.411186         92.8359         72.3654         92.8591 
       0.417313           90.28         70.0548         89.9648 
       0.423458         87.8924         67.9007         87.8603 
       0.429607         85.6003         65.8805          85.673 
       0.435692         82.6715         63.9719         83.4681 
       0.441815         81.6446         62.1072         81.8918 
       0.447964         79.8761         60.2792         79.6289 
       0.454126         76.1508          58.489         77.2322 
       0.460267         75.1189         56.7503           76.06 
       0.466387         73.5618         55.0794         73.9881 
        0.47254         71.8198         53.4758         72.4088 
       0.478662          70.865         51.9606         70.8204 
       0.484765          68.566         50.5249         68.7567 
       0.490885         67.1501          49.155         67.6544 
       0.497035         66.1168         47.8388         66.4378 
       0.503198         64.0995         46.5691         64.8158 
       0.509342         62.6569         45.3414         63.5982 
       0.515458         61.4319         44.1532         62.5999 
       0.521598         60.3535         42.9967         60.7629 
       0.527764         59.2491         41.8735         59.3008 
       0.533884         58.2537          40.798            58.3 
           0.54         56.7636         39.7628         57.1809 
       0.546137         56.0103          38.764         56.2694 
       0.552299         55.0331         37.8009         54.8019 
       0.558452         53.5626         36.8767         53.6662 
       0.564573         52.5456         35.9897         52.9685 
       0.570708         51.6568         35.1291         52.0107 
       0.576825         50.7669         34.2968         50.9348 
       0.582926         49.5677         33.4911         49.9781 
       0.589034         48.4677         32.7091         49.3642 
       0.595184         47.7454         31.9469         48.3123 
       0.601379         46.8954         31.2045         47.6226 
       0.607522         45.7871         30.4926         46.4505 
       0.613639         45.4793         29.8067         45.8507 
       0.619772         44.4361         29.1409         45.0342 
       0.625918          43.809         28.4945         44.3964 
       0.632068         43.2276         27.8676         43.5642 
       0.638161         42.4925         27.2654         42.9099 
         0.6443         41.7947         26.6767         42.0997 
       0.650464         41.0912         26.1034         41.3051 
       0.656582         40.5153         25.5509         40.8404 
       0.662703         39.6705         25.0141         40.0473 
       0.668861         39.0904         24.4897          39.566 
       0.675024         38.4714         23.9799         38.8019 
       0.681124         37.8424         23.4898          38.213 
       0.687237         37.0619         23.0126         37.6389 
       0.693381         36.6953         22.5465         36.9832 
       0.699536         36.0151         22.0927         36.6692 
       0.705665         35.9999         21.6535         36.1807 
       0.711789         34.9768         21.2268         35.3631 
       0.717957         34.5435         20.8089         35.0293 
        0.72409         34.0436         20.4045         34.6087 
       0.730186         33.4565         20.0135         34.0975 
       0.736317         33.2534         19.6306         33.5317 
       0.742472         32.6885         19.2564         33.0935 
       0.748622         32.2558         18.8923         32.6102 
        0.75476         31.8157         18.5385         32.1813 
       0.760888         31.2672         18.1943         31.7323 
       0.767043         30.8648         17.8575         31.4466 
       0.773185         30.4057           17.53         31.0268 
       0.779291         30.1876         17.2126          30.629 
       0.785407         29.9046         16.9027         30.1318 
       0.791564         29.3974         16.5984         29.7507 
       0.797719         28.7489         16.3019         29.5182 
       0.803834         28.6329         16.0145           29.04 
       0.809972         28.1097         15.7331         28.6622 
       0.816124         27.7411         15.4578         28.3504 
       0.822261         27.4464         15.1899         27.9526 
       0.828378         27.2728         14.9292         27.5346 
       0.834502          26.881         14.6745         27.3178 
       0.840667         26.5375          14.424         27.0229 
       0.846816         26.0802         14.1801         26.6944 
       0.852925         25.8605         13.9434         26.4235 
       0.859047         25.4911         13.7117         26.0565 
       0.865192          25.207         13.4845         25.7661 
       0.871341         25.0648         13.2623         25.4883 
       0.877463         24.5593         13.0461         25.2054 
       0.883569         24.2955         12.8354         24.9757 
       0.889708         24.0637         12.6282         24.6618 
       0.895864         23.7679         12.4251         24.3594 
       0.902008         23.5303         12.2269         24.0908 
       0.908149          23.283         12.0331         23.9106 
       0.914301         23.1402         11.8433         23.7141 
       0.920448         22.8216         11.6577         23.3585 
       0.926574         22.5191         11.4768         23.0907 
       0.932687         22.2929         11.3001         22.8777 
       0.938823         21.9553         11.1265          22.571 
       0.944975         21.8123         10.9562         22.3744 
       0.951105         21.5483         10.7901         22.1628 
       0.957225         21.2718         10.6277         21.9186 
       0.963368         21.2559         10.4682         21.6841 
       0.969511          20.952         10.3119         21.4432 
       0.975621         20.7982         10.1596          21.295 
       0.981748         20.4688         10.0101         21.0855 
       0.987916         20.2712         9.86263         20.8868 
        0.99406         20.1272         9.71871         20.6471 
        1.00019         19.8665         9.57795          20.444 
        1.00632          19.714         9.44012         20.2667 
        1.01246         19.6146         9.30481         20.0698 
        1.01859         19.2592         9.17238          19.937 
        1.02471         19.1615         9.04271          19.742 
        1.03085         19.0061          8.9151         19.5128 
        1.03698         18.6868         8.79023         19.3239 
        1.04314         18.5767         8.66724         19.1213 
        1.04929         18.3726         8.54689         19.0081 
        1.05541         18.1609         8.42931         18.9013 
        1.06154          18.085         8.31366          18.658 
        1.06769         17.8983             8.2         18.4651 
        1.07382         17.7521         8.08885         18.3331 
        1.07993         17.6103         7.98002         18.1551 
        1.08607          17.375         7.87274           18.02 
        1.09222         17.2732         7.76733         17.8959 
        1.09836         17.0912         7.66397          17.729 
        1.10449         16.9461         7.56263         17.5564 
        1.11063         16.7018         7.46301         17.3933 
        1.11677         16.6317         7.36522         17.2319 
         1.1229         16.5231         7.26936         17.1205 
        1.12903         16.3183         7.17513         16.9806 
        1.13518          16.212          7.0825         16.8234 
        1.14131         16.1159         6.99155         16.6828 
        1.14745         15.8976         6.90226         16.5764 
        1.15359         15.8584         6.81452         16.3955 
        1.15973         15.6374         6.72826         16.3023 
        1.16584         15.4831         6.64389         16.1528 
        1.17197          15.456         6.56085         16.0689 
        1.17811           15.25         6.47898          15.875 
        1.18424         15.1298         6.39874         15.7625 
        1.19038         15.0542         6.31964         15.6943 
        1.19652           14.96          6.2419          15.513 
        1.20267         14.8274         6.16548         15.4284 
        1.20881         14.6639         6.09036         15.3065 
        1.21495         14.5622         6.01661         15.2086 
        1.22108         14.4399         5.94409         15.0721 
         1.2272         14.2867         5.87295         14.9909 
        1.23334         14.2378         5.80281         14.8655 
        1.23949         14.1119         5.73364         14.7127 
        1.24562         13.9923         5.66581         14.6284 
        1.25174         13.9133         5.59917         14.5331 
        1.25789         13.7741          5.5334         14.4275 
        1.26402         13.7064         5.46881         14.2931 
        1.27014         13.5324         5.40541         14.2079 
        1.27628         13.4528         5.34282         14.0933 
        1.28244         13.3701          5.2811         14.0377 
        1.28858         13.2969         5.22044         13.9169 
        1.29471         13.1942         5.16088         13.8236 
        1.30084         13.0907         5.10229         13.7517 
        1.30697         12.9764         5.04453         13.6203 
        1.31312          12.847         4.98758         13.5304 
        1.31925         12.7669          4.9317         13.4487 
        1.32537         12.7023         4.87672         13.3711 
        1.33151         12.6004         4.82239         13.2793 
        1.33765         12.5332         4.76892         13.1746 
        1.34378         12.4249         4.71637         13.1012 
        1.34992            12.3         4.66457         13.0225 
        1.35606         12.2613         4.61344         12.9223 
         1.3622         12.1775         4.56317           12.84 
        1.36833         12.0483         4.51377         12.7759 
        1.37445         12.0299         4.46513         12.6743 
        1.38059         11.9022         4.41705         12.5911 
        1.38675         11.7626         4.36957         12.5299 
        1.39288          11.739         4.32298         12.4278 
        1.39901         11.6498         4.27709          12.349 
        1.40515         11.5894         4.23176         12.2633 
         1.4113         11.4923          4.1871         12.1803 
        1.41742         11.3845         4.14326          12.128 
        1.42355         11.3514         4.09997         12.0654 
         1.4297          11.294         4.05716         11.9575 
        1.43585         11.2241         4.01498         11.9015 
        1.44198         11.1193         3.97357         11.8326 
        1.44809         11.0318         3.93282         11.7686 
        1.45423         10.9734         3.89249         11.6644 
        1.46036         10.9172         3.85279         11.5956 
        1.46649         10.8492         3.81364         11.5525 
        1.47263         10.7451           3.775         11.4982 
        1.47877         10.7015         3.73692         11.4187 
        1.48491         10.6704          3.6993         11.3434 
        1.49104         10.5907         3.66228         11.2715 
        1.49718         10.4897         3.62574         11.2195 
        1.50333         10.4428         3.58963          11.153 
        1.50947         10.3847          3.5541         11.0915 
         1.5156         10.3104         3.51909         11.0326 
        1.52172         10.2361         3.48456         10.9588 
        1.52787         10.1915         3.45043         10.8861 
          1.534         10.1135         3.41679         10.8288 
        1.54013         10.0291         3.38363         10.7626 
        1.54627         9.97667         3.35085         10.6919 
        1.55241         9.91201          3.3185         10.6352 
        1.55855         9.85305         3.28663           10.59 
        1.56467          9.7884         3.25526         10.5417 
         1.5708         9.77426         3.22421          10.474 
        1.57695         9.66835         3.19352         10.4073 
        1.58308         9.65008         3.16331         10.3617 
        1.58922         9.59046         3.13346         10.3142 
        1.59535         9.50921           3.104         10.2455 
         1.6015         9.45629         3.07489          10.192 
        1.60764         9.42205         3.04616         10.1365 
        1.61376         9.32468         3.01788         10.0732 
        1.61989         9.27876         2.98994         10.0468 
        1.62604         9.25723         2.96229         9.99626 
        1.63218         9.19616           2.935         9.94032 
        1.63831         9.15158         2.90812         9.90023 
        1.64444          9.0696         2.88157         9.84733 
        1.65059         9.02173         2.85529         9.78244 
        1.65673         8.97519         2.82936         9.72999 
        1.66285         8.92372         2.80383         9.68777 
        1.66898         8.90039          2.7786         9.63705 
        1.67512         8.84491         2.75364         9.57537 
        1.68127          8.8034         2.72896         9.53579 
         1.6874         8.72851         2.70463         9.48982 
        1.69353         8.66707         2.68062         9.40815 
        1.69967         8.62967         2.65684         9.37643 
        1.70581         8.59031         2.63336          9.3428 
        1.71193         8.54715         2.61026         9.29603 
        1.71806         8.48625         2.58738         9.27384 
        1.72421         8.44462         2.56473         9.22086 
        1.73035         8.38597         2.54237         9.17375 
        1.73649         8.36329         2.52029          9.1414 
        1.74262         8.33433         2.49849         9.07251 
        1.74876         8.27779         2.47693         9.02097 
        1.75489         8.23243         2.45567         8.98831 
        1.76101         8.16976         2.43467         8.95078 
        1.76715         8.14511         2.41388         8.90552 
        1.77329         8.09182         2.39331         8.85304 
        1.77943         8.04981         2.37297         8.80443 
        1.78557         8.02212          2.3529           8.767 
        1.79171         7.97873         2.33306         8.72984 
        1.79785         7.90559         2.31344         8.69181 
        1.80399         7.88614         2.29405         8.65594 
        1.81012          7.8711         2.27491         8.61769 
        1.81625         7.81322           2.256         8.58236 
        1.82239         7.77415         2.23727         8.54819 
        1.82853         7.71362         2.21876         8.50694 
        1.83466         7.66254         2.20048         8.46933 
        1.84078          7.6346         2.18243         8.43099 
        1.84692         7.61589         2.16455         8.37912 
        1.85306          7.5515         2.14684          8.3422 
         1.8592         7.52795         2.12937          8.3168 
        1.86533         7.49871         2.11209         8.27678 
        1.87147          7.4557         2.09499         8.23083 
