# k  (h/Mpc)    Pcb(k)  (Mpc/h)^3    Pcb_linear(k) (Mpc/h)^3    Pcb_NL(k) (Mpc/h)^3   ShotnoiseSubtracted = false
     0.00783031         21529.2         21870.2         21662.7 
       0.013688         24695.9         24402.5         24208.3 
       0.019231           22655         22537.3         22360.3 
      0.0249154         18610.2         18976.3         18845.8 
      0.0312784         14801.9         14889.1         14816.9 
      0.0375637         11837.3         11722.9         11694.8 
      0.0433917         9692.05          9756.1         9724.29 
      0.0492413         8585.09         8552.57          8528.5 
      0.0555754         7630.55         7790.16         7769.68 
      0.0619321         7332.37         7239.46         7215.48 
       0.067871         6575.71         6685.71         6670.86 
      0.0738098         5924.82         6003.17         5944.19 
      0.0800417         5104.28         5187.46         5176.73 
      0.0862327         4414.82         4392.61          4469.1 
      0.0921407         3892.89         3752.96         3856.65 
      0.0982031         3386.18         3271.39         3439.16 
       0.104506         3163.35         2954.82         3157.88 
       0.110769            2947          2777.7          2925.4 
       0.116806          2815.8         2671.54            2786 
       0.122832         2695.17         2567.82         2668.87 
       0.129052         2484.54         2420.78         2506.77 
       0.135211         2308.73          2225.2         2320.95 
       0.141259         2157.43          2003.8         2139.22 
       0.147318          1980.5         1785.02         1969.81 
       0.153489         1781.24         1594.62         1767.39 
       0.159709          1665.4         1451.52         1650.49 
       0.165845         1592.46         1357.81          1584.5 
       0.171974         1517.56         1298.99         1503.97 
       0.178125         1450.92         1256.85         1465.98 
       0.184229         1387.45         1214.52          1398.7 
        0.19034         1305.35         1160.27         1330.14 
       0.196428         1264.48         1091.72         1255.82 
       0.202534         1205.69         1013.42         1191.71 
       0.208729         1132.13         933.476         1110.34 
       0.214876         1075.18         862.524         1071.22 
       0.220989         1028.57         805.468         1027.22 
       0.227147          985.89         762.391         988.409 
        0.23329         944.849          730.86         960.652 
       0.239377          925.07         706.005         922.719 
       0.245482         864.164         682.383         882.674 
       0.251667         856.755         656.006         859.054 
       0.257832         818.672         625.914         821.118 
       0.263955         787.919         593.196          788.02 
       0.270079         754.622         559.934         758.901 
        0.27624          742.15         528.583         728.456 
       0.282372         711.799         501.266         708.668 
        0.28843         698.475         478.752         689.969 
       0.294538         661.003         460.024         668.196 
       0.300721         655.495         443.835         648.612 
        0.30691         627.816         428.876         637.177 
       0.313033         613.823         414.048         613.844 
       0.319153         597.098          398.57         595.127 
       0.325316         579.122         382.324         579.537 
        0.33145         561.792         366.031         556.774 
       0.337538         549.738         350.433         542.865 
       0.343633         534.775         335.968         534.941 
       0.349808         513.692         322.849         523.654 
       0.355968         508.957         311.227         511.797 
       0.362074         502.075         300.904          500.36 
       0.368217         486.167         291.266         485.454 
       0.374374         464.637         281.961         473.919 
       0.380519         463.199          272.77         461.651 
       0.386598          449.03         263.658         456.486 
       0.392688         445.467         254.616         442.546 
        0.39888          432.11          245.66         433.524 
       0.405048         423.633         237.154         424.905 
       0.411186         417.023         229.252         414.525 
       0.417313         408.211         221.932         406.502 
       0.423458          398.04         215.108         399.431 
       0.429607         393.298         208.708         392.034 
       0.435692         382.446         202.662         381.048 
       0.441815         377.815         196.754         377.335 
       0.447964         369.143         190.963         371.151 
       0.454126         362.943         185.292         360.288 
       0.460267          354.47         179.784         357.801 
       0.466387         349.488          174.49         351.379 
        0.47254         344.461          169.41         344.829 
       0.478662         341.681          164.61         337.809 
       0.484765         328.982         160.062         332.073 
       0.490885         325.642         155.722         326.029 
       0.497035         318.985         151.552          321.66 
       0.503198         315.103          147.53         317.085 
       0.509342         312.946          143.64         311.664 
       0.515458         308.581         139.877         307.781 
       0.521598         299.537         136.212         302.941 
       0.527764         296.147         132.654         299.937 
       0.533884         292.622         129.247         295.509 
           0.54          288.42         125.968         290.015 
       0.546137         286.407         122.804         286.371 
       0.552299         280.946         119.752         281.845 
       0.558452         278.992         116.824         278.289 
       0.564573          275.14         114.014         275.803 
       0.570708         269.441         111.288         272.391 
       0.576825         264.281         108.652         266.906 
       0.582926         262.137         106.099         264.465 
       0.589034         258.905         103.622          260.98 
       0.595184         257.032         101.207         256.463 
       0.601379         251.596          98.855         253.402 
       0.607522         248.939         96.5999         249.483 
       0.613639         246.604          94.427         248.973 
       0.619772         242.311         92.3176          246.92 
       0.625918         240.873         90.2699         242.071 
       0.632068         236.253          88.284         239.486 
       0.638161         234.915         86.3761         237.776 
         0.6443         231.328         84.5113         234.683 
       0.650464         229.005         82.6948         230.021 
       0.656582         225.592         80.9446         228.493 
       0.662703         225.484         79.2442         226.293 
       0.668861         222.112         77.5828         224.763 
       0.675024         218.832         75.9678         222.418 
       0.681124         216.635         74.4152         218.684 
       0.687237         214.518         72.9032         216.399 
       0.693381          211.01         71.4268         214.043 
       0.699536         208.742         69.9892         212.422 
       0.705665         206.741         68.5979         209.233 
       0.711789         205.557         67.2461         208.283 
       0.717957         204.023          65.922          206.94 
        0.72409         201.988         64.6411         204.206 
       0.730186         199.022         63.4022         201.893 
       0.736317         197.081         62.1893         200.186 
       0.742472         195.042         61.0038         198.051 
       0.748622         193.647         59.8504         196.021 
        0.75476         191.235         58.7294         195.777 
       0.760888         189.226          57.639         192.661 
       0.767043         188.534         56.5722         191.039 
       0.773185         186.902         55.5346         189.592 
       0.779291         183.571         54.5291         187.344 
       0.785407         182.947         53.5472         185.759 
       0.791564         181.098         52.5835         184.041 
       0.797719         178.413          51.644         182.592 
       0.803834          176.88         50.7336          181.48 
       0.809972         176.259          49.842         179.796 
       0.816124         174.911           48.97         178.018 
       0.822261         173.759         48.1214         177.064 
       0.828378         171.732         47.2955         175.192 
       0.834502         170.334         46.4883         173.672 
       0.840667         168.648         45.6949         172.004 
       0.846816         167.346         44.9223         170.924 
       0.852925         166.049         44.1725         169.688 
       0.859047         164.896         43.4383         168.343 
       0.865192         162.457         42.7185         166.475 
       0.871341         161.092         42.0146         165.392 
       0.877463         160.586         41.3299         164.469 
       0.883569         159.459         40.6621         163.949 
       0.889708         157.299         40.0058         161.766 
       0.895864         156.488         39.3624         160.825 
       0.902008         155.016         38.7344         159.222 
       0.908149         154.119         38.1206          158.07 
       0.914301         152.147         37.5192         156.735 
       0.920448         151.324         36.9314         155.803 
       0.926574         149.762         36.3582         154.488 
       0.932687         149.754         35.7985         153.499 
       0.938823         147.547         35.2486         152.749 
       0.944975         147.007         34.7091         151.352 
       0.951105         145.769         34.1828         150.261 
       0.957225         145.093         33.6684         149.122 
       0.963368         142.611         33.1629          148.14 
       0.969511         142.096         32.6678         146.983 
       0.975621         140.786         32.1855         146.252 
       0.981748         140.416         31.7117         145.367 
       0.987916         139.131         31.2446         144.211 
        0.99406         138.145         30.7886          143.13 
        1.00019         137.326         30.3427         142.029 
        1.00632         136.097         29.9061         141.015 
        1.01246         135.092         29.4774         139.734 
        1.01859         134.791         29.0579         139.157 
        1.02471         132.869         28.6471         138.382 
        1.03085         131.956         28.2428         137.607 
        1.03698         131.119         27.8472         137.052 
        1.04314         129.808         27.4576         135.818 
        1.04929         129.633         27.0763         134.817 
        1.05541         128.565         26.7038         134.189 
        1.06154         127.524         26.3375         133.469 
        1.06769         127.145         25.9774         132.552 
        1.07382         125.807         25.6253         131.815 
        1.07993          124.89         25.2805         130.982 
        1.08607         124.425         24.9406         129.925 
        1.09222         123.449         24.6067          129.28 
        1.09836         122.464         24.2793         128.405 
        1.10449         121.318         23.9582         127.986 
        1.11063         120.547         23.6426         126.978 
        1.11677         119.703         23.3328         126.066 
         1.1229         118.757         23.0292         125.335 
        1.12903         118.426         22.7306         124.588 
        1.13518         117.615         22.4372         123.984 
        1.14131         116.368         22.1491         123.008 
        1.14745         116.324         21.8662          122.23 
        1.15359         114.975         21.5882         121.757 
        1.15973          114.32          21.315         121.049 
        1.16584           113.6         21.0477         120.336 
        1.17197          113.14         20.7846         119.774 
        1.17811         111.824         20.5252         118.893 
        1.18424         111.607          20.271         118.091 
        1.19038         111.258         20.0204         117.873 
        1.19652         110.154         19.7742         116.859 
        1.20267         109.456         19.5321          116.39 
        1.20881         108.843         19.2941         115.557 
        1.21495         107.753         19.0605         115.038 
        1.22108         107.389         18.8307         114.294 
         1.2272         106.382         18.6053         113.704 
        1.23334         106.058         18.3831         113.281 
        1.23949         105.189          18.164         112.553 
        1.24562         104.598         17.9491         111.587 
        1.25174         104.174          17.738         111.009 
        1.25789          103.46         17.5297         110.353 
        1.26402         102.126          17.325         110.071 
        1.27014         101.725         17.1242         109.454 
        1.27628         101.332         16.9259         109.174 
        1.28244         101.008         16.7304         108.375 
        1.28858         100.178         16.5382         107.794 
        1.29471         99.3568         16.3495         107.182 
        1.30084          99.123         16.1639          106.41 
        1.30697         97.9144         15.9809         105.864 
        1.31312         97.4777         15.8005         105.266 
        1.31925         96.8252         15.6235         104.937 
        1.32537         96.5061         15.4493          104.45 
        1.33151          95.856         15.2772         103.827 
        1.33765         95.0956         15.1078         103.343 
        1.34378          94.618         14.9413         102.843 
        1.34992         94.2242         14.7772         102.202 
        1.35606         93.8092         14.6153         101.615 
         1.3622          92.824          14.456          101.22 
        1.36833         92.3243         14.2995         100.575 
        1.37445           91.99         14.1454          100.09 
        1.38059         91.1694         13.9931         99.3903 
        1.38675         90.6152         13.8427         98.9703 
        1.39288         90.2811         13.6951         98.4035 
        1.39901          89.808         13.5497         98.0453 
        1.40515         88.9773         13.4061         97.6356 
         1.4113         88.7848         13.2646         97.1807 
        1.41742         87.9637         13.1257         96.6958 
        1.42355         87.6561         12.9886          96.023 
         1.4297         86.9995          12.853         95.7125 
        1.43585         86.4242         12.7194         95.1923 
        1.44198         86.1418         12.5882         94.9396 
        1.44809         85.7537         12.4591         94.3369 
        1.45423         85.2782         12.3313          93.673 
        1.46036         84.5125         12.2055         93.2699 
        1.46649         84.0705         12.0815         92.9812 
        1.47263         83.3849         11.9591         92.5714 
        1.47877         82.8557         11.8385         91.9327 
        1.48491         82.4494         11.7193         91.4618 
        1.49104         82.1467          11.602         91.2377 
        1.49718         81.6185         11.4862          90.612 
        1.50333         81.0994         11.3719         90.1357 
        1.50947         80.5667         11.2593         89.8176 
         1.5156         80.2853         11.1484         89.4072 
        1.52172         79.9094          11.039         88.9138 
        1.52787         79.2006         10.9309         88.5088 
          1.534         78.8511         10.8243         88.1474 
        1.54013          78.463         10.7192         87.7827 
        1.54627         78.0021         10.6154         87.3705 
        1.55241         77.6462         10.5129          86.889 
        1.55855         77.0913         10.4119         86.4184 
        1.56467         76.6278         10.3126         86.1243 
         1.5708         76.0199         10.2142         85.6905 
        1.57695         75.9668          10.117         85.2565 
        1.58308         75.5724         10.0213         84.9692 
        1.58922         75.0627          9.9267         84.5698 
        1.59535         74.5444          9.8334         84.2145 
         1.6015         74.4013         9.74117         83.7622 
        1.60764         73.7693         9.65016         83.3419 
        1.61376         73.3884         9.56057         83.0975 
        1.61989         72.9772         9.47204         82.7023 
        1.62604         72.5274         9.38444         82.0776 
        1.63218         72.3369           9.298         81.6782 
        1.63831         71.7564         9.21285         81.5551 
        1.64444         71.2952         9.12874         81.1795 
        1.65059         70.7736         9.04547         80.7583 
        1.65673         70.5121         8.96334         80.3452 
        1.66285         70.2646         8.88245         80.0083 
        1.66898         69.8223         8.80253         79.7156 
        1.67512         69.1458         8.72345         79.3062 
        1.68127         69.0017         8.64526          79.025 
         1.6874         68.5554          8.5682         78.7283 
        1.69353         68.2055         8.49213         78.2027 
        1.69967         68.0104          8.4168         77.9065 
        1.70581          67.401         8.34242         77.6235 
        1.71193         66.9637         8.26921         77.2451 
        1.71806         66.7967         8.19673         76.9146 
        1.72421         66.3861         8.12498         76.6143 
        1.73035          66.044         8.05416          76.291 
        1.73649         65.7517         7.98421         75.9179 
        1.74262         65.2784         7.91514         75.5186 
        1.74876         64.9544         7.84685         75.2031 
        1.75489         64.5572          7.7795         74.9275 
        1.76101         64.1915         7.71296         74.6274 
        1.76715         63.8294         7.64711         74.3183 
        1.77329         63.5152         7.58194         73.9512 
        1.77943         63.1303         7.51751         73.5979 
        1.78557         62.9677         7.45393         73.3213 
        1.79171         62.3897         7.39106         73.0006 
        1.79785         62.0257         7.32891         72.6478 
        1.80399         61.7701         7.26749         72.3381 
        1.81012         61.4598         7.20685         72.0597 
        1.81625         61.1456         7.14693         71.7516 
        1.82239         60.7227          7.0876         71.4183 
        1.82853         60.4953         7.02897         71.1109 
        1.83466         60.2261         6.97107         70.7844 
        1.84078         59.8272         6.91387         70.4886 
        1.84692         59.4942         6.85722         70.2974 
        1.85306         59.1887         6.80114         69.9336 
         1.8592          58.976         6.74577         69.5358 
        1.86533         58.5407         6.69105         69.3526 
        1.87147          58.165         6.63687         69.0983 
