#  k  (h/Mpc)          P(k)  (Mpc/h)^3     P_linear(k)   P_NL(k) (Mpc/h)^3
     0.00783031         9139.58         9260.37         9260.37 
       0.013688         11784.2         11711.4         11711.4 
       0.019231         12085.5           12072           12072 
      0.0249154         11179.9         11369.9         11369.9 
      0.0312784         9986.13         10073.3         10073.3 
      0.0375637         8783.61         8789.57         8789.57 
      0.0433917         7699.34          7819.4          7819.4 
      0.0492413         7043.52          7096.3          7096.3 
      0.0555754         6359.47         6529.49         6529.49 
      0.0619321         6069.57         6072.94         6072.94 
       0.067871         5522.96         5656.81         5656.81 
      0.0738098         5080.05         5205.45         5205.45 
      0.0800417         4542.94         4696.71         4696.71 
      0.0862327          4105.3         4194.62         4194.62 
      0.0921407         3736.42         3762.84         3762.84 
      0.0982031         3359.09         3398.83         3398.83 
       0.104506         3156.34         3113.64         3113.64 
       0.110769          2940.2         2909.29         2909.29 
       0.116806         2768.02         2759.06         2759.06 
       0.122832         2645.88         2625.32         2625.32 
       0.129052         2458.12         2480.83         2480.83 
       0.135211         2313.47         2321.13         2321.13 
       0.141259          2189.1         2152.07         2152.07 
       0.147318         2046.65            1983            1983 
       0.153489          1875.6         1825.48         1825.48 
       0.159709         1771.57         1692.05         1692.05 
       0.165845         1702.61         1588.17         1588.17 
       0.171974         1608.68         1507.98         1507.98 
       0.178125         1537.36         1442.86         1442.86 
       0.184229         1479.52         1384.19         1384.19 
        0.19034         1386.89          1324.1          1324.1 
       0.196428          1356.8         1259.45         1259.45 
       0.202534         1305.42         1190.43         1190.43 
       0.208729         1237.21         1119.73         1119.73 
       0.214876          1173.1         1053.41         1053.41 
       0.220989         1135.58         994.775         994.775 
       0.227147         1079.19         944.635         944.635 
        0.23329          1038.8         902.935         902.935 
       0.239377         1019.61         867.659         867.659 
       0.245482         955.109         835.544         835.544 
       0.251667         946.805         803.867         803.867 
       0.257832         911.659         771.626         771.626 
       0.263955         880.531         738.681         738.681 
       0.270079         849.321         705.566         705.566 
        0.27624         838.235         673.315         673.315 
       0.282372         802.612         643.463         643.463 
        0.28843         786.841         616.848         616.848 
       0.294538         749.091         592.986         592.986 
       0.300721         746.015         571.423         571.423 
        0.30691         712.675          551.63          551.63 
       0.313033         698.864         533.024         533.024 
       0.319153         680.025         514.788         514.788 
       0.325316          659.55         496.541         496.541 
        0.33145         641.489         478.542         478.542 
       0.337538         632.916         461.127         461.127 
       0.343633         613.587         444.468         444.468 
       0.349808         593.545         428.646         428.646 
       0.355968         589.067         414.037         414.037 
       0.362074         578.597         400.634         400.634 
       0.368217         562.747         388.061         388.061 
       0.374374          539.98         376.118         376.118 
       0.380519         536.601         364.641         364.641 
       0.386598         523.623         353.592         353.592 
       0.392688         520.635         342.769         342.769 
        0.39888         505.727         332.065         332.065 
       0.405048         495.795         321.777         321.777 
       0.411186         486.981         311.982         311.982 
       0.417313         478.243         302.707         302.707 
       0.423458         469.709         293.903         293.903 
       0.429607         460.622         285.548         285.548 
       0.435692         449.869         277.675         277.675 
       0.441815         446.684          270.07          270.07 
       0.447964         437.496         262.689         262.689 
       0.454126         425.146         255.521         255.521 
       0.460267         419.412         248.597         248.597 
       0.466387          414.84         241.914         241.914 
        0.47254         406.019          235.43          235.43 
       0.478662         405.005         229.232         229.232 
       0.484765         392.738         223.307         223.307 
       0.490885          388.53         217.607         217.607 
       0.497035         381.902         212.106         212.106 
       0.503198         375.096         206.803         206.803 
       0.509342         372.103         201.702         201.702 
       0.515458         368.195         196.788         196.788 
       0.521598         360.864         192.005         192.005 
       0.527764         354.292         187.351         187.351 
       0.533884         351.718         182.881         182.881 
           0.54         346.949         178.562         178.562 
       0.546137         345.361         174.373         174.373 
       0.552299         338.348          170.31          170.31 
       0.558452         335.825         166.391         166.391 
       0.564573         330.546         162.625         162.625 
       0.570708         324.855         158.972         158.972 
       0.576825         319.615         155.444         155.444 
       0.582926         317.089         152.031         152.031 
       0.589034         313.669         148.713         148.713 
       0.595184         310.559          145.47          145.47 
       0.601379         307.361         142.304         142.304 
       0.607522         302.048         139.258         139.258 
       0.613639         300.488         136.318         136.318 
       0.619772         293.331         133.458         133.458 
       0.625918         292.187         130.677         130.677 
       0.632068         287.953         127.975         127.975 
       0.638161         286.749         125.375         125.375 
         0.6443         281.777          122.83          122.83 
       0.650464         279.272         120.348         120.348 
       0.656582         277.805         117.952         117.952 
       0.662703          275.38         115.622         115.622 
       0.668861           270.6         113.343         113.343 
       0.675024         267.636         111.124         111.124 
       0.681124         266.562         108.987         108.987 
       0.687237         263.066         106.903         106.903 
       0.693381         259.271         104.865         104.865 
       0.699536         257.394         102.877         102.877 
       0.705665          255.69         100.951         100.951 
       0.711789         252.474         99.0759         99.0759 
       0.717957         250.869         97.2368         97.2368 
        0.72409         248.125         95.4553         95.4553 
       0.730186         245.156         93.7299         93.7299 
       0.736317         242.936         92.0385         92.0385 
       0.742472         241.724         90.3831         90.3831 
       0.748622         239.614         88.7705         88.7705 
        0.75476         237.519         87.2013         87.2013 
       0.760888         234.354         85.6729         85.6729 
       0.767043         234.017         84.1756         84.1756 
       0.773185         231.225         82.7176         82.7176 
       0.779291         227.152         81.3029         81.3029 
       0.785407         226.559         79.9198         79.9198 
       0.791564         224.329         78.5605         78.5605 
       0.797719         221.867         77.2339         77.2339 
       0.803834         220.658         75.9468         75.9468 
       0.809972         218.634         74.6847         74.6847 
       0.816124         218.712         73.4491         73.4491 
       0.822261         215.332          72.245          72.245 
       0.828378         213.619          71.072          71.072 
       0.834502         213.449         69.9243         69.9243 
       0.840667         209.898         68.7949         68.7949 
       0.846816         208.583         67.6939         67.6939 
       0.852925         207.482         66.6243         66.6243 
       0.859047          205.47         65.5758         65.5758 
       0.865192         203.803         64.5467         64.5467 
       0.871341         201.849         63.5394         63.5394 
       0.877463         200.492         62.5583         62.5583 
       0.883569         199.269         61.6008         61.6008 
       0.889708         197.494         60.6586         60.6586 
       0.895864         195.163          59.734          59.734 
       0.902008         194.551         58.8308         58.8308 
       0.908149         193.577         57.9471         57.9471 
       0.914301         191.233         57.0803         57.0803 
       0.920448         189.785         56.2323         56.2323 
       0.926574         188.854         55.4047         55.4047 
       0.932687         188.233         54.5957         54.5957 
       0.938823          185.95         53.8002         53.8002 
       0.944975         184.418         53.0189         53.0189 
       0.951105          183.58         52.2561         52.2561 
       0.957225         181.528         51.5098         51.5098 
       0.963368         179.652         50.7757         50.7757 
       0.969511         179.061         50.0561         50.0561 
       0.975621         177.807         49.3544         49.3544 
       0.981748         177.473         48.6646         48.6646 
       0.987916         175.184         47.9837         47.9837 
        0.99406         174.053         47.3186         47.3186 
        1.00019         173.618         46.6676         46.6676 
        1.00632         171.975         46.0295         46.0295 
        1.01246         170.877         45.4025         45.4025 
        1.01859         169.664         44.7884         44.7884 
        1.02471         168.554         44.1865         44.1865 
        1.03085          166.71         43.5937         43.5937 
        1.03698         165.788         43.0132         43.0132 
        1.04314         164.582         42.4409         42.4409 
        1.04929         163.385         41.8804         41.8804 
        1.05541         162.744         41.3325         41.3325 
        1.06154         161.537         40.7931         40.7931 
        1.06769          161.33         40.2626         40.2626 
        1.07382         159.991         39.7434         39.7434 
        1.07993         158.576         39.2345         39.2345 
        1.08607         157.603         38.7326         38.7326 
        1.09222         156.817         38.2391         38.2391 
        1.09836         155.377         37.7548         37.7548 
        1.10449         154.118         37.2795         37.2795 
        1.11063         153.053          36.812          36.812 
        1.11677         152.703         36.3528         36.3528 
         1.1229         151.071         35.9023         35.9023 
        1.12903         150.289         35.4591         35.4591 
        1.13518         150.005         35.0231         35.0231 
        1.14131         148.428         34.5947         34.5947 
        1.14745         147.819         34.1738         34.1738 
        1.15359         146.723           33.76           33.76 
        1.15973         146.284         33.3528         33.3528 
        1.16584         144.696         32.9543         32.9543 
        1.17197         144.107         32.5618         32.5618 
        1.17811         143.218         32.1746         32.1746 
        1.18424         142.412         31.7948         31.7948 
        1.19038         141.823         31.4202         31.4202 
        1.19652         140.799         31.0517         31.0517 
        1.20267         139.937         30.6893         30.6893 
        1.20881         138.791         30.3327         30.3327 
        1.21495         138.147         29.9825         29.9825 
        1.22108         137.443         29.6379         29.6379 
         1.2272         136.253         29.2996         29.2996 
        1.23334         135.591         28.9658         28.9658 
        1.23949         134.203         28.6365         28.6365 
        1.24562         133.845         28.3133         28.3133 
        1.25174         132.397         27.9956         27.9956 
        1.25789         131.963         27.6818         27.6818 
        1.26402         131.352         27.3735         27.3735 
        1.27014         130.378         27.0706         27.0706 
        1.27628         129.703         26.7715         26.7715 
        1.28244         129.029         26.4763         26.4763 
        1.28858         128.495          26.186          26.186 
        1.29471         127.071         25.9008         25.9008 
        1.30084         126.536         25.6201         25.6201 
        1.30697         125.814         25.3432         25.3432 
        1.31312         125.469         25.0699         25.0699 
        1.31925         124.265         24.8017         24.8017 
        1.32537         123.762         24.5376         24.5376 
        1.33151         122.525         24.2765         24.2765 
        1.33765         122.149         24.0193         24.0193 
        1.34378         121.275         23.7665         23.7665 
        1.34992         121.094         23.5171         23.5171 
        1.35606         120.152         23.2708         23.2708 
         1.3622          119.23         23.0285         23.0285 
        1.36833         118.628         22.7903         22.7903 
        1.37445         117.788         22.5555         22.5555 
        1.38059         117.437         22.3234         22.3234 
        1.38675         116.454         22.0941         22.0941 
        1.39288         115.996         21.8689         21.8689 
        1.39901         115.505         21.6469         21.6469 
        1.40515         114.683         21.4276         21.4276 
         1.4113         113.578         21.2114         21.2114 
        1.41742          113.42         20.9991         20.9991 
        1.42355         112.554         20.7893         20.7893 
         1.4297          111.87         20.5817         20.5817 
        1.43585         110.927         20.3771         20.3771 
        1.44198         110.757         20.1761         20.1761 
        1.44809         109.872         19.9782         19.9782 
        1.45423         109.067         19.7822         19.7822 
        1.46036         108.875         19.5893         19.5893 
        1.46649          108.17         19.3989         19.3989 
        1.47263           107.6         19.2108         19.2108 
        1.47877         107.125         19.0254         19.0254 
        1.48491         106.102         18.8422         18.8422 
        1.49104         105.739         18.6617         18.6617 
        1.49718         104.903         18.4836         18.4836 
        1.50333         104.423         18.3074         18.3074 
        1.50947         103.805          18.134          18.134 
         1.5156         103.335         17.9631         17.9631 
        1.52172         102.535         17.7944         17.7944 
        1.52787         102.259         17.6275         17.6275 
          1.534         101.596          17.463          17.463 
        1.54013         100.845         17.3008         17.3008 
        1.54627         100.376         17.1403         17.1403 
        1.55241         99.7849         16.9819         16.9819 
        1.55855         99.4074         16.8257         16.8257 
        1.56467         98.7559         16.6719         16.6719 
         1.5708         98.1371         16.5197         16.5197 
        1.57695         97.8873         16.3691         16.3691 
        1.58308         96.8593         16.2207         16.2207 
        1.58922         96.7253         16.0741         16.0741 
        1.59535         96.1613         15.9294         15.9294 
         1.6015         95.5828         15.7863         15.7863 
        1.60764         94.9889          15.645          15.645 
        1.61376         94.6753         15.5058         15.5058 
        1.61989         93.9626         15.3683         15.3683 
        1.62604         93.5205         15.2321         15.2321 
        1.63218         93.1099         15.0977         15.0977 
        1.63831         92.3377         14.9652         14.9652 
        1.64444         91.9551         14.8342         14.8342 
        1.65059         91.3667         14.7046         14.7046 
        1.65673         90.6535         14.5766         14.5766 
        1.66285           90.49         14.4505         14.4505 
        1.66898         89.7891         14.3259         14.3259 
        1.67512         89.3151         14.2025         14.2025 
        1.68127         88.8089         14.0805         14.0805 
         1.6874         88.3124         13.9602         13.9602 
        1.69353         87.8261         13.8413         13.8413 
        1.69967         87.3433         13.7236         13.7236 
        1.70581         86.9736         13.6073         13.6073 
        1.71193         86.6676         13.4928         13.4928 
        1.71806         85.8395         13.3794         13.3794 
        1.72421         85.5361         13.2671         13.2671 
        1.73035         84.9993         13.1562         13.1562 
        1.73649         84.5388         13.0466         13.0466 
        1.74262         84.0892         12.9384         12.9384 
        1.74876         83.7502         12.8313         12.8313 
        1.75489          83.058         12.7256         12.7256 
        1.76101         82.8309         12.6212         12.6212 
        1.76715         82.2429         12.5178         12.5178 
        1.77329         81.8931         12.4155         12.4155 
        1.77943         81.3218         12.3143         12.3143 
        1.78557          81.053         12.2143         12.2143 
        1.79171         80.5276         12.1155         12.1155 
        1.79785         80.1142         12.0178         12.0178 
        1.80399         79.7152         11.9211         11.9211 
        1.81012         79.3887         11.8257         11.8257 
        1.81625         78.7255         11.7313         11.7313 
        1.82239         78.4361         11.6378         11.6378 
        1.82853         78.1252         11.5454         11.5454 
        1.83466         77.5761         11.4542         11.4542 
        1.84078         77.3075          11.364          11.364 
        1.84692         76.6328         11.2746         11.2746 
        1.85306         76.2667         11.1861         11.1861 
         1.8592         75.7412         11.0987         11.0987 
        1.86533         75.4462         11.0122         11.0122 
        1.87147         74.8679         10.9266         10.9266 
        1.87761         74.6042         10.8419         10.8419 
