# k  (h/Mpc)    Pcb(k)  (Mpc/h)^3    Pcb_linear(k) (Mpc/h)^3    Pcb_NL(k) (Mpc/h)^3   ShotnoiseSubtracted = false
     0.00783031         13035.4         13081.3         13064.4 
       0.013688         17023.2         17481.2           17372 
       0.019231         18563.8         18880.2         18692.1 
      0.0249154         18481.7         18542.9         18307.2 
      0.0312784         16759.8         17057.7         16769.2 
      0.0375637         14844.4         15257.3         14953.7 
      0.0433917         13502.7         13732.7         13394.6 
      0.0492413         12168.2         12512.9         12169.3 
      0.0555754         11275.6         11541.8         11201.8 
      0.0619321         10216.9         10818.1         10468.2 
       0.067871         9788.29         10232.8          9888.6 
      0.0738098         9273.82         9628.72         9195.61 
      0.0800417         8585.48            8919         8498.99 
      0.0862327          7809.6         8146.75         7822.24 
      0.0921407         7126.68         7400.35          7096.7 
      0.0982031         6546.48         6691.43         6497.99 
       0.104506          5881.1         6070.92         5974.75 
       0.110769         5454.43         5595.05         5469.05 
       0.116806          5229.3         5258.33         5135.35 
       0.122832         4928.91          5008.3         4912.55 
       0.129052         4695.11         4795.18         4707.78 
       0.135211         4578.18         4586.73         4494.17 
       0.141259          4278.9          4357.9         4312.48 
       0.147318         3989.87            4098         4088.72 
       0.153489         3783.27         3813.18         3767.45 
       0.159709         3638.84         3528.37         3554.23 
       0.165845            3327         3272.63          3404.4 
       0.171974         3236.76         3057.79          3214.9 
       0.178125         3139.73         2887.63         3121.57 
       0.184229         2901.59         2758.21         2977.38 
        0.19034          2870.1         2655.48         2881.05 
       0.196428         2800.75         2564.81         2769.07 
       0.202534         2651.42         2472.29         2691.78 
       0.208729         2600.29         2368.55         2565.19 
       0.214876         2499.65         2254.33         2501.66 
       0.220989         2384.55         2134.09         2422.86 
       0.227147         2323.67         2014.03         2337.44 
        0.23329         2235.82         1903.19         2268.89 
       0.239377         2224.03         1807.58         2186.84 
       0.245482         2128.14         1727.74         2099.01 
       0.251667         2052.13         1661.47         2058.08 
       0.257832         2023.94         1605.79         2000.51 
       0.263955         1942.41         1555.51          1950.4 
       0.270079         1903.85         1505.47         1899.39 
        0.27624         1825.06         1452.46         1845.16 
       0.282372         1810.53         1396.27         1811.46 
        0.28843          1777.5         1338.65         1770.09 
       0.294538         1703.73         1280.94         1722.67 
       0.300721         1676.54          1225.6         1674.29 
        0.30691         1636.26         1175.45         1653.23 
       0.313033         1580.58         1131.82         1607.24 
       0.319153         1566.86         1093.91         1565.38 
       0.325316         1548.71         1060.06         1547.12 
        0.33145         1519.62            1029         1496.17 
       0.337538         1475.22         999.037         1475.98 
       0.343633         1443.77         968.788         1459.93 
       0.349808         1422.03           937.4         1435.84 
       0.355968         1392.61         905.595         1413.74 
       0.362074         1358.35         874.347         1386.06 
       0.368217         1354.56          844.04         1353.63 
       0.374374         1333.55         815.634         1332.05 
       0.380519         1292.44           789.6         1309.14 
       0.386598         1289.71         766.158         1291.33 
       0.392688          1257.3         744.639         1266.27 
        0.39888         1235.38         724.151         1251.46 
       0.405048         1213.62         704.587         1234.45 
       0.411186         1206.56         685.452         1211.24 
       0.417313         1206.83         666.397         1196.89 
       0.423458         1170.11         647.398         1176.46 
       0.429607          1140.6         628.625         1156.33 
       0.435692         1133.32         610.562         1136.16 
       0.441815         1112.67         593.196         1134.54 
       0.447964         1103.08         576.737         1118.78 
       0.454126         1088.13         561.244         1089.96 
       0.460267         1076.71         546.767         1089.76 
       0.466387         1061.25         533.115         1069.24 
        0.47254         1041.37          519.93         1057.28 
       0.478662         1031.45         507.181         1045.15 
       0.484765         1022.52         494.746         1033.42 
       0.490885         1010.39         482.482         1015.38 
       0.497035         994.151         470.369         1007.44 
       0.503198         992.951         458.545         996.637 
       0.509342         975.438         447.167         979.943 
       0.515458         956.244         436.293         975.361 
       0.521598         956.643         425.843         966.869 
       0.527764         934.005         415.821         957.008 
       0.533884         925.513         406.315         946.784 
           0.54         918.587         397.178         937.467 
       0.546137         909.109         388.289         926.966 
       0.552299         901.499         379.586         914.496 
       0.558452         893.863         371.104         907.954 
       0.564573         887.212         362.875         899.317 
       0.570708         878.474         354.839         890.033 
       0.576825         861.274         347.046         878.604 
       0.582926         859.292         339.507         872.299 
       0.589034         850.464          332.21         859.732 
       0.595184         840.162         325.125         853.752 
       0.601379         827.161         318.249         847.203 
       0.607522         817.754         311.658         835.736 
       0.613639         816.632         305.289         832.577 
       0.619772         808.251         299.074         830.427 
       0.625918         799.341         293.001         820.568 
       0.632068         793.217         287.077         815.285 
       0.638161           782.2         281.362          801.25 
         0.6443         776.251         275.758         797.888 
       0.650464         770.869          270.29         787.848 
       0.656582         765.079         265.015         782.412 
       0.662703         754.163         259.885         777.303 
       0.668861         747.648         254.867         773.809 
       0.675024         742.784         249.984         769.834 
       0.681124         731.157         245.285         756.815 
       0.687237         731.437         240.703         751.662 
       0.693381         718.408         236.221         744.687 
       0.699536         719.487         231.848         739.715 
       0.705665         710.336         227.604         733.019 
       0.711789         707.752          223.47         726.791 
       0.717957         699.352         219.408          725.18 
        0.72409         693.347         215.468           719.2 
       0.730186         690.317         211.648         712.269 
       0.736317         682.408         207.901         705.925 
       0.742472         673.777         204.232         701.064 
       0.748622         671.349         200.656         695.248 
        0.75476         663.885         197.177         695.491 
       0.760888         660.371         193.788         687.772 
       0.767043         657.784         190.468         679.586 
       0.773185          653.17         187.234         675.773 
       0.779291         645.368         184.096         669.842 
       0.785407         640.534         181.026         665.977 
       0.791564         636.171         178.008          664.59 
       0.797719          626.97         175.061         657.667 
       0.803834         627.648           172.2          653.94 
       0.809972         619.654         169.393         650.932 
       0.816124         615.079         166.644         642.346 
       0.822261         611.396         163.963          638.76 
       0.828378         608.657          161.35         634.847 
       0.834502          599.27         158.793         632.968 
       0.840667         597.979         156.275          628.35 
       0.846816         593.024         153.819         623.782 
       0.852925         590.171         151.433         619.686 
       0.859047         584.801         149.093         613.837 
       0.865192         581.231         146.795         610.387 
       0.871341         574.582         144.545          607.39 
       0.877463         573.421         142.353          603.71 
       0.883569         567.056         140.213         599.064 
       0.889708         561.218         138.106           594.1 
       0.895864         556.065         136.038          590.95 
       0.902008         555.183         134.017         587.602 
       0.908149         550.058         132.039         582.311 
       0.914301         547.881         130.098         578.301 
       0.920448         540.974         128.198         575.864 
       0.926574          538.75         126.344         571.617 
       0.932687         536.769         124.531         568.182 
       0.938823         530.132         122.747         566.176 
       0.944975         526.844         120.994         562.194 
       0.951105         523.351         119.283         556.946 
       0.957225         516.083         117.608         555.827 
       0.963368          517.17         115.959         551.887 
       0.969511          509.47         114.343             548 
       0.975621         508.082         112.767         544.557 
       0.981748         504.575         111.216         540.628 
       0.987916         501.631         109.685         539.651 
        0.99406         496.802          108.19         535.407 
        1.00019         492.202         106.725         529.871 
        1.00632         489.996         105.289         527.201 
        1.01246         486.531         103.878         524.307 
        1.01859         482.024         102.495         520.248 
        1.02471         480.226         101.139         518.554 
        1.03085         476.337         99.8039         517.199 
        1.03698         474.473         98.4957         514.276 
        1.04314          469.47         97.2056         510.791 
        1.04929         468.135         95.9419         506.409 
        1.05541         461.524          94.706         502.867 
        1.06154         460.443         93.4891         499.832 
        1.06769         456.145          92.292         496.527 
        1.07382         452.374         91.1199          494.05 
        1.07993         451.804         89.9712         491.463 
        1.08607          447.96         88.8377         488.004 
        1.09222         444.144         87.7228         484.762 
        1.09836         440.873         86.6285         483.708 
        1.10449         437.084         85.5545         480.866 
        1.11063          435.17         84.4976         476.456 
        1.11677         430.654         83.4593          475.05 
         1.1229         428.941         82.4403         471.952 
        1.12903         425.108         81.4377         469.201 
        1.13518         423.275         80.4511         466.337 
        1.14131         420.993         79.4816         463.728 
        1.14745         416.044         78.5287         460.972 
        1.15359         413.346         77.5915         459.133 
        1.15973         411.265         76.6694         456.251 
        1.16584         409.336         75.7665         453.857 
        1.17197         406.225          74.877         451.202 
        1.17811         401.498         73.9993         448.661 
        1.18424         400.077         73.1383         446.789 
        1.19038         397.824         72.2887         444.101 
        1.19652         393.431          71.453         441.386 
        1.20267         392.344         70.6307         438.654 
        1.20881         390.385         69.8216         436.065 
        1.21495         385.215         69.0266          433.59 
        1.22108         384.787         68.2443         431.208 
         1.2272         379.395          67.476         428.464 
        1.23334         378.551          66.718         425.804 
        1.23949         375.297         65.9698         423.993 
        1.24562         375.088         65.2354         421.972 
        1.25174         370.993         64.5133         419.888 
        1.25789         368.064         63.8001         417.608 
        1.26402         365.992          63.099         415.707 
        1.27014         364.101         62.4103         412.307 
        1.27628         360.512         61.7299         411.402 
        1.28244         358.177         61.0583         409.645 
        1.28858         356.638         60.3978         406.755 
        1.29471         354.817         59.7486         404.108 
        1.30084         352.524         59.1096         401.829 
        1.30697         348.807         58.4791         400.141 
        1.31312          346.77          57.857         398.206 
        1.31925         344.586          57.246         395.559 
        1.32537         342.747         56.6445         393.206 
        1.33151         339.564         56.0495         391.898 
        1.33765         337.034         55.4636         389.927 
        1.34378         334.658         54.8872         387.147 
        1.34992          332.15         54.3188         384.637 
        1.35606         329.971         53.7572         382.839 
         1.3622         328.523         53.2046         381.411 
        1.36833         327.229         52.6613         379.768 
        1.37445         325.177         52.1258         376.996 
        1.38059         321.411         51.5962         375.793 
        1.38675         319.979         51.0728         374.298 
        1.39288         318.438         50.5588         371.077 
        1.39901         315.565         50.0521         369.069 
        1.40515          313.98         49.5514         366.947 
         1.4113         311.576         49.0577         364.906 
        1.41742         308.639         48.5727          363.58 
        1.42355         308.198         48.0934         361.546 
         1.4297         305.799         47.6192         359.488 
        1.43585         301.942         47.1516           358.4 
        1.44198         301.421         46.6921         356.161 
        1.44809         299.647         46.2397         354.713 
        1.45423         297.081         45.7917           351.7 
        1.46036         295.715         45.3505         350.285 
        1.46649         293.862         44.9149         348.924 
        1.47263         290.704         44.4849         346.531 
        1.47877         289.684         44.0606         344.657 
        1.48491         287.095         43.6413         342.758 
        1.49104         284.927         43.2284         340.959 
        1.49718         283.415         42.8206         340.282 
        1.50333         281.223         42.4174         338.665 
        1.50947         280.449         42.0202         336.644 
         1.5156         277.321         41.6288         334.642 
        1.52172         275.824         41.2424         332.526 
        1.52787         273.843         40.8602         331.081 
          1.534         273.202         40.4833         329.705 
        1.54013         270.551         40.1116         327.968 
        1.54627         268.875         39.7439         326.431 
        1.55241         267.255         39.3808         325.183 
        1.55855         265.472         39.0228         323.704 
        1.56467         263.649         38.6703         321.314 
         1.5708         262.179         38.3211         319.452 
        1.57695         260.616         37.9758         318.101 
        1.58308         259.409         37.6356         316.319 
        1.58922          257.15         37.2993         314.868 
        1.59535         254.785         36.9673         313.761 
         1.6015         253.702         36.6389         312.349 
        1.60764         252.034         36.3147         310.436 
        1.61376         249.938         35.9953         308.762 
        1.61989         248.544         35.6796         307.453 
        1.62604         246.601          35.367         305.691 
        1.63218         245.118         35.0583         304.312 
        1.63831         244.117         34.7541         303.163 
        1.64444          241.94         34.4533         301.181 
        1.65059         241.163         34.1555         299.871 
        1.65673         238.928         33.8615         298.668 
        1.66285         237.673         33.5718         296.958 
        1.66898         236.224         33.2855         295.056 
        1.67512         234.093          33.002         294.111 
        1.68127         232.944         32.7215         292.744 
         1.6874         231.298         32.4449          291.15 
        1.69353         230.378         32.1717          290.16 
        1.69967         228.726         31.9011         288.457 
        1.70581         226.866         31.6337         286.993 
        1.71193         225.711         31.3703          285.87 
        1.71806         223.562         31.1095         284.204 
        1.72421         222.585         30.8511         282.829 
        1.73035         220.667          30.596          281.36 
        1.73649         219.093         30.3438         279.824 
        1.74262         218.227         30.0947         279.009 
        1.74876         216.672         29.8483         277.599 
        1.75489         215.525         29.6051         276.077 
        1.76101         214.384         29.3648         275.078 
        1.76715         212.542         29.1268         273.907 
        1.77329          210.54         28.8912         272.625 
        1.77943         209.513         28.6581          271.27 
        1.78557         208.505         28.4279          269.82 
        1.79171         207.597         28.2002         268.588 
        1.79785         205.919         27.9751         267.363 
        1.80399         204.626         27.7524         265.963 
        1.81012         203.214         27.5325         265.054 
        1.81625         201.765          27.315          263.87 
        1.82239         200.443         27.0996         262.275 
        1.82853         199.675         26.8867         261.154 
        1.83466         197.987         26.6762         259.917 
        1.84078         196.734         26.4683         258.617 
        1.84692         195.724         26.2622          257.83 
        1.85306         194.036         26.0581         256.543 
         1.8592         193.209         25.8565         255.091 
        1.86533         191.331         25.6572         254.298 
        1.87147         190.678         25.4597         253.253 
