# k  (h/Mpc)    P(k)  (Mpc/h)^3    P_linear(k)  (Mpc/h)^3     P_NL(k)  ShotnoiseSubtracted = false
     0.00783031         9376.01         9412.48         9403.43 
       0.013688         12294.4         12579.5         12512.7 
       0.019231         13400.1         13586.8         13472.6 
      0.0249154         13319.2         13344.4         13210.2 
      0.0312784         12114.2         12275.8         12120.1 
      0.0375637         10749.4         10980.2         10817.5 
      0.0433917         9770.65         9883.08         9703.91 
      0.0492413         8818.15         9005.28         8823.69 
      0.0555754         8177.82         8306.47         8125.49 
      0.0619321         7441.74         7785.66         7598.55 
       0.067871         7126.24         7364.45         7179.14 
      0.0738098         6740.83         6929.69          6695.9 
      0.0800417         6249.32         6418.92         6191.19 
      0.0862327         5683.02         5863.14         5687.57 
      0.0921407         5177.57         5325.98         5160.41 
      0.0982031         4743.77         4815.78         4712.01 
       0.104506         4260.58          4369.2         4318.75 
       0.110769         3946.41         4026.73         3956.45 
       0.116806         3779.43         3784.39         3716.13 
       0.122832         3557.19         3604.45         3551.97 
       0.129052          3400.4         3451.07         3401.91 
       0.135211         3305.93         3301.05         3250.65 
       0.141259         3095.71         3136.36         3110.31 
       0.147318         2879.79         2949.31         2946.92 
       0.153489         2723.92         2744.33         2717.44 
       0.159709         2602.02         2539.35         2553.84 
       0.165845         2374.37          2355.3          2432.6 
       0.171974         2308.59         2200.68         2289.54 
       0.178125          2225.7         2078.22         2213.01 
       0.184229          2062.9         1985.07         2113.37 
        0.19034         2033.52         1911.14         2041.78 
       0.196428         1979.86         1845.89         1958.87 
       0.202534         1867.38          1779.3         1901.42 
       0.208729         1834.35         1704.63         1812.79 
       0.214876         1763.55         1622.44         1765.59 
       0.220989         1665.78          1535.9         1701.71 
       0.227147         1625.49         1449.49         1631.87 
        0.23329         1563.23         1369.72         1581.83 
       0.239377         1544.86         1300.92         1523.22 
       0.245482         1472.53         1243.45         1457.61 
       0.251667          1419.1         1195.76         1427.07 
       0.257832         1403.37         1155.68         1384.51 
       0.263955         1339.45          1119.5         1346.21 
       0.270079         1306.12         1083.48         1309.58 
        0.27624         1252.75         1045.33         1269.86 
       0.282372         1235.97         1004.89         1238.67 
        0.28843         1221.38         963.426         1203.92 
       0.294538         1163.46         921.887         1172.71 
       0.300721         1136.93         882.062         1140.38 
        0.30691         1115.61          845.97         1120.75 
       0.313033         1072.33          814.57         1086.71 
       0.319153         1059.06         787.284         1059.81 
       0.325316         1045.32         762.924         1044.49 
        0.33145         1026.01         740.571         1009.17 
       0.337538         992.176         719.006         991.573 
       0.343633         967.407         697.235         980.588 
       0.349808          948.34         674.644         962.365 
       0.355968         931.492         651.756         945.488 
       0.362074         904.076         629.265         924.746 
       0.368217         900.674         607.454         899.696 
       0.374374         887.003         587.011         884.409 
       0.380519         855.857         568.272         866.472 
       0.386598         849.466         551.404         854.948 
       0.392688         832.201         535.915         835.548 
        0.39888         811.803         521.171         824.819 
       0.405048         799.145          507.09         815.539 
       0.411186         796.009         493.318         796.177 
       0.417313         791.606         479.605         782.085 
       0.423458         767.112         465.933         770.782 
       0.429607         747.057          452.42         755.192 
       0.435692         739.248          439.42         742.663 
       0.441815          727.33         426.923         738.559 
       0.447964         716.109         415.077         726.035 
       0.454126         707.365         403.925         708.775 
       0.460267         697.313         393.508          706.62 
       0.466387         688.011         383.682          693.15 
        0.47254         676.085         374.193         685.614 
       0.478662         665.211         365.017         674.756 
       0.484765          659.68         356.068         663.526 
       0.490885          652.58         347.242         654.271 
       0.497035         640.956         338.524         648.291 
       0.503198         640.124         330.015           639.4 
       0.509342         627.148         321.825         631.124 
       0.515458         616.039             314         627.511 
       0.521598         609.897         306.478          618.28 
       0.527764         598.645         299.266         610.672 
       0.533884         595.788         292.425         603.823 
           0.54         588.868         285.849         596.484 
       0.546137          579.19         279.452         589.561 
       0.552299         577.724         273.187         581.828 
       0.558452         570.049         267.083         576.836 
       0.564573         563.504         261.161         571.952 
       0.570708         559.269         255.377         567.016 
       0.576825         548.536         249.768         557.601 
       0.582926         545.584         244.343         552.003 
       0.589034         538.533          239.09         544.535 
       0.595184         534.023         233.992         539.303 
       0.601379         525.654         229.043         535.546 
       0.607522         517.883         224.299         529.419 
       0.613639         516.009         219.716         525.627 
       0.619772         513.399         215.244         523.886 
       0.625918         504.964         210.872         517.301 
       0.632068         500.622         206.609         511.471 
       0.638161         495.335         202.496         505.466 
         0.6443         491.317         198.463         502.599 
       0.650464         485.826         194.528         494.577 
       0.656582         481.568         190.731         490.564 
       0.662703         477.274         187.039         488.964 
       0.668861          471.63         183.427         484.842 
       0.675024         467.883         179.913         480.615 
       0.681124          462.79         176.532         473.545 
       0.687237         459.905         173.234         469.658 
       0.693381           454.4         170.008         466.001 
       0.699536         450.978          166.86         463.041 
       0.705665         446.538         163.806         459.014 
       0.711789         445.488         160.831         454.918 
       0.717957         438.571         157.908         452.386 
        0.72409         434.906         155.072         448.919 
       0.730186         436.326         152.323         445.329 
       0.736317         428.704         149.626         440.524 
       0.742472         424.084         146.985         436.677 
       0.748622         420.398         144.412         433.211 
        0.75476          418.55         141.908         432.707 
       0.760888         414.984         139.469         427.426 
       0.767043         411.886         137.079         424.406 
       0.773185         409.772         134.752         421.264 
       0.779291         403.528         132.494         417.444 
       0.785407         401.988         130.284         414.935 
       0.791564          398.12         128.112         412.348 
       0.797719         392.473         125.991         408.987 
       0.803834         395.237         123.932         406.616 
       0.809972         389.227         121.912         403.773 
       0.816124         385.199         119.933         398.977 
       0.822261         381.631         118.004         396.922 
       0.828378         380.943         116.124         394.022 
       0.834502         375.128         114.283          392.26 
       0.840667         375.035         112.471         389.352 
       0.846816         369.295         110.704         386.818 
       0.852925         369.045         108.986         383.959 
       0.859047         365.312         107.302          381.25 
       0.865192         364.568         105.648         378.834 
       0.871341         359.351         104.029         376.357 
       0.877463         356.081         102.451         374.074 
       0.883569         354.261         100.911         371.829 
       0.889708         351.334         99.3948         368.633 
       0.895864         348.875         97.9063          366.63 
       0.902008         346.793         96.4518         364.102 
       0.908149         344.034         95.0282         360.848 
       0.914301         342.112         93.6313         359.179 
       0.920448         339.732         92.2642         355.942 
       0.926574          337.56         90.9296         353.901 
       0.932687         334.886         89.6245          351.09 
       0.938823         331.801         88.3407         350.634 
       0.944975          330.25         87.0794         348.429 
       0.951105         327.526         85.8476         345.568 
       0.957225         323.861          84.642         343.544 
       0.963368         323.832         83.4558         340.894 
       0.969511         318.149         82.2925         338.671 
       0.975621         318.284          81.158         337.726 
       0.981748         315.911         80.0421         335.204 
       0.987916         314.039         78.9405         333.751 
        0.99406         311.226         77.8639         331.739 
        1.00019         308.745         76.8098         328.521 
        1.00632         308.516         75.7764          326.44 
        1.01246         305.948         74.7608         324.436 
        1.01859         302.012         73.7656         322.739 
        1.02471         299.994         72.7899          321.53 
        1.03085         299.608         71.8288         319.808 
        1.03698         296.943         70.8872         318.131 
        1.04314         296.396         69.9588          315.83 
        1.04929         293.863         69.0493         313.526 
        1.05541         290.764         68.1598         311.727 
        1.06154         289.242          67.284         310.006 
        1.06769         286.346         66.4224         308.311 
        1.07382         286.306         65.5789         306.262 
        1.07993         283.063         64.7522          304.83 
        1.08607         280.878         63.9364         303.014 
        1.09222         279.651          63.134         301.113 
        1.09836         278.274         62.3465         300.221 
        1.10449         275.918         61.5735         298.146 
        1.11063         273.482         60.8129         296.208 
        1.11677         272.145         60.0655          294.54 
         1.1229         270.256         59.3322         293.245 
        1.12903         269.219         58.6106         291.772 
        1.13518         266.975         57.9006         289.869 
        1.14131         266.218         57.2028         288.342 
        1.14745         262.519         56.5171         286.715 
        1.15359         260.608         55.8425         285.075 
        1.15973         259.977         55.1789         283.382 
        1.16584         258.895         54.5291         281.129 
        1.17197         256.692         53.8889         280.109 
        1.17811         254.444         53.2572         279.122 
        1.18424         252.954         52.6376         277.627 
        1.19038         251.568         52.0261         276.103 
        1.19652         248.814         51.4247         274.928 
        1.20267         248.517         50.8328         272.588 
        1.20881         246.342         50.2506         271.868 
        1.21495         245.607         49.6784         269.684 
        1.22108         243.668         49.1153         268.477 
         1.2272         241.293         48.5624          266.34 
        1.23334         240.361         48.0168         265.378 
        1.23949         239.505         47.4784         264.737 
        1.24562         237.623         46.9499         262.877 
        1.25174         235.852         46.4302         261.873 
        1.25789         233.881         45.9169         260.366 
        1.26402         233.606         45.4123         258.686 
        1.27014         232.146         44.9166          257.81 
        1.27628         229.431         44.4269         256.943 
        1.28244         228.785         43.9436         255.143 
        1.28858         227.116         43.4682         253.656 
        1.29471         226.006          43.001         252.102 
        1.30084         224.475         42.5411         250.846 
        1.30697         222.515         42.0874         249.871 
        1.31312          221.24         41.6396         248.204 
        1.31925         219.885         41.1999         246.674 
        1.32537         219.188          40.767          245.84 
        1.33151         217.307         40.3388         244.656 
        1.33765         215.639         39.9171         243.154 
        1.34378          214.54         39.5023         241.983 
        1.34992         213.288         39.0932         240.527 
        1.35606         212.056          38.689         239.116 
         1.3622         210.912         38.2913         238.056 
        1.36833         208.715         37.9003         237.062 
        1.37445         208.433         37.5149         235.385 
        1.38059         206.651         37.1338         234.666 
        1.38675         205.277          36.757         233.472 
        1.39288         204.128         36.3871          231.59 
        1.39901         202.858         36.0225         230.992 
        1.40515         201.775         35.6621         230.044 
         1.4113         200.252         35.3068         228.567 
        1.41742         198.573         34.9577         227.497 
        1.42355         198.923         34.6128         226.734 
         1.4297         196.752         34.2715         225.416 
        1.43585         195.523         33.9349         224.288 
        1.44198         193.681         33.6043         223.083 
        1.44809         192.729         33.2787         221.946 
        1.45423         192.037         32.9562         220.729 
        1.46036         190.664         32.6387         219.654 
        1.46649         189.494         32.3252         218.951 
        1.47263         188.634         32.0157         218.222 
        1.47877         187.362         31.7104         216.734 
        1.48491         185.539         31.4086         215.644 
        1.49104         183.852         31.1114         214.812 
        1.49718         183.339         30.8179         213.356 
        1.50333          182.26         30.5277         212.484 
        1.50947         181.283         30.2419         211.612 
         1.5156         180.109         29.9602          210.44 
        1.52172         178.998         29.6821         209.353 
        1.52787         178.097         29.4071           208.4 
          1.534         176.934         29.1358         207.319 
        1.54013         175.934         28.8683         206.411 
        1.54627         174.909         28.6037         205.564 
        1.55241         173.779         28.3423         204.495 
        1.55855          172.96         28.0847          203.33 
        1.56467         171.368          27.831         202.345 
         1.5708         170.294         27.5797         201.674 
        1.57695         169.581         27.3312         200.729 
        1.58308         168.396         27.0863         199.553 
        1.58922         167.568         26.8443         198.651 
        1.59535         166.242         26.6053         197.741 
         1.6015         164.925          26.369         196.667 
        1.60764         164.237         26.1357         195.675 
        1.61376         163.046         25.9058         194.997 
        1.61989         162.234         25.6786          194.27 
        1.62604         160.999         25.4536         193.223 
        1.63218         160.362         25.2314         192.269 
        1.63831         159.277         25.0125         191.402 
        1.64444         158.172          24.796         190.307 
        1.65059         157.321         24.5817          189.61 
        1.65673          156.28         24.3701         188.734 
        1.66285         155.732         24.1616         187.743 
        1.66898         154.393         23.9555         186.938 
        1.67512         153.658         23.7515          186.13 
        1.68127         152.474         23.5496         185.285 
         1.6874          151.73         23.3506         184.545 
        1.69353         150.929          23.154         183.877 
        1.69967         149.771         22.9592         182.755 
        1.70581         149.258         22.7667         181.798 
        1.71193         147.867         22.5772         181.038 
        1.71806         146.977         22.3895         179.977 
        1.72421         146.374         22.2035         179.288 
        1.73035          145.38         22.0199         178.544 
        1.73649          144.18         21.8384         177.615 
        1.74262         143.682         21.6592         177.067 
        1.74876         142.696         21.4818         176.241 
        1.75489         141.853         21.3068         175.263 
        1.76101         140.971         21.1338         174.459 
        1.76715         139.892         20.9625         173.669 
        1.77329         139.475         20.7929         172.821 
        1.77943          138.15         20.6252         171.987 
        1.78557         137.714         20.4595         171.259 
        1.79171         136.826         20.2957          170.66 
        1.79785         135.771         20.1336         169.963 
        1.80399         135.118         19.9734         169.017 
        1.81012         133.883         19.8151         168.199 
        1.81625          133.61         19.6586         167.574 
        1.82239         132.585         19.5036         166.934 
        1.82853         132.088         19.3503         166.138 
        1.83466         130.984         19.1989         165.253 
        1.84078          130.27         19.0492         164.484 
        1.84692         129.931         18.9009         163.971 
        1.85306         128.692          18.754          163.22 
         1.8592         128.068         18.6089         162.432 
        1.86533         126.994         18.4655         161.925 
        1.87147         126.577         18.3234         161.097 
        1.87761          125.53         18.1827          160.24 
