# k  (h/Mpc)    Pcb(k)  (Mpc/h)^3    Pcb_linear(k) (Mpc/h)^3    Pcb_NL(k) (Mpc/h)^3   ShotnoiseSubtracted = false
     0.00783031         3782.93         3801.25         3799.16 
       0.013688         5001.66         5081.46         5061.78 
       0.019231         5443.66         5488.94         5456.34 
      0.0249154         5390.01         5391.32         5360.52 
      0.0312784         4930.33         4959.78          4931.5 
      0.0375637         4391.16         4436.47         4408.42 
      0.0433917         3982.01         3993.23         3964.68 
      0.0492413         3606.32          3638.6         3610.31 
      0.0555754         3344.85         3356.28          3327.4 
      0.0619321         3074.46         3145.87         3115.74 
       0.067871         2936.51         2975.69         2944.86 
      0.0738098         2770.64         2800.03         2760.61 
      0.0800417          2572.6         2593.66         2555.24 
      0.0862327         2341.04          2369.1         2339.96 
      0.0921407         2127.65         2152.05         2124.86 
      0.0982031         1939.56          1945.9         1930.22 
       0.104506         1743.97         1765.46         1759.44 
       0.110769         1611.76         1627.08         1616.65 
       0.116806         1536.17         1529.16         1519.07 
       0.122832         1447.11         1456.45         1449.39 
       0.129052         1389.85         1394.47         1387.54 
       0.135211          1341.7         1333.86          1327.2 
       0.141259         1263.01         1267.31         1264.45 
       0.147318          1175.5         1191.73         1194.66 
       0.153489         1105.41         1108.91         1105.85 
       0.159709         1040.22         1026.08         1031.16 
       0.165845         950.042         951.711         969.961 
       0.171974         914.984         889.235          908.35 
       0.178125         871.223          839.75         868.297 
       0.184229         817.242         802.113         830.708 
        0.19034         798.918         772.241         800.493 
       0.196428         773.852         745.872         768.392 
       0.202534         730.947         718.968         743.368 
       0.208729         714.651         688.797         711.035 
       0.214876         687.818         655.583         686.637 
       0.220989         640.895         620.615         655.617 
       0.227147         623.821         585.701         622.401 
        0.23329         597.389         553.467         598.022 
       0.239377           578.9         525.665         573.819 
       0.245482         549.918         502.445         547.379 
       0.251667         528.264         483.173         532.364 
       0.257832         522.304         466.982         515.462 
       0.263955         496.462          452.36         499.498 
       0.270079         481.431         437.806         484.006 
        0.27624         461.441         422.392          467.19 
       0.282372         449.734         406.051         452.522 
        0.28843         445.289         389.295         436.414 
       0.294538         423.779         372.511         423.089 
       0.300721          407.01         356.419         410.667 
        0.30691          400.03         341.835         398.317 
       0.313033         383.827         329.148           384.6 
       0.319153         377.138          318.12         375.432 
       0.325316         366.063         308.278         367.597 
        0.33145          357.27         299.246         355.305 
       0.337538         346.288         290.531         346.023 
       0.343633         335.968         281.735         339.524 
       0.349808         327.029         272.607         331.654 
       0.355968         319.429         263.358         324.524 
       0.362074         312.279          254.27         315.477 
       0.368217         306.696         245.457         305.034 
       0.374374         300.128         237.196         298.589 
       0.380519          287.87         229.625         290.855 
       0.386598          282.68         222.808         284.577 
       0.392688         276.193          216.55         279.053 
        0.39888         270.363         210.592         271.967 
       0.405048         265.371         204.902         267.866 
       0.411186         261.853         199.337         262.229 
       0.417313         256.016         193.796         254.722 
       0.423458         249.618         188.271         249.907 
       0.429607         245.088         182.812         244.725 
       0.435692         240.367         177.559         240.028 
       0.441815         234.958         172.509         237.203 
       0.447964         228.538         167.722         231.655 
       0.454126         224.635         163.216         225.973 
       0.460267         222.694         159.006         223.433 
       0.466387         218.246         155.036         218.747 
        0.47254         215.806         151.202         215.253 
       0.478662         209.019         147.494         211.181 
       0.484765         206.408         143.878         206.348 
       0.490885         202.872         140.311         203.889 
       0.497035         201.238         136.789          201.21 
       0.503198         197.218          133.35         197.437 
       0.509342         192.239         130.041          194.63 
       0.515458          190.47         126.879         192.865 
       0.521598         185.974          123.84         188.343 
       0.527764         184.042         120.926         184.361 
       0.533884         183.218         118.161         182.075 
           0.54         178.598         115.504          179.63 
       0.546137         174.551         112.919         177.721 
       0.552299         172.907         110.388         174.176 
       0.558452         169.844         107.922         171.425 
       0.564573         169.149         105.528          169.84 
       0.570708         164.714         103.191         167.262 
       0.576825          162.85         100.925         164.505 
       0.582926         161.165         98.7329         162.202 
       0.589034         158.867         96.6106         160.608 
       0.595184         157.278         94.5502         158.195 
       0.601379         153.396         92.5505         156.854 
       0.607522         151.456         90.6338         153.781 
       0.613639         150.132         88.7818         152.284 
       0.619772         148.055         86.9744         149.849 
       0.625918         146.698         85.2082         148.874 
       0.632068         144.053         83.4855         146.256 
       0.638161         141.818         81.8234         145.213 
         0.6443         141.236         80.1939         142.915 
       0.650464         138.695         78.6037         140.524 
       0.656582          138.07         77.0696         139.685 
       0.662703         136.459         75.5776         137.505 
       0.668861         133.711         74.1183         136.249 
       0.675024         133.637         72.6984          134.41 
       0.681124         131.507         71.3319         132.976 
       0.687237         129.056         69.9995         131.273 
       0.693381         128.633          68.696          129.75 
       0.699536         127.057         67.4241         128.998 
       0.705665         125.093         66.1901         127.884 
       0.711789         123.553         64.9878         125.406 
       0.717957         122.299         63.8065         124.652 
        0.72409         121.555         62.6608          124.03 
       0.730186         120.591         61.5499         122.389 
       0.736317         118.471         60.4601         120.782 
       0.742472         117.338          59.393          119.69 
       0.748622         115.608         58.3533         118.316 
        0.75476         114.858         57.3414         117.173 
       0.760888         114.322         56.3559         115.852 
       0.767043         112.369         55.3903         115.276 
       0.773185         111.207           54.45          114.38 
       0.779291         110.008         53.5373         113.203 
       0.785407         108.507         52.6446         111.746 
       0.791564         108.516         51.7669         110.741 
       0.797719         107.408         50.9099         109.962 
       0.803834         106.221         50.0779         108.622 
       0.809972         105.603         49.2616         107.828 
       0.816124         104.448          48.462         107.125 
       0.822261         103.076         47.6824         105.822 
       0.828378         102.795         46.9226         104.508 
       0.834502         101.218         46.1788         104.363 
       0.840667         100.746         45.4466         103.453 
       0.846816          99.638         44.7325         102.405 
       0.852925         98.9108         44.0385         101.661 
       0.859047         98.3376          43.358         100.465 
       0.865192         96.8771         42.6898         99.8975 
       0.871341         95.9526         42.0355         98.9485 
       0.877463         95.4611          41.398         98.3293 
       0.883569          95.087         40.7756         97.6438 
       0.889708         94.2446         40.1629         96.7129 
       0.895864         93.3227         39.5615         96.0196 
       0.902008         92.5366         38.9738         95.2303 
       0.908149         91.6522         38.3985         94.5035 
       0.914301         91.2379         37.8341         94.0246 
       0.920448         90.6817         37.2816         93.1067 
       0.926574         89.0467         36.7423         92.0211 
       0.932687         88.7174          36.215         91.6782 
       0.938823          87.963         35.6962         90.8158 
       0.944975         87.0896         35.1866         90.0981 
       0.951105         86.3671         34.6889          89.699 
       0.957225         86.3212         34.2017         89.0628 
       0.963368         85.3449         33.7224         88.0949 
       0.969511         84.6174         33.2523         87.5548 
       0.975621         84.0522         32.7939         87.4271 
       0.981748         83.2026          32.343         86.5167 
       0.987916         82.6011         31.8979          86.029 
        0.99406         82.1721         31.4629          85.438 
        1.00019          81.366         31.0369         84.8209 
        1.00632         80.8603         30.6194         84.3065 
        1.01246         80.2693         30.2089          83.611 
        1.01859         79.8566         29.8068         83.0433 
        1.02471         78.9185         29.4126         82.6378 
        1.03085         78.5564         29.0242         82.0072 
        1.03698         77.9895         28.6438          81.394 
        1.04314         77.5521         28.2686         80.8065 
        1.04929         76.8768         27.9011         80.5413 
        1.05541         76.3884         27.5417         80.1892 
        1.06154         76.0429         27.1878         79.4272 
        1.06769         75.0385         26.8396         78.9993 
        1.07382         74.7912         26.4988         78.5252 
        1.07993         74.3215         26.1647         77.8891 
        1.08607         73.7209         25.8351         77.3925 
        1.09222         73.4195         25.5109         76.9289 
        1.09836         72.7996         25.1926         76.5233 
        1.10449         72.3691         24.8803         75.9351 
        1.11063         71.7434          24.573         75.4519 
        1.11677         71.6745          24.271         75.0441 
         1.1229         70.8695         23.9747         74.6904 
        1.12903         70.7426         23.6831          74.191 
        1.13518         70.4692         23.3962         73.6917 
        1.14131            69.7         23.1142         73.3673 
        1.14745         68.9889         22.8371         72.8958 
        1.15359         68.4791         22.5646         72.7192 
        1.15973         68.3103         22.2964         72.1371 
        1.16584         67.8723         22.0338         71.6742 
        1.17197         67.1038         21.7752         71.2202 
        1.17811         66.8705         21.5199         70.6672 
        1.18424         66.1442         21.2695         70.3103 
        1.19038         66.0114         21.0224         70.2217 
        1.19652         65.7386         20.7794         69.5582 
        1.20267         65.2633         20.5403         69.4085 
        1.20881         64.8012          20.305         68.9026 
        1.21495         64.5303         20.0738         68.6362 
        1.22108         64.1993         19.8463         68.1511 
         1.2272         63.7615         19.6229         67.8984 
        1.23334         63.3466         19.4024         67.5018 
        1.23949         62.9953         19.1848         67.0177 
        1.24562         62.4573         18.9713         66.6958 
        1.25174         62.1198         18.7613          66.443 
        1.25789         62.1553         18.5539           66.01 
        1.26402         61.5927           18.35          65.631 
        1.27014         61.1527         18.1497         65.3194 
        1.27628         60.6535         17.9518         64.9612 
        1.28244         60.4967         17.7565         64.7328 
        1.28858         60.0588         17.5644         64.3532 
        1.29471         59.8537         17.3756         64.0706 
        1.30084         59.3361         17.1898          63.601 
        1.30697         59.1492         17.0065          63.235 
        1.31312         58.6286         16.8255         63.0935 
        1.31925         58.2789         16.6478         62.7212 
        1.32537         58.0325         16.4729         62.3961 
        1.33151         57.6628         16.2999         62.1221 
        1.33765         57.3979         16.1295         61.8412 
        1.34378         57.1881         15.9619         61.4914 
        1.34992         56.7724         15.7966         61.2029 
        1.35606         56.4487         15.6333         61.0225 
         1.3622         56.0071         15.4726         60.7005 
        1.36833         55.7186         15.3145         60.3563 
        1.37445         55.4071         15.1588         60.0525 
        1.38059         55.1866         15.0048         59.8757 
        1.38675         54.6348         14.8526         59.5359 
        1.39288         54.6126         14.7031         59.3342 
        1.39901          54.201         14.5558          59.035 
        1.40515         53.9679         14.4101         58.6706 
         1.4113         53.9173         14.2666         58.4421 
        1.41742         53.5403         14.1255         58.3029 
        1.42355         53.0194         13.9861         57.8109 
         1.4297         52.7437         13.8482         57.5439 
        1.43585         52.3734         13.7123         57.4019 
        1.44198          52.159         13.5786         57.1569 
        1.44809         51.9278         13.4471         56.7544 
        1.45423         51.7305         13.3168          56.494 
        1.46036         51.4177         13.1885         56.2705 
        1.46649         51.2111         13.0618         56.0575 
        1.47263          50.821         12.9367         55.8609 
        1.47877         50.6596         12.8134          55.621 
        1.48491         50.4771         12.6914         55.2415 
        1.49104         50.0749         12.5714         55.0333 
        1.49718         49.8458         12.4528         54.7762 
        1.50333         49.7326         12.3355         54.6266 
        1.50947         49.2793           12.22         54.4511 
         1.5156         49.1054         12.1062         54.1746 
        1.52172         48.7258         11.9938         53.8858 
        1.52787         48.5187         11.8827         53.6371 
          1.534         48.3229         11.7731         53.4625 
        1.54013         48.0927          11.665         53.1722 
        1.54627         47.7009          11.558         52.8909 
        1.55241         47.5637         11.4524         52.7322 
        1.55855         47.3419         11.3483         52.5603 
        1.56467         47.1914         11.2458         52.2891 
         1.5708         46.9231         11.1443         52.1154 
        1.57695         46.6568         11.0438         51.8831 
        1.58308         46.2688         10.9449         51.5808 
        1.58922         46.0572         10.8471         51.4616 
        1.59535          45.931         10.7506         51.3101 
         1.6015         45.7832         10.6551         51.0153 
        1.60764         45.5626         10.5608         50.7651 
        1.61376         45.2229         10.4679         50.6046 
        1.61989         44.9621         10.3761         50.3256 
        1.62604         44.8075         10.2852         50.2047 
        1.63218         44.5381         10.1954         50.0813 
        1.63831          44.455         10.1069         49.8015 
        1.64444         44.1477         10.0195         49.5507 
        1.65059         43.9392         9.93284         49.3888 
        1.65673         43.6815         9.84735         49.1833 
        1.66285         43.5759         9.76311         48.9952 
        1.66898         43.2248         9.67984         48.8825 
        1.67512         43.1364         9.59738         48.6796 
        1.68127         42.8785         9.51581         48.4252 
         1.6874          42.677         9.43538         48.1825 
        1.69353         42.5209         9.35594         47.9828 
        1.69967         42.3094         9.27723         47.8189 
        1.70581          41.898         9.19946         47.7221 
        1.71193         41.7414         9.12289         47.5708 
        1.71806         41.6637         9.04703         47.2209 
        1.72421         41.4959         8.97189           47.02 
        1.73035         41.2171          8.8977         46.9287 
        1.73649         40.9462         8.82436         46.7793 
        1.74262         40.7288         8.75192         46.5082 
        1.74876         40.5005         8.68026         46.3258 
        1.75489         40.4118         8.60954         46.1936 
        1.76101         40.2871         8.53965         46.0174 
        1.76715         40.0491         8.47044         45.8374 
        1.77329         39.8164         8.40191         45.6574 
        1.77943         39.7612         8.33412         45.4947 
        1.78557         39.4851         8.26719         45.3503 
        1.79171         39.3279         8.20098         45.1597 
        1.79785          39.092          8.1355         44.9973 
        1.80399         38.9556         8.07074         44.9011 
        1.81012         38.7932         8.00678         44.6204 
        1.81625         38.4982         7.94355         44.3662 
        1.82239         38.3615         7.88091         44.2727 
        1.82853         38.2145         7.81898          44.156 
        1.83466         38.0199         7.75779         44.0004 
        1.84078         37.8009         7.69731         43.8529 
        1.84692         37.6441         7.63739         43.7449 
        1.85306         37.4255         7.57803         43.5517 
         1.8592         37.3077          7.5194         43.3348 
        1.86533         37.1125         7.46143         43.2104 
        1.87147          36.952         7.40401          43.061 
