# k  (h/Mpc)    P(k)  (Mpc/h)^3    P_linear(k)  (Mpc/h)^3     P_NL(k)  ShotnoiseSubtracted = false
     0.00783031         92.0127         92.6383         92.5492 
       0.013688         123.079         123.929         123.547 
       0.019231         133.549         133.904         133.327 
      0.0249154         131.306         131.542         131.144 
      0.0312784         120.895         121.025         120.859 
      0.0375637         108.189         108.261         108.185 
      0.0433917         97.5616         97.4485         97.4516 
      0.0492413         88.8165         88.7965         88.8158 
      0.0555754          82.033         81.9082         81.9069 
      0.0619321         76.6039         76.7742         76.7568 
       0.067871         72.5755         72.6218         72.5698 
      0.0738098         68.2961         68.3354         68.2531 
      0.0800417         63.3087         63.2993         63.2239 
      0.0862327         57.7909         57.8191         57.7677 
      0.0921407         52.4889         52.5222         52.4949 
      0.0982031         47.5319         47.4912         47.4923 
       0.104506         43.0409         43.0875         43.1082 
       0.110769         39.6747         39.7103          39.726 
       0.116806         37.3562         37.3206         37.3227 
       0.122832         35.5013         35.5461         35.5447 
       0.129052         34.0241         34.0336         34.0219 
       0.135211         32.5647         32.5542         32.5353 
       0.141259         30.8907         30.9302         30.9142 
       0.147318         28.9999         29.0856         29.0806 
       0.153489         27.0276         27.0641         27.0578 
       0.159709         25.0336         25.0427         25.0525 
       0.165845         23.1497         23.2277         23.2587 
       0.171974           21.72         21.7029          21.735 
       0.178125         20.5053         20.4951         20.5388 
       0.184229         19.5479         19.5766         19.6193 
        0.19034         18.8678         18.8475          18.886 
       0.196428         18.1992          18.204         18.2298 
       0.202534         17.4808         17.5473         17.5731 
       0.208729         16.7895          16.811          16.835 
       0.214876         16.0193         16.0004         16.0375 
       0.220989         15.0947         15.1469         15.1911 
       0.227147          14.323         14.2948         14.3416 
        0.23329         13.5446         13.5081         13.5678 
       0.239377         12.8706         12.8296         12.8971 
       0.245482         12.2984         12.2629         12.3251 
       0.251667         11.7992         11.7925         11.8601 
       0.257832         11.4325         11.3973         11.4626 
       0.263955         11.0521         11.0405         11.1011 
       0.270079         10.6939         10.6852         10.7422 
        0.27624         10.2917          10.309         10.3626 
       0.282372         9.90052         9.91022         9.96851 
        0.28843         9.52892         9.50128         9.56249 
       0.294538         9.11382         9.09163         9.15783 
       0.300721         8.70148         8.69889         8.77149 
        0.30691         8.37512         8.34295          8.4173 
       0.313033         8.05805         8.03328         8.10677 
       0.319153         7.82686         7.76419         7.84259 
       0.325316         7.53126         7.52395         7.60465 
        0.33145         7.31338          7.3035         7.37887 
       0.337538         7.10982         7.09084         7.16338 
       0.343633         6.90368         6.87613         6.94806 
       0.349808         6.67379         6.65333         6.72801 
       0.355968         6.44323         6.42762         6.51211 
       0.362074         6.23527         6.20582         6.28715 
       0.368217         6.01939         5.99072         6.06602 
       0.374374         5.84151         5.78911          5.8711 
       0.380519         5.63297         5.60431         5.68396 
       0.386598         5.46061         5.43795         5.52046 
       0.392688          5.3028          5.2852         5.36707 
        0.39888         5.16663         5.13979         5.22044 
       0.405048         5.02957         5.00093         5.07721 
       0.411186         4.88953         4.86511         4.94935 
       0.417313         4.75926         4.72987         4.81074 
       0.423458         4.61197         4.59503         4.67754 
       0.429607         4.49432         4.46178          4.5419 
       0.435692         4.36999         4.33357         4.41731 
       0.441815         4.23869         4.21032         4.29905 
       0.447964          4.1104          4.0935         4.17958 
       0.454126         4.01541         3.98351          4.0683 
       0.460267         3.92433         3.88079         3.96767 
       0.466387         3.82064         3.78388         3.86709 
        0.47254         3.73101          3.6903         3.77427 
       0.478662         3.63665         3.59981         3.68223 
       0.484765         3.55041         3.51155         3.59498 
       0.490885          3.4584          3.4245         3.51363 
       0.497035         3.36297         3.33853         3.42824 
       0.503198         3.28759         3.25462         3.33755 
       0.509342         3.19935         3.17384         3.25929 
       0.515458          3.1311         3.09667         3.18601 
       0.521598         3.05689          3.0225         3.10541 
       0.527764         2.99451         2.95137         3.03415 
       0.533884         2.91225          2.8839         2.96728 
           0.54         2.85128         2.81905          2.9009 
       0.546137          2.7815         2.75596         2.83951 
       0.552299         2.72473         2.69418          2.7725 
       0.558452         2.66585         2.63398          2.7136 
       0.564573         2.60913         2.57558         2.66138 
       0.570708          2.5512         2.51853         2.60263 
       0.576825         2.49626         2.46322         2.54588 
       0.582926         2.43835         2.40972         2.49378 
       0.589034         2.39539         2.35792         2.44434 
       0.595184         2.34716         2.30763         2.38646 
       0.601379         2.29232         2.25883         2.34317 
       0.607522         2.24401         2.21205         2.29513 
       0.613639         2.19265         2.16685         2.24884 
       0.619772         2.15707         2.12274         2.20731 
       0.625918         2.11279         2.07963         2.16112 
       0.632068         2.07146         2.03759         2.11799 
       0.638161          2.0297         1.99702           2.077 
         0.6443         1.98889         1.95725         2.03589 
       0.650464         1.95067         1.91844          2.0002 
       0.656582         1.91753           1.881         1.96152 
       0.662703         1.87972         1.84458         1.92406 
       0.668861         1.83645         1.80897         1.89085 
       0.675024         1.80543         1.77431         1.85416 
       0.681124         1.78355         1.74096         1.81971 
       0.687237         1.74345         1.70844         1.78438 
       0.693381          1.7054         1.67663         1.75071 
       0.699536         1.68288         1.64558         1.72065 
       0.705665         1.65129         1.61547         1.69514 
       0.711789         1.61651         1.58612         1.66456 
       0.717957         1.58952         1.55729         1.63319 
        0.72409         1.56082         1.52933         1.60527 
       0.730186         1.53843         1.50222         1.57598 
       0.736317         1.50767         1.47562         1.54881 
       0.742472         1.48429         1.44957         1.52694 
       0.748622         1.45959          1.4242         1.50126 
        0.75476         1.43173          1.3995         1.47315 
       0.760888         1.41211         1.37545         1.44978 
       0.767043         1.37719         1.35188         1.42687 
       0.773185         1.35918         1.32893         1.40478 
       0.779291           1.342         1.30666         1.38196 
       0.785407         1.31719         1.28487         1.35896 
       0.791564         1.29588         1.26345         1.33749 
       0.797719         1.27402         1.24253          1.3137 
       0.803834         1.25275         1.22222         1.29436 
       0.809972         1.23362          1.2023         1.27635 
       0.816124         1.21343         1.18279         1.25409 
       0.822261         1.19617         1.16376         1.23463 
       0.828378         1.17498         1.14522         1.21588 
       0.834502         1.15723         1.12706         1.19627 
       0.840667         1.14133         1.10919         1.17927 
       0.846816         1.12347         1.09176         1.16452 
       0.852925         1.10347         1.07483         1.14567 
       0.859047         1.08755         1.05822         1.13091 
       0.865192         1.07181         1.04191         1.11283 
       0.871341         1.05726         1.02594         1.09577 
       0.877463         1.03816         1.01038         1.07936 
       0.883569          1.0238        0.995188         1.06523 
       0.889708         1.01051        0.980236         1.04997 
       0.895864        0.995758        0.965556         1.03439 
       0.902008        0.979291        0.951212         1.01968 
       0.908149        0.967123        0.937172         1.00626 
       0.914301        0.955153        0.923396        0.990634 
       0.920448        0.940917        0.909914        0.976546 
       0.926574        0.929254        0.896751         0.96377 
       0.932687        0.915517        0.883881        0.948928 
       0.938823        0.899802         0.87122         0.93944 
       0.944975        0.889545        0.858781         0.92329 
       0.951105        0.874345        0.846633        0.911157 
       0.957225        0.862156        0.834743        0.901081 
       0.963368        0.852418        0.823045        0.887756 
       0.969511        0.842229        0.811573        0.876238 
       0.975621        0.828832        0.800384        0.862316 
       0.981748        0.815321        0.789379        0.851816 
       0.987916         0.80537        0.778515        0.843114 
        0.99406        0.796373        0.767898          0.8326 
        1.00019        0.785212        0.757502        0.821744 
        1.00632        0.777466        0.747311        0.810095 
        1.01246        0.766476        0.737294        0.799338 
        1.01859        0.756163        0.727479        0.790103 
        1.02471        0.744676        0.717858        0.780583 
        1.03085        0.734499        0.708379           0.769 
        1.03698        0.726841        0.699093        0.759074 
        1.04314          0.7177        0.689937         0.75052 
        1.04929        0.710049        0.680967        0.741297 
        1.05541        0.698205        0.672195        0.733205 
        1.06154        0.690947        0.663558        0.724199 
        1.06769         0.68297        0.655061        0.715005 
        1.07382        0.674344        0.646743        0.706495 
        1.07993        0.666553        0.638589        0.697968 
        1.08607        0.657541        0.630544        0.689894 
        1.09222        0.649023        0.622631         0.68094 
        1.09836        0.641605        0.614864        0.673692 
        1.10449        0.633154        0.607241        0.665704 
        1.11063        0.625496         0.59974        0.657022 
        1.11677        0.619483        0.592369        0.650387 
         1.1229        0.609748        0.585137        0.642899 
        1.12903        0.604106        0.578021        0.635307 
        1.13518        0.596429        0.571018        0.628178 
        1.14131         0.59024        0.564137        0.621305 
        1.14745        0.585089        0.557374        0.613134 
        1.15359        0.576631        0.550722        0.606842 
        1.15973        0.571028        0.544177        0.600702 
        1.16584        0.563281        0.537769        0.593226 
        1.17197        0.556503        0.531455         0.58672 
        1.17811        0.549826        0.525225        0.580961 
        1.18424        0.543886        0.519114        0.573489 
        1.19038         0.53694        0.513084        0.567536 
        1.19652        0.533226        0.507153        0.561729 
        1.20267        0.526948        0.501316        0.554218 
        1.20881        0.518782        0.495574        0.549427 
        1.21495        0.514155        0.489931        0.544691 
        1.22108        0.508908        0.484378        0.537673 
         1.2272        0.502315        0.478925        0.531252 
        1.23334        0.497278        0.473545        0.526229 
        1.23949        0.493042        0.468235        0.521484 
        1.24562        0.487274        0.463022        0.515888 
        1.25174          0.4819        0.457897        0.509796 
        1.25789        0.475366        0.452835        0.504392 
        1.26402         0.47167        0.447859        0.499363 
        1.27014        0.465354         0.44297        0.494066 
        1.27628        0.461664        0.438141        0.488879 
        1.28244        0.456876        0.433374        0.484066 
        1.28858        0.451115        0.428686        0.478354 
        1.29471         0.44664        0.424078        0.474183 
        1.30084        0.441872        0.419543        0.470414 
        1.30697        0.438468        0.415068        0.465261 
        1.31312        0.433747        0.410652        0.460388 
        1.31925        0.428998        0.406315        0.456315 
        1.32537        0.424657        0.402046        0.451964 
        1.33151         0.42029        0.397823        0.447397 
        1.33765        0.415687        0.393664         0.44301 
        1.34378        0.410873        0.389574        0.438819 
        1.34992        0.408452        0.385539        0.434714 
        1.35606        0.403557        0.381553        0.429753 
         1.3622        0.399654        0.377631        0.425755 
        1.36833        0.396394        0.373774        0.422096 
        1.37445        0.392742        0.369974         0.41836 
        1.38059        0.388235        0.366215        0.413932 
        1.38675        0.383967          0.3625        0.410027 
        1.39288         0.37956        0.358852        0.405918 
        1.39901        0.377294        0.355256        0.402419 
        1.40515        0.373068        0.351701        0.398509 
         1.4113         0.37037        0.348197        0.395148 
        1.41742        0.366588        0.344755        0.392315 
        1.42355        0.361716        0.341353        0.387239 
         1.4297        0.359943        0.337987        0.384561 
        1.43585        0.355487        0.334668        0.380929 
        1.44198        0.352735        0.331407        0.376203 
        1.44809        0.348875        0.328196        0.374321 
        1.45423        0.346029        0.325016        0.369595 
        1.46036        0.342641        0.321885        0.366793 
        1.46649        0.339438        0.318793        0.364388 
        1.47263        0.335325        0.315741        0.360738 
        1.47877        0.334275         0.31273        0.357546 
        1.48491        0.329398        0.309754        0.354771 
        1.49104         0.32814        0.306823        0.350755 
        1.49718        0.324343        0.303928        0.348594 
        1.50333        0.321693        0.301066        0.344464 
        1.50947        0.319054        0.298248        0.341335 
         1.5156        0.315642         0.29547        0.339186 
        1.52172        0.313271        0.292727        0.335767 
        1.52787        0.309432        0.290014        0.332808 
          1.534        0.307685        0.287339        0.330398 
        1.54013        0.304706        0.284701        0.327495 
        1.54627        0.302326        0.282091        0.324471 
        1.55241        0.299283        0.279514        0.321709 
        1.55855        0.296811        0.276973        0.319036 
        1.56467        0.294443        0.274471         0.31671 
         1.5708         0.29151        0.271993        0.313569 
        1.57695        0.289081        0.269542        0.310613 
        1.58308        0.285547        0.267127        0.308622 
        1.58922         0.28423         0.26474        0.306178 
        1.59535        0.281314        0.262383        0.303386 
         1.6015        0.279328        0.260053        0.300509 
        1.60764        0.276623        0.257751        0.298473 
        1.61376        0.274418        0.255485        0.296817 
        1.61989        0.271824        0.253244        0.294083 
        1.62604        0.269822        0.251025         0.29151 
        1.63218        0.267778        0.248834        0.289254 
        1.63831        0.265265        0.246674         0.28692 
        1.64444        0.263094         0.24454        0.284407 
        1.65059        0.260424        0.242426         0.28204 
        1.65673        0.258675        0.240339        0.279966 
        1.66285        0.256944        0.238283        0.277844 
        1.66898        0.254121        0.236251        0.275442 
        1.67512         0.25223        0.234239        0.273244 
        1.68127        0.250037        0.232248        0.271288 
         1.6874        0.248376        0.230285        0.269375 
        1.69353        0.246337        0.228346         0.26722 
        1.69967        0.243873        0.226425        0.264781 
        1.70581        0.242605        0.224527        0.262686 
        1.71193        0.240782        0.222658        0.260883 
        1.71806        0.238423        0.220806        0.258841 
        1.72421        0.236477        0.218973        0.257167 
        1.73035        0.234657        0.217162        0.255126 
        1.73649        0.232986        0.215372        0.252611 
        1.74262        0.230855        0.213604        0.250735 
        1.74876        0.229474        0.211855        0.249272 
        1.75489        0.227427        0.210129        0.247496 
        1.76101        0.225642        0.208423        0.245364 
        1.76715        0.224194        0.206734        0.243739 
        1.77329        0.221979        0.205061        0.242145 
        1.77943        0.220289        0.203407        0.240249 
        1.78557        0.219199        0.201773        0.238206 
        1.79171        0.217371        0.200157        0.236237 
        1.79785        0.215317        0.198559        0.234627 
        1.80399        0.213405        0.196979        0.233241 
        1.81012        0.212303        0.195418         0.23097 
        1.81625        0.210817        0.193874        0.229101 
        1.82239        0.209478        0.192346        0.228092 
        1.82853        0.207411        0.190834        0.226607 
        1.83466        0.205881        0.189341        0.224735 
        1.84078        0.204389        0.187865        0.222985 
        1.84692        0.202926        0.186402        0.221664 
        1.85306        0.201477        0.184953        0.219864 
         1.8592        0.200092        0.183522        0.217937 
        1.86533        0.198687        0.182108        0.216669 
        1.87147        0.197085        0.180706        0.215294 
        1.87761        0.195428        0.179319        0.213874 
