# k  (h/Mpc)    P(k)  (Mpc/h)^3    P_linear(k)  (Mpc/h)^3     P_NL(k)  ShotnoiseSubtracted = false
     0.00783031         206.519          207.88         207.686 
       0.013688         275.936         278.053         277.195 
       0.019231         299.501         300.418         299.118 
      0.0249154         294.679         295.111         294.213 
      0.0312784         271.172         271.511         271.132 
      0.0375637         242.571         242.875          242.69 
      0.0433917         218.877         218.616         218.609 
      0.0492413         199.161         199.206         199.236 
      0.0555754         184.057         183.752         183.735 
      0.0619321         171.617         172.234         172.183 
       0.067871         162.746         162.919         162.789 
      0.0738098         153.178         153.302         153.101 
      0.0800417         142.038         142.004         141.818 
      0.0862327         129.605          129.71         129.582 
      0.0921407         117.697         117.827         117.754 
      0.0982031         106.639          106.54         106.537 
       0.104506         96.4695         96.6612         96.7075 
       0.110769         88.9372         89.0849          89.117 
       0.116806         83.8364         83.7239         83.7259 
       0.122832         79.5964         79.7431         79.7395 
       0.129052         76.3285           76.35         76.3239 
       0.135211         73.0934         73.0312         72.9895 
       0.141259         69.2852         69.3879         69.3549 
       0.147318         64.9851         65.2497         65.2453 
       0.153489         60.6095         60.7148         60.7031 
       0.159709         56.1762         56.1801         56.2089 
       0.165845         51.8685         52.1082         52.1934 
       0.171974         48.7761         48.6876         48.7747 
       0.178125         46.0516         45.9781         46.0971 
       0.184229          43.857         43.9175         44.0352 
        0.19034         42.3855         42.2819           42.39 
       0.196428         40.8729         40.8382         40.9136 
       0.202534         39.1902         39.3651         39.4416 
       0.208729         37.6953         37.7132         37.7852 
       0.214876         36.0094         35.8947          36.002 
       0.220989         33.8545         33.9801         34.1054 
       0.227147         32.2141         32.0685         32.1997 
        0.23329         30.4827         30.3036         30.4693 
       0.239377          28.986         28.7814          28.968 
       0.245482         27.6846         27.5101         27.6822 
       0.251667         26.5403         26.4549         26.6419 
       0.257832         25.7606         25.5684         25.7498 
       0.263955         24.8689         24.7678         24.9374 
       0.270079          24.064         23.9709         24.1311 
        0.27624         23.1344          23.127         23.2779 
       0.282372         22.2672         22.2323         22.3959 
        0.28843         21.4837         21.3149         21.4859 
       0.294538         20.5429         20.3959         20.5801 
       0.300721         19.5965         19.5148         19.7161 
        0.30691         18.9007         18.7163         18.9222 
       0.313033         18.1783         18.0216          18.225 
       0.319153         17.6984         17.4179         17.6347 
       0.325316         16.9824          16.879         17.1022 
        0.33145         16.4913         16.3844         16.5935 
       0.337538         16.0437         15.9073          16.109 
       0.343633         15.5884         15.4257          15.626 
       0.349808         15.0669         14.9259         15.1335 
       0.355968         14.5443         14.4195         14.6533 
       0.362074          14.099         13.9219         14.1471 
       0.368217         13.6143         13.4394         13.6484 
       0.374374         13.2403         12.9871          13.214 
       0.380519         12.7432         12.5725          12.793 
       0.386598         12.3507         12.1993         12.4274 
       0.392688         11.9926         11.8566         12.0833 
        0.39888         11.6991         11.5304         11.7536 
       0.405048         11.3953         11.2189         11.4307 
       0.411186         11.0761         10.9142         11.1474 
       0.417313         10.7826         10.6108         10.8346 
       0.423458         10.4413         10.3083         10.5366 
       0.429607         10.1954         10.0094         10.2313 
       0.435692         9.92561         9.72178         9.95326 
       0.441815         9.61294         9.44529         9.69009 
       0.447964         9.31596         9.18321         9.42083 
       0.454126         9.11729         8.93648         9.17061 
       0.460267         8.93181         8.70603         8.94584 
       0.466387         8.68598         8.48862         8.71867 
        0.47254         8.49377         8.27869         8.51092 
       0.478662         8.27468         8.07568         8.30383 
       0.484765          8.0812          7.8777          8.1083 
       0.490885         7.86644         7.68241         7.92817 
       0.497035         7.65027         7.48954         7.73687 
       0.503198         7.48634         7.30129         7.53066 
       0.509342         7.28094         7.12009         7.35621 
       0.515458         7.13805         6.94697         7.19353 
       0.521598         6.97084         6.78057         7.00988 
       0.527764         6.84051         6.62099          6.8497 
       0.533884         6.64026         6.46964         6.69991 
           0.54         6.50665         6.32415         6.55042 
       0.546137         6.33963         6.18263         6.41356 
       0.552299         6.21704         6.04404         6.26116 
       0.558452         6.08386         5.90899         6.12932 
       0.564573         5.96207         5.77796         6.01454 
       0.570708          5.8303         5.64999          5.8821 
       0.576825         5.70704         5.52591         5.75429 
       0.582926         5.57506         5.40589         5.63801 
       0.589034         5.48024         5.28967         5.52784 
       0.595184         5.37868         5.17687         5.39517 
       0.601379         5.24588         5.06739         5.30016 
       0.607522         5.13925         4.96243         5.19172 
       0.613639         5.01837         4.86104         5.08742 
       0.619772         4.94341         4.76208         4.99522 
       0.625918         4.84091         4.66537         4.89051 
       0.632068         4.75443         4.57105          4.7933 
       0.638161         4.65675         4.48005         4.70104 
         0.6443         4.56372         4.39082         4.60832 
       0.650464          4.4718         4.30376         4.52947 
       0.656582         4.40804         4.21976         4.44218 
       0.662703         4.32335         4.13807         4.35777 
       0.668861         4.21697         4.05817         4.28408 
       0.675024         4.14865         3.98043         4.20076 
       0.681124         4.11274         3.90561         4.12324 
       0.687237         4.01615         3.83266         4.04281 
       0.693381         3.92103         3.76129         3.96681 
       0.699536         3.87823         3.69165         3.89948 
       0.705665         3.80558         3.62408         3.84393 
       0.711789         3.72266         3.55825         3.77465 
       0.717957         3.65881         3.49357         3.70327 
        0.72409         3.59914         3.43084         3.64083 
       0.730186         3.55308         3.37002         3.57432 
       0.736317         3.47969         3.31035         3.51315 
       0.742472         3.42919         3.25192         3.46562 
       0.748622         3.37405         3.19499         3.40747 
        0.75476         3.30317         3.13959         3.34331 
       0.760888         3.26358         3.08563         3.29114 
       0.767043         3.17823         3.03277         3.24013 
       0.773185         3.13962         2.98128         3.19073 
       0.779291         3.10888         2.93131         3.13926 
       0.785407         3.04799         2.88243         3.08712 
       0.791564         3.00096         2.83438         3.03897 
       0.797719         2.95003         2.78745         2.98452 
       0.803834         2.90284          2.7419         2.94134 
       0.809972         2.85731          2.6972         2.90187 
       0.816124          2.8125         2.65342         2.85086 
       0.822261           2.774         2.61074          2.8071 
       0.828378         2.72438         2.56914          2.7649 
       0.834502         2.68571         2.52841         2.72044 
       0.840667         2.65167         2.48832         2.68236 
       0.846816         2.60854         2.44922         2.64972 
       0.852925         2.56306         2.41123         2.60715 
       0.859047         2.52729         2.37397         2.57434 
       0.865192         2.49048         2.33738         2.53331 
       0.871341         2.45708         2.30155         2.49501 
       0.877463         2.41443         2.26665         2.45765 
       0.883569         2.38129         2.23257         2.42626 
       0.889708         2.35259         2.19903         2.39181 
       0.895864         2.31887         2.16609         2.35643 
       0.902008         2.27836         2.13392         2.32348 
       0.908149         2.25203         2.10242         2.29332 
       0.914301         2.22535         2.07151           2.258 
       0.920448         2.19342         2.04127         2.22576 
       0.926574         2.17014         2.01174         2.19745 
       0.932687         2.13609         1.98287         2.16305 
       0.938823         2.09836         1.95446         2.14276 
       0.944975         2.07716         1.92656         2.10562 
       0.951105          2.0394         1.89931         2.07832 
       0.957225         2.01405         1.87263         2.05621 
       0.963368         1.99375         1.84639         2.02583 
       0.969511         1.97007         1.82065         1.99996 
       0.975621         1.93784         1.79555         1.96773 
       0.981748         1.90425         1.77087         1.94426 
       0.987916         1.88318         1.74649         1.92531 
        0.99406         1.86528         1.72267         1.90151 
        1.00019         1.83927         1.69935         1.87734 
        1.00632         1.82243         1.67649          1.8507 
        1.01246         1.79537         1.65402         1.82631 
        1.01859         1.77252           1.632         1.80531 
        1.02471         1.74373         1.61042         1.78365 
        1.03085         1.72304         1.58915          1.7574 
        1.03698         1.70516         1.56832          1.7352 
        1.04314         1.68515         1.54778         1.71593 
        1.04929         1.66701         1.52766         1.69513 
        1.05541         1.63864         1.50798         1.67711 
        1.06154         1.62398          1.4886         1.65682 
        1.06769         1.60674         1.46954         1.63612 
        1.07382         1.58478         1.45088         1.61673 
        1.07993         1.56592         1.43259          1.5974 
        1.08607         1.54834         1.41454         1.57914 
        1.09222         1.52586         1.39679         1.55868 
        1.09836         1.51284         1.37936         1.54253 
        1.10449         1.48903         1.36226         1.52465 
        1.11063         1.47245         1.34543         1.50458 
        1.11677         1.45885          1.3289         1.48982 
         1.1229         1.43554         1.31268         1.47313 
        1.12903         1.42494         1.29671         1.45574 
        1.13518         1.40485           1.281         1.43986 
        1.14131         1.39151         1.26556         1.42407 
        1.14745         1.37836         1.25039         1.40535 
        1.15359         1.36019         1.23547         1.39155 
        1.15973         1.34675         1.22079         1.37754 
        1.16584         1.32855         1.20641         1.36066 
        1.17197          1.3131         1.19225         1.34591 
        1.17811         1.29819         1.17827         1.33294 
        1.18424         1.28424         1.16456         1.31587 
        1.19038         1.26815         1.15103         1.30244 
        1.19652         1.26001         1.13773         1.28952 
        1.20267         1.24703         1.12463         1.27214 
        1.20881         1.22719         1.11175         1.26135 
        1.21495         1.21735         1.09909         1.25102 
        1.22108         1.20471         1.08664         1.23507 
         1.2272         1.18782          1.0744         1.22018 
        1.23334         1.17803         1.06233         1.20905 
        1.23949         1.16791         1.05042         1.19868 
        1.24562         1.15433         1.03873         1.18584 
        1.25174          1.1421         1.02723         1.17171 
        1.25789         1.12704         1.01587         1.15941 
        1.26402         1.11673         1.00471          1.1479 
        1.27014         1.10269        0.993744         1.13633 
        1.27628         1.09491        0.982909         1.12462 
        1.28244          1.0843        0.972217         1.11332 
        1.28858         1.07028        0.961699         1.10031 
        1.29471         1.05915        0.951362         1.09083 
        1.30084         1.04951        0.941188         1.08269 
        1.30697         1.04204        0.931149         1.07103 
        1.31312         1.03019        0.921243         1.05999 
        1.31925         1.01958        0.911514         1.05088 
        1.32537         1.00973        0.901936         1.04081 
        1.33151        0.999018        0.892463         1.03047 
        1.33765        0.989023        0.883133          1.0205 
        1.34378        0.977258        0.873956         1.01125 
        1.34992        0.972177        0.864904         1.00193 
        1.35606        0.960463        0.855963        0.990228 
         1.3622        0.951719        0.847165        0.981349 
        1.36833        0.943432        0.838512        0.973305 
        1.37445         0.93456        0.829986         0.96472 
        1.38059        0.924745        0.821554         0.95472 
        1.38675        0.915752         0.81322        0.945629 
        1.39288        0.905875        0.805035        0.936598 
        1.39901        0.899224        0.796968        0.928703 
        1.40515        0.889525        0.788994        0.919475 
         1.4113         0.88472        0.781133         0.91183 
        1.41742         0.87402        0.773411        0.905839 
        1.42355        0.862977        0.765779        0.893905 
         1.4297        0.859581        0.758228         0.88831 
        1.43585        0.848766        0.750783        0.880122 
        1.44198         0.84231        0.743467        0.868909 
        1.44809         0.83318        0.736264        0.864942 
        1.45423        0.827279         0.72913        0.853943 
        1.46036        0.819176        0.722104        0.847575 
        1.46649        0.811085         0.71517        0.842321 
        1.47263        0.802906        0.708322        0.833997 
        1.47877        0.800117        0.701567        0.826412 
        1.48491        0.787716         0.69489        0.820399 
        1.49104         0.78536        0.688316        0.811333 
        1.49718        0.775229        0.681822        0.806411 
        1.50333        0.770301        0.675402        0.796831 
        1.50947        0.764103        0.669078        0.789701 
         1.5156        0.756393        0.662846        0.784926 
        1.52172        0.750914        0.656693         0.77712 
        1.52787        0.741885        0.650607        0.770388 
          1.534        0.738019        0.644606        0.764893 
        1.54013         0.73121        0.638687        0.758332 
        1.54627        0.724569        0.632833        0.751429 
        1.55241        0.717347        0.627052        0.745084 
        1.55855        0.711972        0.621351        0.739097 
        1.56467        0.706474        0.615738        0.733796 
         1.5708        0.699515        0.610178        0.726575 
        1.57695        0.693223         0.60468        0.720031 
        1.58308        0.685597        0.599262        0.715628 
        1.58922        0.682784        0.593908        0.709897 
        1.59535        0.675386        0.588622        0.703465 
         1.6015        0.669983        0.583393        0.696954 
        1.60764        0.664873         0.57823        0.692339 
        1.61376        0.659212        0.573145        0.688542 
        1.61989        0.653779        0.568118        0.682348 
        1.62604        0.648019         0.56314         0.67655 
        1.63218        0.644101        0.558225        0.671493 
        1.63831        0.637392        0.553381        0.666155 
        1.64444        0.632831        0.548592        0.660277 
        1.65059        0.627092         0.54385        0.654896 
        1.65673        0.622399        0.539169        0.650278 
        1.66285        0.618087        0.534557        0.645451 
        1.66898        0.612542        0.529997        0.639854 
        1.67512        0.606723        0.525482        0.634886 
        1.68127        0.601381        0.521016        0.630472 
         1.6874        0.598226        0.516613        0.626068 
        1.69353        0.593203        0.512263        0.621092 
        1.69967         0.58814        0.507953        0.615644 
        1.70581        0.584485        0.503695        0.611066 
        1.71193        0.580272        0.499503        0.607001 
        1.71806        0.575245        0.495349        0.602102 
        1.72421        0.570316        0.491235        0.598194 
        1.73035        0.564913        0.487173         0.59358 
        1.73649         0.56309        0.483158        0.587885 
        1.74262        0.556603        0.479192        0.583632 
        1.74876        0.553829        0.475267        0.580327 
        1.75489        0.549356        0.471396        0.576303 
        1.76101        0.544201        0.467569        0.571422 
        1.76715         0.54084        0.463779         0.56763 
        1.77329        0.536477        0.460027        0.563989 
        1.77943        0.532196        0.456316         0.55973 
        1.78557        0.529889        0.452651        0.555094 
        1.79171        0.525466        0.449026        0.550542 
        1.79785         0.52065         0.44544         0.54677 
        1.80399        0.515693        0.441895        0.543551 
        1.81012        0.513218        0.438393        0.538411 
        1.81625        0.510127        0.434931        0.534212 
        1.82239        0.506405        0.431501         0.53198 
        1.82853        0.501898        0.428111        0.528702 
        1.83466        0.498018         0.42476        0.524419 
        1.84078         0.49375        0.421449        0.520304 
        1.84692        0.490841        0.418168        0.517238 
        1.85306        0.487547        0.414918        0.513183 
         1.8592         0.48381        0.411708         0.50885 
        1.86533        0.481078        0.408534        0.505926 
        1.87147        0.476448         0.40539        0.502691 
        1.87761        0.473152        0.402278        0.499427 
