# k  (h/Mpc)    P(k)  (Mpc/h)^3    P_linear(k)  (Mpc/h)^3     P_NL(k)  ShotnoiseSubtracted = false
     0.00783031          9002.8         9038.23         9029.85 
       0.013688         11810.5         12079.5         12016.5 
       0.019231         12871.8         13046.8         12939.3 
      0.0249154         12791.7         12814.1         12688.8 
      0.0312784         11638.2         11787.9         11643.8 
      0.0375637         10329.2         10543.9         10393.4 
      0.0433917         9387.79         9490.34         9324.95 
      0.0492413         8474.14         8647.43         8479.89 
      0.0555754          7859.3         7976.39         7809.27 
      0.0619321         7155.57         7476.28         7303.41 
       0.067871         6851.61         7071.81         6900.44 
      0.0738098            6480         6654.33         6438.04 
      0.0800417         6008.35         6163.85          5953.1 
      0.0862327         5463.83         5630.16         5467.76 
      0.0921407         4977.04         5114.34         4961.11 
      0.0982031         4558.72         4624.42         4528.62 
       0.104506          4094.4         4195.59         4149.23 
       0.110769         3791.97         3866.72         3801.65 
       0.116806         3630.93         3634.02         3570.85 
       0.122832         3417.06         3461.23         3412.76 
       0.129052         3267.63         3313.94         3268.43 
       0.135211         3175.72         3169.88         3123.39 
       0.141259         2974.52         3011.74         2987.69 
       0.147318         2766.63         2832.12         2830.43 
       0.153489         2616.09         2635.28         2610.39 
       0.159709         2496.97         2438.45         2452.14 
       0.165845         2278.24         2261.71         2334.18 
       0.171974         2214.59         2113.24         2196.13 
       0.178125         2133.55         1995.64         2121.52 
       0.184229         1978.46         1906.19         2026.29 
        0.19034         1949.44          1835.2         1957.31 
       0.196428          1897.5         1772.54         1877.59 
       0.202534         1789.26          1708.6         1822.19 
       0.208729         1757.66          1636.9         1737.49 
       0.214876         1689.95         1557.97         1691.78 
       0.220989         1594.53         1474.87         1629.69 
       0.227147         1556.16         1391.89         1561.76 
        0.23329         1496.38         1315.29         1513.45 
       0.239377         1477.45         1249.22         1457.22 
       0.245482         1407.75         1194.04         1394.03 
       0.251667         1356.54         1148.24          1364.5 
       0.257832         1341.84         1109.76         1323.58 
       0.263955         1280.03         1075.01         1286.64 
       0.270079         1247.52         1040.43         1251.39 
        0.27624         1196.56          1003.8         1213.13 
       0.282372         1179.78         964.962         1182.61 
        0.28843         1166.57         925.144         1148.74 
       0.294538         1110.69         885.255         1118.98 
       0.300721         1084.42         847.013         1088.25 
        0.30691         1064.61         812.356          1068.8 
       0.313033         1022.91         782.203         1036.03 
       0.319153         1009.79         756.001         1010.53 
       0.325316         996.293         732.609         995.596 
        0.33145         977.848         711.144         961.866 
       0.337538         945.343         690.436         944.604 
       0.343633         921.307          669.53         934.028 
       0.349808          902.72         647.836         916.467 
       0.355968         886.786         625.858         900.153 
       0.362074         860.536         604.261         880.145 
       0.368217         857.065         583.317         855.959 
       0.374374         843.809         563.686         841.241 
       0.380519         813.873         545.692         823.948 
       0.386598         807.332         529.494         812.823 
       0.392688         791.237         514.621         794.346 
        0.39888         771.455         500.462         783.825 
       0.405048         759.535         486.941         775.156 
       0.411186         756.483         473.716         756.414 
       0.417313         751.608         460.548         742.487 
       0.423458         728.501         447.419         731.784 
       0.429607         709.648         434.443         716.902 
       0.435692         701.629          421.96         704.971 
       0.441815         690.552         409.959         700.798 
       0.447964         679.307         398.584          688.72 
       0.454126         671.123         387.875          672.45 
       0.460267         661.342         377.872         670.134 
       0.466387         652.504         368.436         657.345 
        0.47254         641.448         359.324         650.122 
       0.478662         630.468         350.513         639.538 
       0.484765         625.212          341.92         628.498 
       0.490885         618.636         333.444             620 
       0.497035         607.477         325.072         614.243 
       0.503198         606.712         316.902          605.62 
       0.509342         593.978         309.037         598.023 
       0.515458          583.79         301.523          594.47 
       0.521598          577.27           294.3         585.281 
       0.527764         567.057         287.374         577.918 
       0.533884         564.615         280.805         571.453 
           0.54         557.731          274.49         564.416 
       0.546137         548.131         268.348         557.917 
       0.552299         547.008         262.332         550.572 
       0.558452         539.468         256.471         545.686 
       0.564573          533.23         250.784         541.071 
       0.570708         529.021         245.229         536.377 
       0.576825         518.997         239.844         527.297 
       0.582926         515.952         234.634         521.884 
       0.589034         509.271          229.59         515.016 
       0.595184         505.207         224.694         509.704 
       0.601379         497.172         219.942         506.313 
       0.607522         489.732         215.387         500.597 
       0.613639         487.762         210.986         496.737 
       0.619772         485.415         206.691         494.845 
       0.625918         477.549         202.493          488.79 
       0.632068         473.022         198.399         482.922 
       0.638161         468.191          194.45         477.682 
         0.6443         464.535         190.577         474.745 
       0.650464         459.031         186.798         467.129 
       0.656582          454.92         183.152         463.279 
       0.662703         451.128         179.607         461.776 
       0.668861         445.537         176.139         457.675 
       0.675024         442.069         172.764         453.551 
       0.681124         437.451         169.517         447.083 
       0.687237         434.385         166.351         443.341 
       0.693381         429.484         163.253         439.858 
       0.699536         425.885          160.23         437.043 
       0.705665         421.703         157.298         433.365 
       0.711789         420.541          154.44         429.353 
       0.717957         414.144         151.633         426.819 
        0.72409         410.669          148.91         423.669 
       0.730186         412.183         146.271         420.262 
       0.736317         404.854         143.681         415.684 
       0.742472         400.441         141.145         412.024 
       0.748622         396.704         138.674         408.678 
        0.75476         395.412         136.269         408.012 
       0.760888         391.756         133.927         403.061 
       0.767043         388.646         131.632         400.366 
       0.773185         386.718         129.398         397.363 
       0.779291          380.68         127.229         393.726 
       0.785407         379.404         125.107         391.254 
       0.791564         375.579         123.022         388.739 
       0.797719         370.249         120.985         385.741 
       0.803834         373.003         119.008         383.335 
       0.809972         367.436         117.068         380.591 
       0.816124         363.521         115.168         376.331 
       0.822261         359.945         113.315         374.274 
       0.828378         359.575         111.509          371.44 
       0.834502         354.038         109.742         369.747 
       0.840667         353.905         108.002         367.037 
       0.846816         348.475         106.305         364.608 
       0.852925         348.078         104.656         361.845 
       0.859047         344.461         103.038         359.353 
       0.865192         344.012          101.45         357.111 
       0.871341         339.069         99.8954          354.66 
       0.877463         335.878         98.3805         352.571 
       0.883569          334.43         96.9013          350.46 
       0.889708          331.67         95.4453         347.462 
       0.895864         329.335          94.016         345.567 
       0.902008         327.163         92.6193         343.066 
       0.908149         324.572         91.2522          340.04 
       0.914301         322.767         89.9109         338.577 
       0.920448         320.679         88.5981         335.419 
       0.926574          318.49         87.3165         333.472 
       0.932687         315.964         86.0632         330.768 
       0.938823         313.195         84.8305         330.338 
       0.944975         311.608         83.6193         328.384 
       0.951105         308.999         82.4364         325.729 
       0.957225         305.873         81.2788         323.643 
       0.963368         305.581         80.1397          321.06 
       0.969511         300.332         79.0226         319.073 
       0.975621         300.203         77.9331         318.319 
       0.981748         298.056         76.8616         315.862 
       0.987916          296.38         75.8038         314.437 
        0.99406         293.718           74.77         312.588 
        1.00019         291.567         73.7578         309.631 
        1.00632         291.173         72.7655         307.538 
        1.01246         288.784         71.7901         305.646 
        1.01859         285.161         70.8345         304.207 
        1.02471         283.152         69.8976         303.026 
        1.03085         282.733         68.9747          301.28 
        1.03698          280.22         68.0705          299.69 
        1.04314         279.745          67.179         297.562 
        1.04929         277.388         66.3056         295.415 
        1.05541         274.675         65.4515         293.754 
        1.06154         273.083         64.6105         292.161 
        1.06769         270.365         63.7831         290.602 
        1.07382         270.399         62.9731         288.629 
        1.07993         267.268         62.1792         287.244 
        1.08607         265.155         61.3959         285.675 
        1.09222         264.072         60.6254         283.886 
        1.09836         262.733         59.8691         282.961 
        1.10449          260.38         59.1268         280.994 
        1.11063         258.309         58.3965         279.174 
        1.11677         257.201         57.6788         277.607 
         1.1229          255.18         56.9746         276.381 
        1.12903         254.332         56.2817         274.995 
        1.13518         252.257         55.5999         273.229 
        1.14131         251.386         54.9298         271.755 
        1.14745         248.084         54.2713         270.241 
        1.15359         246.155         53.6236         268.684 
        1.15973         245.641         52.9863         267.072 
        1.16584         244.658         52.3624         264.974 
        1.17197         242.616         51.7477         263.958 
        1.17811         240.459          51.141         263.086 
        1.18424         239.073          50.546         261.621 
        1.19038          237.68         49.9588         260.213 
        1.19652         235.224         49.3813          259.16 
        1.20267         234.795          48.813         257.005 
        1.20881         232.783         48.2538         256.321 
        1.21495         232.171         47.7044         254.196 
        1.22108         230.288         47.1637         253.211 
         1.2272         228.197         46.6328         251.147 
        1.23334         227.309         46.1089         250.288 
        1.23949         226.504         45.5919         249.616 
        1.24562         224.699         45.0843         247.821 
        1.25174             223         44.5853         246.912 
        1.25789         221.229         44.0924         245.488 
        1.26402         220.935         43.6079         243.856 
        1.27014          219.52         43.1319         243.207 
        1.27628         216.934         42.6616         242.341 
        1.28244          216.33         42.1975         240.509 
        1.28858          214.82          41.741         239.163 
        1.29471          213.71         41.2924         237.832 
        1.30084         212.268         40.8508         236.609 
        1.30697         210.617          40.415         235.625 
        1.31312         209.343         39.9851         234.014 
        1.31925         207.968         39.5628         232.675 
        1.32537          207.36         39.1471         231.918 
        1.33151         205.636         38.7359         230.762 
        1.33765         203.936          38.331         229.381 
        1.34378         203.141         37.9327         228.219 
        1.34992         201.993         37.5398         226.951 
        1.35606         200.713         37.1517          225.58 
         1.3622         199.759         36.7698         224.577 
        1.36833         197.558         36.3943         223.588 
        1.37445         197.351         36.0242         222.078 
        1.38059         195.652         35.6582         221.397 
        1.38675         194.436         35.2965         220.212 
        1.39288          193.27         34.9413         218.585 
        1.39901         192.104         34.5911         218.001 
        1.40515         191.068          34.245         217.111 
         1.4113         189.739         33.9038         215.767 
        1.41742         188.122         33.5687         214.771 
        1.42355         188.367         33.2374         214.067 
         1.4297         186.382         32.9097         212.783 
        1.43585         185.211         32.5865         211.677 
        1.44198         183.431          32.269         210.601 
        1.44809         182.476         31.9563         209.495 
        1.45423         181.962         31.6467          208.41 
        1.46036          180.63         31.3418         207.409 
        1.46649         179.441         31.0408         206.722 
        1.47263         178.713         30.7436          206.04 
        1.47877          177.46         30.4504         204.673 
        1.48491         175.839         30.1606          203.67 
        1.49104         174.141         29.8752         202.881 
        1.49718         173.875         29.5934         201.423 
        1.50333         172.853         29.3147         200.614 
        1.50947         171.831         29.0403         199.799 
         1.5156         170.685         28.7698         198.734 
        1.52172         169.676         28.5027          197.82 
        1.52787         168.854         28.2386         196.834 
          1.534         167.762         27.9781         195.802 
        1.54013         166.818         27.7212         194.973 
        1.54627         165.796         27.4671          194.17 
        1.55241         164.742         27.2162         193.179 
        1.55855         163.921         26.9687          192.07 
        1.56467          162.48         26.7251          191.14 
         1.5708         161.524         26.4838         190.577 
        1.57695         160.839         26.2452          189.68 
        1.58308         159.758           26.01          188.51 
        1.58922         158.991         25.7776         187.681 
        1.59535         157.904         25.5482         186.832 
         1.6015         156.386         25.3212         185.854 
        1.60764         155.732         25.0972         184.952 
        1.61376         154.738         24.8764           184.3 
        1.61989         153.976         24.6582         183.604 
        1.62604          152.86         24.4422          182.59 
        1.63218         152.207         24.2288         181.682 
        1.63831         151.087         24.0186           180.9 
        1.64444         150.131         23.8108         179.888 
        1.65059          149.26         23.6049           179.2 
        1.65673          148.44         23.4018         178.386 
        1.66285         147.936         23.2016         177.491 
        1.66898         146.541         23.0037         176.748 
        1.67512         145.917         22.8077          175.99 
        1.68127          144.76         22.6139         175.165 
         1.6874         144.068         22.4227         174.439 
        1.69353         143.228         22.2339         173.828 
        1.69967         142.265         22.0469         172.793 
        1.70581         141.749         21.8621         171.893 
        1.71193         140.476         21.6801         171.183 
        1.71806         139.636         21.4998         170.222 
        1.72421         139.023         21.3213         169.546 
        1.73035         138.135         21.1449         168.832 
        1.73649         136.991         20.9707          167.99 
        1.74262         136.531         20.7985         167.462 
        1.74876         135.518         20.6282         166.661 
        1.75489         134.812         20.4602         165.725 
        1.76101          134.04         20.2941         164.957 
        1.76715         132.891         20.1296         164.216 
        1.77329          132.55         19.9667         163.459 
        1.77943         131.296         19.8056         162.716 
        1.78557         130.845         19.6466         162.035 
        1.79171         130.052         19.4892         161.462 
        1.79785         129.003         19.3336         160.804 
        1.80399         128.504         19.1797         159.917 
        1.81012         127.342         19.0277         159.139 
        1.81625         126.989         18.8775         158.543 
        1.82239         126.161         18.7286          157.94 
        1.82853         125.642         18.5814         157.195 
        1.83466         124.546          18.436         156.374 
        1.84078         123.833         18.2923         155.666 
        1.84692         123.542         18.1499         155.191 
        1.85306         122.439         18.0088         154.485 
         1.8592         121.822         17.8695         153.743 
        1.86533         120.845         17.7317         153.246 
        1.87147         120.381         17.5953          152.39 
        1.87761         119.499         17.4602         151.575 
