# k  (h/Mpc)    Pcb(k)  (Mpc/h)^3    Pcb_linear(k) (Mpc/h)^3    Pcb_NL(k) (Mpc/h)^3   ShotnoiseSubtracted = false
     0.00783031         2533.44         2546.62         2545.26 
       0.013688          3358.1         3404.61         3392.42 
       0.019231          3652.8         3677.77         3657.89 
      0.0249154         3611.88         3612.45         3595.25 
      0.0312784          3309.1         3323.35         3309.55 
      0.0375637         2950.49         2972.72         2959.67 
      0.0433917         2672.97         2675.74         2663.32 
      0.0492413         2423.52         2438.13         2426.06 
      0.0555754         2246.78         2248.96         2236.41 
      0.0619321         2072.06         2107.97         2094.84 
       0.067871         1976.51         1993.94         1980.12 
      0.0738098         1863.66         1876.24         1858.37 
      0.0800417         1730.56         1737.96          1720.6 
      0.0862327         1575.51         1587.48         1574.46 
      0.0921407         1431.26         1442.05         1430.14 
      0.0982031         1302.76         1303.91         1297.42 
       0.104506         1172.49            1183         1181.05 
       0.110769          1082.9         1090.27         1086.22 
       0.116806         1029.78         1024.66         1020.68 
       0.122832         971.433         975.941          973.36 
       0.129052         933.427         934.412         931.798 
       0.135211         899.111         893.795         891.335 
       0.141259         847.818         849.204         848.422 
       0.147318         790.185         798.559         800.663 
       0.153489         741.611         743.058         742.256 
       0.159709         694.776         687.559         690.615 
       0.165845         635.623         637.725         647.134 
       0.171974         609.114         595.861         605.491 
       0.178125         578.139         562.702         576.813 
       0.184229           544.7         537.482         551.798 
        0.19034          531.08         517.466         531.517 
       0.196428         513.571         499.796         510.855 
       0.202534         486.432         481.768         493.696 
       0.208729         473.916         461.552         472.624 
       0.214876         455.838         439.295         454.724 
       0.220989         424.467         415.864         433.092 
       0.227147         411.704         392.468         410.315 
        0.23329         393.189         370.869          392.66 
       0.239377         378.797         352.239         376.001 
       0.245482         360.065          336.68         358.736 
       0.251667          345.41         323.766         347.921 
       0.257832         340.448         312.917         336.712 
       0.263955         324.377         303.119         326.112 
       0.270079         314.382         293.366         315.753 
        0.27624         301.309         283.038         304.577 
       0.282372         292.531         272.088         294.587 
        0.28843         288.466          260.86          283.74 
       0.294538         274.969         249.613         274.193 
       0.300721         262.947          238.83         265.373 
        0.30691         257.715         229.058         256.477 
       0.313033         247.385         220.556         247.461 
       0.319153         243.046         213.167          241.26 
       0.325316         234.189         206.572         235.624 
        0.33145         227.914          200.52         227.969 
       0.337538         221.463          194.68         221.644 
       0.343633         215.091         188.786         216.609 
       0.349808         208.901         182.669         211.158 
       0.355968         203.251         176.472         206.415 
       0.362074         199.095         170.382         200.172 
       0.368217         194.322         164.477         193.183 
       0.374374          190.16         158.941         188.833 
       0.380519         182.073         153.868          183.53 
       0.386598         178.027           149.3         179.191 
       0.392688         173.508         145.106         175.497 
        0.39888         170.312         141.114         170.702 
       0.405048         166.771         137.302         167.363 
       0.411186         163.599         133.573          164.31 
       0.417313         159.515          129.86         159.359 
       0.423458         155.562         126.157           156.1 
       0.429607         152.951         122.499         152.435 
       0.435692         150.138         118.979         149.359 
       0.441815         145.555         115.595         147.184 
       0.447964          141.49         112.388         143.402 
       0.454126         138.927         109.369         139.854 
       0.460267         137.954         106.548          137.83 
       0.466387         134.698         103.887         134.715 
        0.47254         133.163         101.318         132.431 
       0.478662         128.847         98.8334         129.741 
       0.484765         126.858         96.4104         126.776 
       0.490885         123.958         94.0204          125.14 
       0.497035         122.992           91.66         123.179 
       0.503198         119.942          89.356         120.415 
       0.509342         117.067         87.1386         118.546 
       0.515458         115.865         85.0197         117.271 
       0.521598         113.108         82.9833         114.215 
       0.527764         111.908         81.0303         111.587 
       0.533884         110.628         79.1781         109.976 
           0.54         107.965         77.3975         108.305 
       0.546137         105.235         75.6653         107.027 
       0.552299         103.865         73.9694         104.709 
       0.558452         101.971         72.3165         102.845 
       0.564573         101.535         70.7129         101.747 
       0.570708         98.5422         69.1468         100.071 
       0.576825         97.5755         67.6283         98.4459 
       0.582926         96.4075         66.1593         96.9266 
       0.589034         94.8007         64.7372         95.7877 
       0.595184         93.5788         63.3566         94.1828 
       0.601379         91.1677         62.0166          93.088 
       0.607522         90.0804         60.7322         91.1278 
       0.613639         89.1321         59.4912         90.0617 
       0.619772         87.6668         58.2802          88.641 
       0.625918         86.3936         57.0966         87.9179 
       0.632068         85.4577         55.9423         86.2298 
       0.638161         83.8176         54.8286         85.2944 
         0.6443         83.1318         53.7366         83.8248 
       0.650464         81.4163         52.6711         82.6307 
       0.656582         81.0133         51.6431         81.8821 
       0.662703         80.0822         50.6433         80.4449 
       0.668861          78.308         49.6655         79.6491 
       0.675024         77.9338          48.714         78.4486 
       0.681124         76.9141         47.7984          77.405 
       0.687237         75.3969         46.9055         76.3433 
       0.693381          74.708         46.0321         75.3693 
       0.699536          74.118         45.1798         74.8416 
       0.705665         72.8405         44.3529          74.003 
       0.711789         71.7948         43.5473         72.5709 
       0.717957          70.791         42.7557         72.0523 
        0.72409         70.2082          41.988         71.4524 
       0.730186         69.7706         41.2436         70.4107 
       0.736317         68.5368         40.5134         69.4822 
       0.742472         67.8352         39.7983         68.8298 
       0.748622         66.8076         39.1016         67.8663 
        0.75476         65.7178         38.4236         67.1963 
       0.760888         65.5763         37.7632         66.4804 
       0.767043         64.4474         37.1162         65.9707 
       0.773185         63.9584          36.486         65.2544 
       0.779291         63.1785         35.8745         64.6034 
       0.785407         62.2067         35.2763         63.7501 
       0.791564         62.1892         34.6882         63.0403 
       0.797719         61.2656         34.1139         62.4886 
       0.803834         60.6932         33.5564         61.7401 
       0.809972         59.9459         33.0094         61.2162 
       0.816124          59.368         32.4736         60.5781 
       0.822261          58.671         31.9512         59.7757 
       0.828378         58.3243         31.4421         59.0874 
       0.834502         57.6601         30.9437         58.9536 
       0.840667         57.1962         30.4531          58.158 
       0.846816         56.2032         29.9746         57.6537 
       0.852925         56.1011         29.5095         57.3882 
       0.859047         55.5845         29.0535         56.4884 
       0.865192         54.7585         28.6058         56.0223 
       0.871341         54.2284         28.1673         55.5953 
       0.877463         53.8418         27.7402         55.0524 
       0.883569         53.5932         27.3231         54.7073 
       0.889708         52.9779         26.9125         54.0155 
       0.895864         52.3932         26.5095         53.5458 
       0.902008         51.8007         26.1157         53.1252 
       0.908149         51.4801         25.7302         52.7267 
       0.914301         51.1375          25.352         52.3958 
       0.920448         50.6036         24.9818         51.7728 
       0.926574         49.8426         24.6205         51.2254 
       0.932687         49.5629         24.2671         50.8909 
       0.938823         49.0464         23.9195         50.4149 
       0.944975          48.648          23.578         49.9021 
       0.951105         48.2012         23.2444         49.5881 
       0.957225          48.028          22.918         49.2047 
       0.963368           47.41         22.5968         48.7247 
       0.969511         47.0736         22.2819         48.3654 
       0.975621         46.6497         21.9747         48.0496 
       0.981748         46.1641         21.6725         47.6991 
       0.987916         45.8955         21.3742         47.2137 
        0.99406         45.4408         21.0828         46.9153 
        1.00019         45.1309         20.7973         46.5336 
        1.00632         44.7675         20.5175         46.2505 
        1.01246         44.4673         20.2425         45.9258 
        1.01859         44.0003         19.9731         45.5168 
        1.02471         43.5956         19.7089         45.1808 
        1.03085          43.485         19.4487         44.8478 
        1.03698         43.0861         19.1937         44.4808 
        1.04314         42.7459         18.9423         44.0501 
        1.04929         42.3015         18.6961         43.8616 
        1.05541         42.1327         18.4552         43.6626 
        1.06154         41.9141         18.2181         43.1461 
        1.06769         41.3373         17.9848         42.8579 
        1.07382         41.1047         17.7564         42.6603 
        1.07993         40.7316         17.5326         42.2585 
        1.08607          40.507         17.3117         41.9649 
        1.09222         40.2054         17.0944         41.7641 
        1.09836         39.8917         16.8812         41.4429 
        1.10449         39.6717         16.6719          41.086 
        1.11063         39.3541         16.4659         40.9165 
        1.11677         39.2802         16.2636         40.5855 
         1.1229         38.8715          16.065         40.2914 
        1.12903         38.6598         15.8697         40.0646 
        1.13518         38.4197         15.6774         39.6838 
        1.14131         38.0993         15.4885         39.4859 
        1.14745         37.6598         15.3028         39.2638 
        1.15359         37.3927         15.1202           39.04 
        1.15973         37.1394         14.9405         38.7847 
        1.16584         36.9251         14.7645         38.5724 
        1.17197         36.5476         14.5912         38.2882 
        1.17811         36.3783         14.4201         37.9201 
        1.18424         36.0579         14.2524         37.7744 
        1.19038         35.9048         14.0868         37.6088 
        1.19652         35.6548          13.924          37.267 
        1.20267          35.443         13.7637          37.089 
        1.20881         35.2108          13.606          36.919 
        1.21495         34.9524         13.4511         36.7296 
        1.22108         34.9004         13.2987         36.4185 
         1.2272         34.6551          13.149         36.2202 
        1.23334         34.3963         13.0012         36.0638 
        1.23949         34.1422         12.8555         35.7608 
        1.24562         33.8191         12.7123         35.5635 
        1.25174          33.681         12.5716         35.3938 
        1.25789         33.5448         12.4326         35.1529 
        1.26402         33.3552          12.296         34.9294 
        1.27014         33.1129         12.1618         34.7581 
        1.27628         32.8019         12.0292         34.5236 
        1.28244         32.7842         11.8984         34.4552 
        1.28858         32.4398         11.7696         34.1545 
        1.29471          32.229         11.6431         33.9572 
        1.30084         32.0151         11.5186         33.8474 
        1.30697         31.9103         11.3958          33.589 
        1.31312         31.6209         11.2745          33.395 
        1.31925         31.4597         11.1555         33.2789 
        1.32537         31.2628         11.0382         33.1323 
        1.33151         31.0742         10.9223         32.9088 
        1.33765         30.9902         10.8081         32.7438 
        1.34378         30.7766         10.6958         32.5811 
        1.34992         30.6083          10.585         32.4065 
        1.35606          30.392         10.4756         32.2142 
         1.3622         30.1307         10.3679         32.0673 
        1.36833         30.0444          10.262         31.9315 
        1.37445         29.9147         10.1577         31.6901 
        1.38059         29.7044         10.0545         31.5037 
        1.38675         29.4519         9.95249         31.3968 
        1.39288         29.3318         9.85233         31.2225 
        1.39901         29.1788          9.7536         31.0861 
        1.40515         29.0264         9.65601         30.9364 
         1.4113         28.9077         9.55981          30.792 
        1.41742         28.7504          9.4653         30.6394 
        1.42355         28.5193          9.3719         30.3871 
         1.4297         28.3554         9.27949         30.2929 
        1.43585         28.2117         9.18837         30.2023 
        1.44198         28.0929         9.09884         30.0175 
        1.44809         27.9346         9.01068          29.898 
        1.45423         27.7801         8.92337         29.7215 
        1.46036         27.6306         8.83739         29.5476 
        1.46649         27.4492         8.75252         29.4103 
        1.47263         27.3369         8.66871         29.3181 
        1.47877         27.2486         8.58604         29.2369 
        1.48491         27.0675         8.50433         28.9769 
        1.49104         26.8891         8.42387         28.8878 
        1.49718         26.7712         8.34439         28.7768 
        1.50333         26.6668         8.26582         28.6474 
        1.50947         26.5148         8.18844         28.5364 
         1.5156         26.3603         8.11216         28.3894 
        1.52172         26.1926         8.03686         28.2067 
        1.52787         26.0418         7.96238         28.0735 
          1.534          25.995         7.88894         27.9613 
        1.54013         25.8653          7.8165         27.7796 
        1.54627         25.6749         7.74485         27.6518 
        1.55241         25.5417          7.6741         27.5936 
        1.55855          25.431         7.60433         27.4745 
        1.56467         25.3584         7.53563         27.3236 
         1.5708         25.2309         7.46759         27.2365 
        1.57695         25.0554          7.4003         27.1209 
        1.58308         24.8693           7.334         26.9796 
        1.58922         24.7791         7.26847         26.9069 
        1.59535         24.6321         7.20377         26.7904 
         1.6015         24.5054         7.13978         26.6483 
        1.60764         24.4227          7.0766         26.5113 
        1.61376         24.3444         7.01437         26.3866 
        1.61989          24.155         6.95284         26.2967 
        1.62604         24.0772         6.89192         26.2438 
        1.63218          23.948         6.83177         26.1243 
        1.63831         23.8214         6.77248         25.9639 
        1.64444         23.7145         6.71388         25.8836 
        1.65059         23.5813         6.65584         25.7581 
        1.65673         23.5111         6.59855         25.6683 
        1.66285         23.3412         6.54211         25.5813 
        1.66898         23.2867         6.48631          25.444 
        1.67512         23.2083         6.43105         25.3233 
        1.68127         23.0275          6.3764          25.208 
         1.6874         22.9621          6.3225         25.0974 
        1.69353         22.8001         6.26927         25.0055 
        1.69967         22.6971         6.21652         24.9276 
        1.70581         22.6372         6.16441          24.854 
        1.71193         22.4473          6.1131         24.7544 
        1.71806         22.4159         6.06227         24.6156 
        1.72421           22.31         6.01192         24.5409 
        1.73035         22.1689         5.96221         24.4369 
        1.73649         22.0884         5.91307         24.2949 
        1.74262         21.9465         5.86453         24.2476 
        1.74876          21.876          5.8165         24.1553 
        1.75489         21.7941         5.76912         24.0256 
        1.76101         21.6862         5.72228         23.9264 
        1.76715          21.575          5.6759         23.8498 
        1.77329         21.4827         5.62999          23.741 
        1.77943         21.3551         5.58457         23.6546 
        1.78557         21.3083         5.53971         23.6259 
        1.79171         21.1701         5.49535         23.5202 
        1.79785         21.1166         5.45147         23.3935 
        1.80399         20.9895         5.40808         23.3395 
        1.81012         20.9242         5.36522         23.2313 
        1.81625         20.7712         5.32285          23.142 
        1.82239         20.6969         5.28088         23.0936 
        1.82853         20.6311         5.23938         22.9802 
        1.83466         20.4958         5.19837         22.8789 
        1.84078          20.462         5.15785         22.8105 
        1.84692         20.3975         5.11769         22.7215 
        1.85306         20.2815         5.07792         22.6314 
         1.8592          20.195         5.03863         22.5513 
        1.86533          20.035         4.99979         22.4733 
        1.87147         19.9779         4.96131         22.4039 
