# k  (h/Mpc)    Pcb(k)  (Mpc/h)^3    Pcb_linear(k) (Mpc/h)^3    Pcb_NL(k) (Mpc/h)^3   ShotnoiseSubtracted = false
     0.00783031         9809.56         9847.29         9837.49 
       0.013688         12857.1         13160.5         13089.3 
       0.019231         14014.2         14214.3         14092.4 
      0.0249154         13932.3         13960.6         13816.3 
      0.0312784         12667.6         12842.6           12674 
      0.0375637         11238.2         11487.2         11310.8 
      0.0433917         10215.9         10339.4         10144.8 
      0.0492413         9218.39         9421.06         9223.72 
      0.0555754         8548.43         8689.98         8493.46 
      0.0619321         7775.11         8145.12         7942.05 
       0.067871         7446.05         7704.46         7503.52 
      0.0738098         7044.49         7249.63         6996.21 
      0.0800417         6529.92         6715.27         6468.51 
      0.0862327         5938.28         6133.84         5943.52 
      0.0921407         5411.04         5571.87         5392.51 
      0.0982031         4959.07         5038.11         4925.43 
       0.104506         4453.97         4570.92         4515.91 
       0.110769          4126.1         4212.63         4136.57 
       0.116806         3952.11         3959.11         3885.18 
       0.122832         3720.14         3770.86         3713.91 
       0.129052         3554.88          3610.4         3557.19 
       0.135211         3457.31         3453.46         3398.72 
       0.141259          3236.7         3281.16          3252.9 
       0.147318         3011.47         3085.48         3082.35 
       0.153489         2849.31         2871.03         2841.96 
       0.159709         2723.96         2656.59         2672.02 
       0.165845         2485.98         2464.04         2546.81 
       0.171974         2417.58         2302.28         2397.87 
       0.178125          2332.4         2174.16         2318.99 
       0.184229         2160.83         2076.72         2214.25 
        0.19034         2130.94         1999.38         2139.62 
       0.196428         2075.23         1931.11         2053.02 
       0.202534         1957.89         1861.45         1993.17 
       0.208729         1923.14         1783.34         1900.03 
       0.214876         1848.78         1697.34         1851.01 
       0.220989         1748.18         1606.81            1785 
       0.227147         1705.66         1516.41         1712.86 
        0.23329         1640.49         1432.96         1660.75 
       0.239377         1622.62         1360.97         1599.38 
       0.245482         1547.24         1300.86         1530.96 
       0.251667          1491.2         1250.96         1499.21 
       0.257832          1474.3         1209.04         1454.75 
       0.263955         1407.93         1171.18         1414.88 
       0.270079         1373.64          1133.5         1376.61 
        0.27624         1317.47         1093.59         1335.18 
       0.282372         1300.64         1051.29          1303.2 
        0.28843         1284.47          1007.9          1267.4 
       0.294538          1224.2         964.448          1234.5 
       0.300721         1197.28         922.786         1200.33 
        0.30691         1174.25         885.027          1180.4 
       0.313033         1129.15         852.179          1144.9 
       0.319153         1115.67          823.63         1116.39 
       0.325316         1101.57         798.146         1100.61 
        0.33145         1081.25         774.761         1063.48 
       0.337538         1045.92           752.2         1045.44 
       0.343633         1020.27         729.425         1033.96 
       0.349808         1000.64         705.792         1014.97 
       0.355968         982.705         681.845         997.423 
       0.362074          954.02         658.318         975.824 
       0.368217         950.654         635.499         949.774 
       0.374374         936.432         614.111         933.813 
       0.380519         903.903          594.51         915.133 
       0.386598         897.666          576.86         903.094 
       0.392688         879.023         560.658         882.702 
        0.39888         857.973         545.232         871.659 
       0.405048         844.457         530.502         861.667 
       0.411186         841.172         516.094         841.617 
       0.417313         837.236         501.747         827.305 
       0.423458         811.211         487.443         815.266 
       0.429607         789.842         473.308         798.911 
       0.435692         782.202         459.708         785.674 
       0.441815         769.341         446.633          781.65 
       0.447964         758.098          434.24         768.616 
       0.454126         748.696         422.575         750.205 
       0.460267         738.368         411.675         748.211 
       0.466387         728.509         401.396         733.967 
        0.47254         715.625         391.468         726.043 
       0.478662         704.816         381.869          714.88 
       0.484765         698.957         372.507         703.423 
       0.490885         691.267         363.273         693.309 
       0.497035         679.135         354.153         687.066 
       0.503198         678.193         345.251         677.874 
       0.509342          664.89         336.683         668.809 
       0.515458         652.789         328.496         665.115 
       0.521598         647.053         320.628         655.831 
       0.527764         634.649         313.082         647.924 
       0.533884          631.31         305.925         640.648 
           0.54         624.325         299.046         632.985 
       0.546137         614.543         292.353          625.59 
       0.552299          612.66           285.8         617.385 
       0.558452         604.839         279.414         612.252 
       0.564573         597.991         273.218         607.053 
       0.570708         593.638         267.167         601.803 
       0.576825         582.118           261.3         592.023 
       0.582926         579.252         255.624         586.224 
       0.589034         571.819         250.129         578.103 
       0.595184         566.802         244.795         572.915 
       0.601379         558.014         239.617         568.776 
       0.607522         549.892         234.655         562.158 
       0.613639         548.111          229.86         558.431 
       0.619772         545.169         225.181         556.798 
       0.625918         536.161         220.608         549.667 
       0.632068         531.946         216.148         543.869 
       0.638161         526.119         211.845         537.013 
         0.6443         521.739         207.626         534.188 
       0.650464         516.241         203.508         525.727 
       0.656582         511.815         199.537         521.553 
       0.662703         506.943         195.674         519.777 
       0.668861         501.218         191.896         515.639 
       0.675024         497.212         188.219         511.297 
       0.681124         491.529         184.682         503.584 
       0.687237         488.873         181.232          499.52 
       0.693381         482.664         177.857         495.645 
       0.699536          479.47         174.564         492.493 
       0.705665         474.721         171.369         488.106 
       0.711789         473.722         168.256         483.865 
       0.717957         466.286         165.198         481.351 
        0.72409         462.401         162.231         477.546 
       0.730186         463.635         159.356         473.728 
       0.736317         455.739         156.534         468.674 
       0.742472         450.842         153.771         464.626 
       0.748622         447.225         151.079         461.002 
        0.75476         444.783         148.459         460.657 
       0.760888         441.294         145.908         455.001 
       0.767043         438.192         143.408         451.597 
       0.773185         435.835         140.973         448.328 
       0.779291         429.395          138.61         444.293 
       0.785407         427.526         136.299         441.713 
       0.791564         423.629         134.027         439.078 
       0.797719         417.635         131.808         435.309 
       0.803834         420.335         129.654         432.941 
       0.809972         413.911         127.541         430.003 
       0.816124         409.737          125.47         424.632 
       0.822261         406.201         123.452         422.551 
       0.828378         405.157         121.485         419.559 
       0.834502         399.009         119.559         417.741 
       0.840667         398.938         117.663         414.615 
       0.846816         392.925         115.815         411.922 
       0.852925         392.756         114.018          408.96 
       0.859047         388.895         112.256         405.994 
       0.865192         387.795         110.526         403.382 
       0.871341         382.289         108.832         400.878 
       0.877463         379.008         107.181         398.386 
       0.883569         376.756          105.57         395.973 
       0.889708         373.614         103.984         392.571 
       0.895864         370.985         102.426         390.453 
       0.902008         368.991         100.905         387.869 
       0.908149         366.039         99.4154         384.365 
       0.914301          364.03         97.9541         382.461 
       0.920448         361.269         96.5238          379.17 
       0.926574         359.104         95.1276         376.968 
       0.932687         356.334         93.7622         374.072 
       0.938823         352.871         92.4192         373.563 
       0.944975         351.323         91.0996         371.075 
       0.951105         348.472          89.811         367.973 
       0.957225         344.228         88.5497         366.037 
       0.963368         344.455         87.3087         363.301 
       0.969511         338.349         86.0918         360.828 
       0.975621         338.699         84.9048         359.657 
       0.981748         336.088         83.7375         357.033 
       0.987916             334          82.585         355.578 
        0.99406         331.028         81.4587          353.37 
        1.00019         328.185          80.356         349.848 
        1.00632         328.099         79.2749         347.771 
        1.01246         325.307         78.2123         345.639 
        1.01859         321.102         77.1711         343.661 
        1.02471         319.065         76.1505         342.437 
        1.03085          318.65         75.1449         340.733 
        1.03698         315.832         74.1599         338.934 
        1.04314          315.17         73.1886         336.467 
        1.04929         312.479         72.2371         333.986 
        1.05541          308.95         71.3066         332.029 
        1.06154         307.534         70.3904         330.174 
        1.06769         304.428          69.489         328.313 
        1.07382         304.228         68.6066         326.192 
        1.07993          300.96         67.7416         324.683 
        1.08607         298.695         66.8882         322.607 
        1.09222         297.256         66.0487         320.588 
        1.09836         295.809         65.2249         319.699 
        1.10449         293.466         64.4162         317.498 
        1.11063          290.66         63.6205         315.407 
        1.11677         289.009         62.8386         313.674 
         1.1229         287.317         62.0714         312.274 
        1.12903         286.033         61.3165         310.695 
        1.13518         283.604         60.5737         308.649 
        1.14131         282.912         59.8437         307.038 
        1.14745         278.842         59.1263         305.299 
        1.15359          276.94         58.4207         303.571 
        1.15973         276.175         57.7263         301.796 
        1.16584         274.953         57.0466         299.408 
        1.17197         272.603         56.3769         298.334 
        1.17811         270.214          55.716         297.226 
        1.18424          268.63         55.0677          295.69 
        1.19038         267.234          54.428         294.042 
        1.19652         264.201         53.7988         292.721 
        1.20267         264.003         53.1797         290.206 
        1.20881         261.684         52.5705         289.409 
        1.21495         260.755         51.9719         287.161 
        1.22108         258.754         51.3829         285.734 
         1.2272         256.063         50.8044         283.525 
        1.23334         255.102         50.2337          282.43 
        1.23949         254.167         49.6704         281.777 
        1.24562         252.218         49.1174         279.872 
        1.25174         250.337         48.5738         278.739 
        1.25789         248.207         48.0367         277.153 
        1.26402          247.92         47.5089         275.438 
        1.27014         246.385         46.9903         274.296 
        1.27628          243.53          46.478         273.429 
        1.28244         242.827         45.9724          271.67 
        1.28858         241.021         45.4751         270.017 
        1.29471         239.886         44.9863         268.222 
        1.30084          238.27         44.5052         266.938 
        1.30697         235.994         44.0304         265.955 
        1.31312         234.664          43.562         264.236 
        1.31925         233.321          43.102         262.511 
        1.32537         232.509         42.6491         261.549 
        1.33151         230.468         42.2011         260.343 
        1.33765         228.822           41.76         258.736 
        1.34378         227.449          41.326         257.526 
        1.34992         226.038          40.898         255.872 
        1.35606         224.859         40.4752         254.416 
         1.3622         223.514         40.0592         253.298 
        1.36833          221.35           39.65         252.293 
        1.37445         220.938         39.2469          250.43 
        1.38059         219.056         38.8481         249.678 
        1.38675         217.551          38.454         248.483 
        1.39288         216.392          38.067          246.32 
        1.39901         214.941         37.6855         245.682 
        1.40515         213.837         37.3085         244.656 
         1.4113         212.134         36.9368         243.046 
        1.41742         210.374         36.5716         241.914 
        1.42355         210.796         36.2107         241.043 
         1.4297         208.454         35.8537         239.691 
        1.43585         207.091         35.5016         238.561 
        1.44198         205.256         35.1557         237.201 
        1.44809         204.292         34.8151         236.053 
        1.45423          203.41         34.4777          234.65 
        1.46036         201.975         34.1455         233.504 
        1.46649         200.839         33.8176         232.782 
        1.47263         199.795         33.4938         231.966 
        1.47877         198.458         33.1744         230.353 
        1.48491         196.512         32.8587         229.175 
        1.49104          194.84         32.5478         228.285 
        1.49718         194.074         32.2407         226.846 
        1.50333         192.875         31.9371          225.92 
        1.50947         191.988         31.6381          224.98 
         1.5156         190.741         31.3434         223.682 
        1.52172         189.506         31.0525         222.404 
        1.52787          188.49         30.7647         221.473 
          1.534         187.356         30.4809         220.358 
        1.54013         186.222         30.2011         219.351 
        1.54627         185.171         29.9242         218.444 
        1.55241         183.955         29.6508          217.31 
        1.55855         183.164         29.3813         216.078 
        1.56467         181.438         29.1159         215.021 
         1.5708         180.223          28.853         214.218 
        1.57695         179.464          28.593         213.224 
        1.58308         178.158         28.3368         212.052 
        1.58922         177.272         28.0836         211.054 
        1.59535         175.715         27.8336         210.087 
         1.6015         174.598         27.5864         208.915 
        1.60764         173.846         27.3423         207.818 
        1.61376         172.434         27.1018         207.105 
        1.61989         171.552         26.8641         206.324 
        1.62604         170.229         26.6287         205.235 
        1.63218          169.59         26.3963         204.246 
        1.63831         168.565         26.1672         203.312 
        1.64444         167.297         25.9408         202.126 
        1.65059         166.461         25.7166         201.383 
        1.65673         165.193         25.4952         200.441 
        1.66285         164.557         25.2771         199.356 
        1.66898         163.292         25.0615         198.466 
        1.67512         162.409          24.848         197.607 
        1.68127         161.219         24.6368          196.73 
         1.6874         160.393         24.4286         195.955 
        1.69353         159.603         24.2229         195.233 
        1.69967          158.29         24.0191          194.03 
        1.70581         157.775         23.8178         193.012 
        1.71193         156.259         23.6195         192.196 
        1.71806         155.322         23.4231         191.046 
        1.72421         154.682         23.2286         190.332 
        1.73035         153.592         23.0365         189.536 
        1.73649         152.356         22.8467         188.508 
        1.74262         151.777         22.6591         187.938 
        1.74876         150.821         22.4735         187.085 
        1.75489         149.859         22.2905          186.06 
        1.76101         148.815         22.1095         185.213 
        1.76715         147.831         21.9303         184.375 
        1.77329         147.276         21.7529          183.44 
        1.77943         145.919         21.5774         182.513 
        1.78557         145.475         21.4041         181.726 
        1.79171         144.506         21.2327          181.08 
        1.79785         143.467         21.0631         180.336 
        1.80399         142.642         20.8955         179.341 
        1.81012         141.352         20.7299          178.49 
        1.81625         141.127         20.5662         177.821 
        1.82239         139.888          20.404         177.118 
        1.82853         139.384         20.2437         176.272 
        1.83466         138.257         20.0852         175.324 
        1.84078         137.567         19.9287         174.486 
        1.84692         137.133         19.7735         173.929 
        1.85306         135.787         19.6198         173.125 
         1.8592         135.191         19.4681         172.282 
        1.86533         133.984          19.318         171.765 
        1.87147         133.576         19.1693         170.961 
