# k  (h/Mpc)    Pcb(k)  (Mpc/h)^3    Pcb_linear(k) (Mpc/h)^3    Pcb_NL(k) (Mpc/h)^3   ShotnoiseSubtracted = false
     0.00783031         8306.47         8339.95         8332.76 
       0.013688         10907.4         11146.5         11090.6 
       0.019231         11885.9         12039.3           11944 
      0.0249154         11807.1         11824.5         11715.8 
      0.0312784         10749.7         10877.7         10754.6 
      0.0375637         9544.76         9729.76         9601.63 
      0.0433917         8672.96         8757.56         8617.37 
      0.0492413         7831.86         7979.74         7837.92 
      0.0555754         7264.43         7360.52         7218.81 
      0.0619321         6621.15         6899.03         6752.28 
       0.067871         6338.61          6525.8         6379.99 
      0.0738098         5992.87         6140.55         5956.38 
      0.0800417         5558.17         5687.95         5508.38 
      0.0862327         5054.46         5195.47         5057.24 
      0.0921407          4602.6         4719.47         4588.95 
      0.0982031         4213.24         4267.38         4186.23 
       0.104506         3784.21         3871.65         3832.84 
       0.110769         3503.74         3568.18         3512.81 
       0.116806         3353.67         3353.45         3299.76 
       0.122832         3155.62         3193.99         3152.99 
       0.129052         3019.78         3058.08         3019.38 
       0.135211         2932.64         2925.15         2885.91 
       0.141259         2748.35         2779.21         2758.96 
       0.147318         2555.62         2613.46         2613.08 
       0.153489         2415.01         2431.82         2410.72 
       0.159709         2301.12         2250.19         2262.49 
       0.165845         2099.16         2087.09         2150.66 
       0.171974         2039.26         1950.08         2022.03 
       0.178125         1961.77         1841.56            1951 
       0.184229         1821.16         1759.02         1863.98 
        0.19034         1792.79         1693.51         1799.89 
       0.196428         1744.08         1635.69         1726.21 
       0.202534         1643.95         1576.69         1674.63 
       0.208729         1614.82         1510.52         1597.32 
       0.214876         1552.91         1437.68         1554.28 
       0.220989         1462.07            1361         1495.56 
       0.227147         1427.17         1284.43         1431.29 
        0.23329         1371.96         1213.74         1386.09 
       0.239377          1351.9         1152.77         1334.26 
       0.245482         1287.21         1101.85         1275.66 
       0.251667         1240.11         1059.59         1247.97 
       0.257832         1227.26         1024.08         1210.18 
       0.263955         1169.48         992.017          1175.8 
       0.270079         1138.63           960.1         1143.11 
        0.27624          1092.1         926.298         1107.56 
       0.282372         1075.35         890.461         1078.43 
        0.28843         1064.53         853.717         1046.27 
       0.294538         1012.66         816.908         1019.11 
       0.300721         986.882         781.619         991.331 
        0.30691         969.723         749.636         972.207 
       0.313033         931.109         721.814         941.828 
       0.319153         918.326         697.632         918.929 
       0.325316          905.12         676.047         904.729 
        0.33145         888.196         656.239         873.969 
       0.337538         858.345         637.129         857.334 
       0.343633         835.691         617.838         847.452 
       0.349808         818.081         597.821         831.145 
       0.355968         803.687         577.537         815.883 
       0.362074         779.839         557.609         797.266 
       0.368217         776.147         538.281         774.745 
       0.374374         763.541         520.165         761.068 
       0.380519         735.931         503.563         744.999 
       0.386598         729.183         488.613         734.508 
       0.392688         715.049         474.889         717.905 
        0.39888         696.654         461.823         707.648 
       0.405048         686.046         449.346         700.028 
       0.411186         683.047         437.142         682.605 
       0.417313         677.259         424.991         669.035 
       0.423458         656.824         412.874         659.314 
       0.429607         640.288         400.902         645.855 
       0.435692         631.884         389.382         634.987 
       0.441815         622.324         378.307         630.757 
       0.447964         611.064          367.81         619.531 
       0.454126         603.796          357.93         605.006 
       0.460267         594.714         348.698         602.409 
       0.466387         586.651         339.991         590.887 
        0.47254         577.236         331.582         584.173 
       0.478662         566.087         323.451         574.208 
       0.484765         561.298         315.521         563.603 
       0.490885         555.644           307.7         556.433 
       0.497035         545.499         299.975         551.082 
       0.503198         544.691         292.435         543.024 
       0.509342         532.399         285.178         536.562 
       0.515458         523.981         278.243         533.132 
       0.521598         516.879         271.579         524.136 
       0.527764         508.542         265.187         517.196 
       0.533884           506.8         259.125         511.453 
           0.54         499.964         253.298         505.042 
       0.546137         490.596         247.629         499.339 
       0.552299          489.94         242.079         492.621 
       0.558452         482.749          236.67         487.926 
       0.564573         477.223         231.421         483.791 
       0.570708         472.874         226.296         479.446 
       0.576825         464.194         221.326         471.069 
       0.582926         460.972         216.519          466.05 
       0.589034         455.066         211.865           460.3 
       0.595184         451.773         207.346         454.844 
       0.601379         444.313         202.961         452.173 
       0.607522         437.546         198.758         447.115 
       0.613639         435.412         194.696         443.186 
       0.619772         433.423         190.733         440.908 
       0.625918         426.741          186.86         435.919 
       0.632068         421.793         183.082         430.054 
       0.638161         417.706         179.437         426.153 
         0.6443         414.788         175.863         423.057 
       0.650464         409.293         172.376          416.24 
       0.656582         405.523         169.012         412.772 
       0.662703         402.537          165.74         411.266 
       0.668861         397.042          162.54         407.288 
       0.675024         394.254         159.426         403.374 
       0.681124         390.287         156.429         398.089 
       0.687237         387.059         153.507         394.583 
       0.693381         383.126         150.649         391.379 
       0.699536         379.348         147.859         388.774 
       0.705665         375.629         145.153         385.801 
       0.711789         374.121         142.517          381.84 
       0.717957          368.79         139.926         379.369 
        0.72409           365.7         137.414         376.836 
       0.730186         367.123         134.978          373.73 
       0.736317         360.524         132.588         369.593 
       0.742472         356.406         130.248         366.313 
       0.748622         352.662         127.967         363.154 
        0.75476         352.333         125.748         362.169 
       0.760888         348.575         123.587         357.815 
       0.767043         345.444          121.47         355.656 
       0.773185         343.717         119.407             353 
       0.779291         338.253         117.406         349.703 
       0.785407         337.274         115.448         347.245 
       0.791564         333.688         113.524         344.962 
       0.797719          328.98         111.644         342.585 
       0.803834         331.435          109.82         340.074 
       0.809972          326.92          108.03         337.579 
       0.816124         323.197         106.276         334.289 
       0.822261          319.74         104.566         332.202 
       0.828378         319.858           102.9         329.461 
       0.834502         314.771         101.269         327.973 
       0.840667         314.553         99.6634         325.647 
       0.846816         309.897         98.0974         323.304 
       0.852925          309.08         96.5755         320.761 
       0.859047         305.745         95.0831         318.639 
       0.865192         305.632         93.6178         316.696 
       0.871341         301.273         92.1828         314.326 
       0.877463         298.434         90.7849         312.615 
       0.883569         297.581         89.4199         310.695 
       0.889708         295.084         88.0764         308.125 
       0.895864         292.907         86.7574         306.457 
       0.902008         290.612         85.4685         303.967 
       0.908149         288.279          84.207          301.37 
       0.914301          286.83         82.9692          300.25 
       0.920448         285.149         81.7578         297.359 
       0.926574         282.884         80.5751          295.45 
       0.932687         280.803         79.4186         293.055 
       0.938823         278.539          78.281         292.617 
       0.944975         276.823         77.1634          291.07 
       0.951105         274.492         76.0718         288.754 
       0.957225         272.312         75.0035         286.677 
       0.963368         271.491         73.9524         284.218 
       0.969511         267.196         72.9216         282.666 
       0.975621         266.542         71.9162         282.224 
       0.981748         264.743         70.9274         279.842 
       0.987916         263.387         69.9512         278.553 
        0.99406         261.071         68.9973         276.948 
        1.00019         259.451         68.0632         274.436 
        1.00632         258.773         67.1475         272.369 
        1.01246         256.625         66.2475         270.656 
        1.01859         253.724         65.3656         269.653 
        1.02471          251.82         64.5011         268.584 
        1.03085         251.199         63.6494         266.833 
        1.03698         248.989         62.8151          265.33 
        1.04314         248.583         61.9923         263.603 
        1.04929         246.637         61.1864         261.766 
        1.05541         244.533         60.3982         260.336 
        1.06154         242.986         59.6221         258.985 
        1.06769         240.533         58.8587         257.632 
        1.07382         240.468         58.1112         255.868 
        1.07993         237.861         57.3786          254.53 
        1.08607         235.894         56.6557         253.385 
        1.09222         234.961         55.9447         251.829 
        1.09836          233.65         55.2469         250.773 
        1.10449         231.413         54.5619         249.017 
        1.11063         229.939         53.8879         247.375 
        1.11677         229.099         53.2257         246.095 
         1.1229         227.052         52.5758         244.972 
        1.12903         226.421         51.9364         243.703 
        1.13518         224.632         51.3072         242.207 
        1.14131         223.533         50.6889         240.805 
        1.14745         221.037         50.0813         239.518 
        1.15359         219.119         49.4836         238.131 
        1.15973         218.757         48.8955         236.736 
        1.16584         217.861         48.3197         234.985 
        1.17197         216.208         47.7524         233.892 
        1.17811         214.159         47.1926         233.252 
        1.18424         212.998         46.6435         231.837 
        1.19038          211.67         46.1017         230.652 
        1.19652         209.785         45.5687          229.75 
        1.20267          209.09         45.0443         228.018 
        1.20881         207.411         44.5283         227.338 
        1.21495          206.93         44.0213         225.351 
        1.22108         205.167         43.5224         224.761 
         1.2272         203.545         43.0325         222.909 
        1.23334         202.782          42.549         222.169 
        1.23949         202.066         42.0719          221.34 
        1.24562         200.386         41.6035         219.787 
        1.25174         198.768          41.143         218.983 
        1.25789         197.544         40.6882         217.761 
        1.26402         197.122         40.2411         216.288 
        1.27014         195.763         39.8018         215.968 
        1.27628         193.439         39.3679         215.135 
        1.28244         192.947         38.9396         213.286 
        1.28858           191.7         38.5184         212.172 
        1.29471         190.596         38.1043         211.241 
        1.30084         189.339         37.6968         210.101 
        1.30697         188.233         37.2947         209.101 
        1.31312         186.937          36.898         207.652 
        1.31925         185.502         36.5083         206.652 
        1.32537          185.05         36.1247         205.937 
        1.33151         183.639         35.7453         204.874 
        1.33765         181.925         35.3716         203.784 
        1.34378         181.681          35.004         202.611 
        1.34992         180.667         34.6415         201.668 
        1.35606         179.349         34.2834         200.409 
         1.3622          178.69          33.931         199.511 
        1.36833         176.598         33.5844         198.546 
        1.37445         176.411         33.2429         197.312 
        1.38059         174.923         32.9052         196.741 
        1.38675         173.972         32.5714         195.602 
        1.39288         172.784         32.2436         194.419 
        1.39901         171.705         31.9205         193.815 
        1.40515         170.878         31.6011         192.986 
         1.4113         169.904         31.2863         191.913 
        1.41742         168.441         30.9769         191.094 
        1.42355         168.371         30.6713         190.386 
         1.4297         166.776         30.3688         189.228 
        1.43585         165.645         30.0707         188.234 
        1.44198         164.174         29.7776         187.359 
        1.44809         163.182         29.4891         186.348 
        1.45423         162.924         29.2034         185.404 
        1.46036         161.674          28.922         184.556 
        1.46649         160.545         28.6443         183.935 
        1.47263         160.014           28.37         183.291 
        1.47877         158.662         28.0994         182.121 
        1.48491         157.561          27.832         181.301 
        1.49104         155.917         27.5687         180.578 
        1.49718         156.009         27.3086         179.178 
        1.50333         155.025         27.0514         178.538 
        1.50947         154.058         26.7982         177.828 
         1.5156         152.944         26.5486         176.926 
        1.52172         152.075         26.3021          176.28 
        1.52787         151.305         26.0584         175.236 
          1.534         150.539          25.818         174.359 
        1.54013         149.581          25.581          173.64 
        1.54627         148.542         25.3465         172.904 
        1.55241         147.659         25.1149         172.109 
        1.55855         146.908         24.8866         171.088 
        1.56467         145.728         24.6618         170.251 
         1.5708             145         24.4391         169.805 
        1.57695         144.329         24.2189         169.015 
        1.58308         143.372         24.0019         167.942 
        1.58922         142.835         23.7874         167.208 
        1.59535         142.089         23.5757         166.486 
         1.6015         140.434         23.3663          165.68 
        1.60764         139.765         23.1595         164.944 
        1.61376         139.047         22.9558         164.352 
        1.61989         138.377         22.7545         163.654 
        1.62604         137.472         22.5551         162.724 
        1.63218         136.869         22.3582          161.95 
        1.63831         135.718         22.1642         161.357 
        1.64444         134.977         21.9724         160.516 
        1.65059         134.063         21.7825         159.762 
        1.65673         133.555          21.595         159.068 
        1.66285         133.058         21.4103         158.381 
        1.66898         131.712         21.2276         157.703 
        1.67512         131.278         21.0468         157.048 
        1.68127         130.233         20.8679         156.278 
         1.6874         129.563         20.6916         155.557 
        1.69353         128.662         20.5173         155.022 
        1.69967           128.1         20.3447           154.2 
        1.70581         127.568         20.1742         153.412 
        1.71193         126.515         20.0063         152.777 
        1.71806         125.749         19.8399         152.084 
        1.72421         125.084         19.6751         151.418 
        1.73035         124.457         19.5124         150.709 
        1.73649         123.488         19.3516         150.015 
        1.74262         122.961         19.1928         149.518 
        1.74876         122.022         19.0356          148.79 
        1.75489         121.516         18.8805         147.961 
        1.76101         120.775         18.7272         147.265 
        1.76715         119.766         18.5755         146.611 
        1.77329         119.399         18.4252         146.033 
        1.77943         118.364         18.2765         145.457 
        1.78557         117.905         18.1297          144.82 
        1.79171         117.287         17.9846         144.265 
        1.79785         116.337         17.8409          143.69 
        1.80399         115.961         17.6989         142.964 
        1.81012         115.014         17.5587         142.283 
        1.81625          114.55           17.42         141.705 
        1.82239         113.987         17.2826         141.143 
        1.82853         113.347         17.1468         140.522 
        1.83466         112.325         17.0126         139.824 
        1.84078         111.755           16.88         139.205 
        1.84692         111.472         16.7486         138.821 
        1.85306         110.655         16.6184         138.186 
         1.8592         110.151         16.4899         137.504 
        1.86533         109.285         16.3627          137.05 
        1.87147         108.674         16.2368         136.175 
