# k  (h/Mpc)    Pcb(k)  (Mpc/h)^3    Pcb_linear(k) (Mpc/h)^3    Pcb_NL(k) (Mpc/h)^3   ShotnoiseSubtracted = false
     0.00783031          4835.2         4857.45         4854.51 
       0.013688         6381.21         6492.99         6466.17 
       0.019231         6947.68         7013.47         6968.62 
      0.0249154         6885.62         6888.64         6843.66 
      0.0312784         6290.81         6337.19         6292.69 
      0.0375637         5598.28         5668.51         5623.46 
      0.0433917         5079.83         5102.16         5054.93 
      0.0492413         4596.86         4649.04         4601.85 
      0.0555754         4264.32          4288.3         4240.52 
      0.0619321          3910.4         4019.45          3969.7 
       0.067871         3737.85         3802.01          3751.7 
      0.0738098         3528.48         3577.57         3513.57 
      0.0800417          3275.7         3313.89         3251.45 
      0.0862327         2980.05         3026.97         2979.34 
      0.0921407         2709.58         2749.65         2704.87 
      0.0982031         2472.74         2486.25         2459.69 
       0.104506         2222.29          2255.7         2244.47 
       0.110769         2054.81         2078.89         2060.86 
       0.116806         1961.23         1953.78         1936.37 
       0.122832         1846.22         1860.89         1848.25 
       0.129052         1771.97          1781.7         1769.44 
       0.135211         1713.39         1704.25         1692.31 
       0.141259         1610.94         1619.23         1613.58 
       0.147318         1498.27         1522.66         1525.69 
       0.153489         1410.87         1416.83          1410.8 
       0.159709          1332.1         1311.01         1317.74 
       0.165845         1215.64         1215.99         1243.06 
       0.171974         1174.36         1136.16         1165.09 
       0.178125         1121.11         1072.94         1116.57 
       0.184229         1048.37         1024.85         1068.05 
        0.19034         1026.78          986.68         1029.63 
       0.196428         995.809         952.988         987.701 
       0.202534         939.293         918.613         956.256 
       0.208729         920.185         880.065         914.008 
       0.214876         885.684         837.628         884.827 
       0.220989         826.643         792.949         846.523 
       0.227147         805.931          748.34         805.093 
        0.23329         772.953         707.155         775.575 
       0.239377         752.442         671.633         745.063 
       0.245482         714.777         641.965         710.885 
       0.251667         687.322         617.342         692.694 
       0.257832         680.464         596.654         670.937 
       0.263955         646.424         577.973         650.505 
       0.270079         627.265         559.377         630.833 
        0.27624         601.291         539.683         609.417 
       0.282372         587.719         518.804         590.894 
        0.28843         582.781         497.396         570.492 
       0.294538         554.087          475.95         554.179 
       0.300721         534.202          455.39         538.653 
        0.30691         525.602         436.756         523.957 
       0.313033         504.216         420.546         506.277 
       0.319153         495.581         406.457          494.36 
       0.325316         483.548         393.881         484.871 
        0.33145         472.946         382.341         468.427 
       0.337538         457.623         371.207         456.937 
       0.343633         443.977         359.967         449.575 
       0.349808         432.829         348.305         439.729 
       0.355968         423.796         336.487         430.538 
       0.362074         413.297         324.876         419.211 
       0.368217         407.748         313.616          405.92 
       0.374374         399.296         303.061         397.692 
       0.380519          383.54         293.388         387.989 
       0.386598           377.7         284.678         380.398 
       0.392688         369.724         276.682         372.886 
        0.39888         360.973         269.069         364.411 
       0.405048         354.918           261.8         359.791 
       0.411186         351.525          254.69         351.408 
       0.417313         344.691          247.61         341.987 
       0.423458         335.688         240.551         335.955 
       0.429607         329.046         233.575         329.309 
       0.435692          322.68         226.863         323.199 
       0.441815         316.961         220.411         319.936 
       0.447964         308.726         214.295         313.005 
       0.454126         303.986         208.539         305.439 
       0.460267          300.65          203.16         302.636 
       0.466387         295.304         198.087         296.568 
        0.47254         291.803         193.188         292.111 
       0.478662         283.296         188.451         286.721 
       0.484765         280.179          183.83         280.301 
       0.490885         276.468         179.273         277.095 
       0.497035         273.321         174.773         273.802 
       0.503198          269.56          170.38         269.154 
       0.509342         262.501         166.152         265.642 
       0.515458         260.058         162.111         263.452 
       0.521598         254.205         158.228         257.736 
       0.527764         251.408         154.504          252.87 
       0.533884         250.954         150.973         249.956 
           0.54          245.11         147.578         246.742 
       0.546137         239.731         144.275         244.182 
       0.552299         238.272         141.041         239.714 
       0.558452         234.191         137.889         236.377 
       0.564573         232.765         134.832         234.345 
       0.570708         227.732         131.846         231.112 
       0.576825         224.684          128.95         227.103 
       0.582926         222.355         126.149         224.245 
       0.589034         219.564         123.438         222.133 
       0.595184         217.873         120.805         218.705 
       0.601379         212.948          118.25         217.509 
       0.607522         209.971         115.801         213.824 
       0.613639         208.235         113.435         211.689 
       0.619772         206.063         111.126         208.638 
       0.625918          204.37         108.869         207.232 
       0.632068         200.082         106.668         203.748 
       0.638161         197.616         104.544         202.606 
         0.6443         196.991         102.462         199.814 
       0.650464         193.576          100.43         196.416 
       0.656582         192.528         98.4704         195.213 
       0.662703         190.588         96.5641         192.739 
       0.668861         186.974         94.6997         190.933 
       0.675024         186.956         92.8854         188.459 
       0.681124         184.067         91.1395         186.826 
       0.687237         181.262         89.4371         184.509 
       0.693381         180.527         87.7716         182.571 
       0.699536          178.16         86.1465         181.329 
       0.705665         175.734         84.5698         180.197 
       0.711789         173.764         83.0337         176.967 
       0.717957         172.074         81.5244         175.755 
        0.72409         171.133         80.0605         175.092 
       0.730186         170.164         78.6412         173.034 
       0.736317          167.28         77.2488         170.889 
       0.742472         165.428         75.8854          169.42 
       0.748622         163.031         74.5569         167.589 
        0.75476         162.961         73.2641          166.05 
       0.760888         161.692         72.0049         164.156 
       0.767043         159.165         70.7712         163.414 
       0.773185         157.407         69.5697         162.376 
       0.779291         155.777         68.4036         160.744 
       0.785407         154.105          67.263          158.77 
       0.791564         153.625         66.1417         157.642 
       0.797719         152.029         65.0466         156.606 
       0.803834         151.006         63.9836         154.644 
       0.809972          150.35         62.9407          153.62 
       0.816124         148.477          61.919         152.792 
       0.822261         146.685          60.923         151.184 
       0.828378         146.514         59.9521         149.303 
       0.834502         143.965         59.0019         149.024 
       0.840667         143.507         58.0663         148.156 
       0.846816         142.278          57.154          146.47 
       0.852925         140.897         56.2672          145.26 
       0.859047         139.861         55.3977         143.937 
       0.865192         138.449          54.544         143.247 
       0.871341         136.998          53.708         141.808 
       0.877463         136.269         52.8935         141.175 
       0.883569         135.885         52.0982         140.015 
       0.889708         134.806         51.3154         139.003 
       0.895864         133.432          50.547         138.107 
       0.902008          132.45         49.7961         136.802 
       0.908149         130.814         49.0611         135.806 
       0.914301         130.786         48.3399          135.24 
       0.920448         129.863         47.6341         134.105 
       0.926574         127.806          46.945         132.479 
       0.932687         127.428         46.2712         131.835 
       0.938823         126.341         45.6084         130.929 
       0.944975         124.971         44.9573         130.107 
       0.951105         124.128         44.3213         129.261 
       0.957225         124.168         43.6989         128.556 
       0.963368         122.637         43.0865          127.06 
       0.969511          121.55         42.4859         126.399 
       0.975621         120.791         41.9002         126.586 
       0.981748         119.733         41.3241         125.075 
       0.987916         118.883         40.7553         124.584 
        0.99406         118.435         40.1995           123.6 
        1.00019         117.136         39.6553         122.634 
        1.00632         116.581         39.1218          121.98 
        1.01246         115.671         38.5974         120.999 
        1.01859         115.113         38.0836         120.352 
        1.02471         114.018         37.5799         119.876 
        1.03085         113.173         37.0837         118.957 
        1.03698         112.523         36.5976          118.02 
        1.04314         111.771         36.1183         117.433 
        1.04929         111.258         35.6487         117.043 
        1.05541          110.49         35.1895         116.435 
        1.06154         109.818         34.7373         115.621 
        1.06769         108.664         34.2925         114.994 
        1.07382         107.962          33.857         114.238 
        1.07993         107.561         33.4302         113.474 
        1.08607         106.579          33.009         112.773 
        1.09222         106.292         32.5948         111.907 
        1.09836         105.167         32.1882         111.376 
        1.10449         104.655         31.7891         110.731 
        1.11063         103.797         31.3964         109.863 
        1.11677          103.38         31.0106         109.317 
         1.1229         102.505          30.632         109.058 
        1.12903         102.285         30.2594         108.208 
        1.13518         101.754         29.8929         107.637 
        1.14131         100.955         29.5326         107.027 
        1.14745         99.9755         29.1786          106.44 
        1.15359         99.1378         28.8303         106.036 
        1.15973         98.9423         28.4877         105.364 
        1.16584         98.2496         28.1522         104.745 
        1.17197         97.4089         27.8217         104.173 
        1.17811           96.92         27.4956          103.42 
        1.18424         96.0815         27.1757          102.92 
        1.19038         96.0387           26.86         102.699 
        1.19652          95.412         26.5495         101.791 
        1.20267         94.6191         26.2439         101.472 
        1.20881          93.988         25.9433         100.823 
        1.21495         93.6475         25.6479         100.321 
        1.22108         93.0141         25.3572         99.8462 
         1.2272         92.3178         25.0718         99.3865 
        1.23334         91.8672         24.7901         98.8137 
        1.23949         91.3731         24.5121         98.1679 
        1.24562         90.5993         24.2392         97.7805 
        1.25174         90.0737         23.9709         97.3758 
        1.25789         90.2014         23.7059         96.8247 
        1.26402         89.2865         23.4454         96.2496 
        1.27014         88.7812         23.1895         95.8864 
        1.27628         88.0093         22.9367         95.4372 
        1.28244         87.7057         22.6872         94.7921 
        1.28858         87.2138         22.4417         94.3551 
        1.29471         86.7793         22.2005         94.0849 
        1.30084         86.0852         21.9631         93.2893 
        1.30697         86.0276         21.7288         92.8128 
        1.31312         85.1866         21.4977         92.6657 
        1.31925         84.7382         21.2706         92.0987 
        1.32537         84.2538         21.0471         91.5581 
        1.33151          83.955         20.8261         91.2167 
        1.33765         83.3098         20.6084          90.805 
        1.34378         83.1334         20.3942         90.2748 
        1.34992         82.5145          20.183         89.9143 
        1.35606         81.9666         19.9743         89.5413 
         1.3622         81.4921          19.769         89.0898 
        1.36833         80.9548         19.5671         88.4675 
        1.37445         80.3845         19.3682         88.1552 
        1.38059         80.1818         19.1714         88.0201 
        1.38675         79.3937         18.9769         87.3008 
        1.39288         79.3518         18.7859         87.0862 
        1.39901         78.6438         18.5977         86.6346 
        1.40515         78.3767         18.4116         86.2025 
         1.4113         78.1028         18.2281         85.9136 
        1.41742          77.658         18.0479         85.5513 
        1.42355          76.983         17.8698         84.9083 
         1.4297         76.5966         17.6936         84.5308 
        1.43585         76.0823         17.5199         84.3134 
        1.44198         75.6659         17.3492         84.0503 
        1.44809         75.2882         17.1811         83.3084 
        1.45423         74.9081         17.0146         83.0166 
        1.46036         74.4108         16.8507         82.7622 
        1.46649         74.3383         16.6889         82.4794 
        1.47263         73.7812          16.529         82.1532 
        1.47877         73.4436         16.3714         81.6342 
        1.48491         73.1055         16.2156         81.2799 
        1.49104         72.5157         16.0622         80.8002 
        1.49718         72.1613         15.9107         80.4627 
        1.50333         71.9256         15.7608         80.2176 
        1.50947         71.3917         15.6133         79.9203 
         1.5156         71.1002         15.4678         79.5874 
        1.52172         70.6194         15.3243         79.2361 
        1.52787         70.2035         15.1823         78.8509 
          1.534         69.9985         15.0422         78.5707 
        1.54013         69.6306         14.9041         78.2007 
        1.54627         69.0522         14.7675         77.8047 
        1.55241         68.6859         14.6326         77.4939 
        1.55855         68.5169         14.4995         77.1455 
        1.56467         67.9999         14.3685         76.7383 
         1.5708         67.7731         14.2388         76.5593 
        1.57695         67.4148         14.1105         76.3312 
        1.58308         66.9196         13.9841         75.9014 
        1.58922         66.6399         13.8591         75.6038 
        1.59535         66.4052         13.7358         75.3129 
         1.6015         66.2666         13.6138         74.9238 
        1.60764         65.8204         13.4933         74.6177 
        1.61376         65.3615         13.3746          74.399 
        1.61989         64.9151         13.2573         73.9828 
        1.62604         64.6807         13.1411         73.6401 
        1.63218         64.3674         13.0265         73.3884 
        1.63831         64.1635         12.9134         73.1098 
        1.64444         63.6808         12.8017         72.7781 
        1.65059         63.5118          12.691         72.4747 
        1.65673         62.9374         12.5818         72.1395 
        1.66285         62.8458         12.4741         71.8657 
        1.66898          62.183         12.3677         71.7131 
        1.67512         62.1739         12.2624         71.4722 
        1.68127          61.765         12.1582         71.0604 
         1.6874         61.4087         12.0554         70.6286 
        1.69353         61.1779         11.9539         70.3787 
        1.69967         60.9391         11.8533         70.2143 
        1.70581          60.463          11.754         70.0618 
        1.71193         60.1891         11.6561         69.7828 
        1.71806         59.9383         11.5592         69.2843 
        1.72421         59.6504         11.4632         68.9509 
        1.73035         59.3271         11.3684         68.8579 
        1.73649         58.9734         11.2747         68.7213 
        1.74262         58.5514         11.1822          68.183 
        1.74876         58.2756         11.0906         67.8704 
        1.75489         58.0086         11.0003         67.7161 
        1.76101         57.7426         10.9109         67.4442 
        1.76715         57.6425         10.8225         67.1443 
        1.77329         57.0943          10.735         66.9019 
        1.77943         57.0832         10.6484         66.6644 
        1.78557         56.7569         10.5628         66.3715 
        1.79171         56.4216         10.4782         66.0842 
        1.79785         56.1062         10.3946         65.8845 
        1.80399          55.821         10.3118         65.7292 
        1.81012         55.5848         10.2301         65.2973 
        1.81625         55.2146         10.1493         64.9323 
        1.82239         54.9706         10.0693          64.832 
        1.82853          54.823         9.99017         64.6939 
        1.83466          54.439         9.91198         64.3805 
        1.84078          54.144         9.83471         64.0455 
        1.84692         53.8256         9.75815         63.9396 
        1.85306         53.5952         9.68231         63.7214 
         1.8592         53.4275          9.6074         63.4069 
        1.86533         53.1373         9.53333         63.2281 
        1.87147         52.8525         9.45997         62.9869 
