# k  (h/Mpc)    Pcb(k)  (Mpc/h)^3    Pcb_linear(k) (Mpc/h)^3    Pcb_NL(k) (Mpc/h)^3   ShotnoiseSubtracted = false
     0.00783031         7221.19         7251.39          7245.8 
       0.013688         9496.05            9692         9646.11 
       0.019231         10345.5         10468.4         10390.6 
      0.0249154         10270.4         10281.8         10195.8 
      0.0312784         9360.26         9458.58         9364.14 
      0.0375637         8316.45         8460.44         8362.64 
      0.0433917         7554.15         7615.09         7508.99 
      0.0492413         6825.57         6938.76         6831.69 
      0.0555754          6331.8         6400.33         6293.02 
      0.0619321         5780.86         5999.05         5887.74 
       0.067871          5532.2         5674.51          5563.5 
      0.0738098         5227.99         5339.52         5199.09 
      0.0800417         4850.47         4945.97         4808.97 
      0.0862327         4411.14         4517.73         4412.48 
      0.0921407         4014.88         4103.83          4004.4 
      0.0982031         3671.93         3710.71         3649.52 
       0.104506         3298.32         3366.61            3338 
       0.110769         3052.65         3102.72         3060.81 
       0.116806         2919.96            2916         2875.41 
       0.122832         2747.21         2777.35         2746.64 
       0.129052         2631.57         2659.16         2629.97 
       0.135211         2552.64         2543.57          2514.3 
       0.141259         2394.35         2416.67         2401.73 
       0.147318         2225.97         2272.54         2273.77 
       0.153489         2101.41          2114.6         2098.88 
       0.159709          1997.1         1956.66         1967.09 
       0.165845         1821.58         1814.84         1865.84 
       0.171974         1767.47          1695.7         1752.48 
       0.178125         1696.54         1601.34         1687.75 
       0.184229         1577.87         1529.57         1613.14 
        0.19034         1551.04          1472.6         1556.88 
       0.196428         1507.64         1422.32         1492.88 
       0.202534          1420.7         1371.01         1447.41 
       0.208729         1395.01         1313.48         1381.39 
       0.214876         1341.94         1250.14         1342.56 
       0.220989         1259.67         1183.46         1289.66 
       0.227147         1229.68         1116.88         1231.82 
        0.23329         1181.52         1055.42         1191.48 
       0.239377         1160.42          1002.4         1146.42 
       0.245482         1103.86         958.121         1095.21 
       0.251667         1063.03         921.371         1070.43 
       0.257832         1052.63         890.495         1037.62 
       0.263955         1001.63         862.613         1007.42 
       0.270079         973.975          834.86         978.735 
        0.27624         934.052         805.467          947.47 
       0.282372         917.835         774.304         921.135 
        0.28843         909.804         742.353         892.157 
       0.294538          864.75         710.346         868.707 
       0.300721          840.23         679.661         845.163 
        0.30691         826.449          651.85         826.951 
       0.313033             793         627.657         800.437 
       0.319153         781.132         606.629         781.285 
       0.325316         768.301          587.86         768.428 
        0.33145         753.521         570.636         742.207 
       0.337538         728.053         554.019         726.827 
       0.343633         707.811         537.244         717.867 
       0.349808         692.027         519.838         703.564 
       0.355968         679.609         502.201         690.057 
       0.362074         659.889         484.872         673.672 
       0.368217         655.671         468.065         653.941 
       0.374374           644.1         452.312         641.901 
       0.380519         620.197         437.875         627.802 
       0.386598         613.501         424.876         618.175 
       0.392688         601.759         412.942         604.587 
        0.39888         586.009          401.58         594.695 
       0.405048         577.155         390.731         588.356 
       0.411186          574.15         380.119         573.428 
       0.417313          567.37         369.553         560.779 
       0.423458         550.873         359.017         552.298 
       0.429607         537.776         348.606         541.133 
       0.435692         529.264         338.589         531.793 
       0.441815         521.611         328.959         527.734 
       0.447964         510.777         319.831         517.864 
       0.454126         504.518          311.24          505.71 
       0.460267         497.013         303.212         502.868 
       0.466387          489.91         295.641         493.203 
        0.47254         482.781         288.329          487.16 
       0.478662         471.871         281.259         478.474 
       0.484765         467.668         274.363         468.885 
       0.490885         463.076         267.562         463.347 
       0.497035         454.901         260.845         458.626 
       0.503198         453.502         254.288         451.611 
       0.509342         442.269         247.978         446.412 
       0.515458         436.294         241.948         443.288 
       0.521598         428.958         236.153         435.031 
       0.527764         422.941         230.595         428.715 
       0.533884         421.988         225.324         423.997 
           0.54         415.285         220.257         418.636 
       0.546137         406.744         215.327         414.072 
       0.552299         406.222         210.501           408.1 
       0.558452         399.885         205.797         403.758 
       0.564573         395.656         201.234          400.32 
       0.570708         390.905         196.777         396.326 
       0.576825         384.186         192.455         389.202 
       0.582926         380.897         188.275         384.889 
       0.589034         376.186         184.228         380.631 
       0.595184          373.77         180.299           375.3 
       0.601379         367.148         176.486         373.574 
       0.607522         361.493         172.831         369.166 
       0.613639         359.296         169.299         365.465 
       0.619772         357.451         165.853         362.629 
       0.625918         352.617         162.485         359.141 
       0.632068         347.268           159.2         353.664 
       0.638161          343.98          156.03         351.254 
         0.6443         342.107         152.923         348.044 
       0.650464         336.886          149.89         342.422 
       0.656582         333.884         146.965         339.667 
       0.662703         331.615          144.12          337.83 
       0.668861         326.458         141.337         334.341 
       0.675024         324.842          138.63         330.791 
       0.681124         321.315         136.024         327.188 
       0.687237          318.24         133.483         323.972 
       0.693381         315.371         130.997         321.156 
       0.699536         311.761         128.572         318.831 
       0.705665         308.633         126.219         316.819 
       0.711789         306.653         123.926         312.878 
       0.717957         302.815         121.673         310.673 
        0.72409         300.423         119.489         308.998 
       0.730186         301.159          117.37         306.262 
       0.736317         295.938         115.292         302.792 
       0.742472         292.248         113.257         300.134 
       0.748622         288.736         111.275         297.278 
        0.75476         289.259         109.345         295.889 
       0.760888         285.829         107.466         292.374 
       0.767043         282.739         105.625         290.812 
       0.773185         281.004         103.831           288.8 
       0.779291         276.822         102.091         286.042 
       0.785407          275.76         100.389         283.575 
       0.791564         272.987          98.715         281.761 
       0.797719         269.291         97.0808         280.049 
       0.803834         270.686         95.4942         277.467 
       0.809972         267.914         93.9377         275.467 
       0.816124         264.599         92.4128          273.33 
       0.822261         261.604         90.9263         271.263 
       0.828378         261.989         89.4773         268.645 
       0.834502          257.53         88.0591         267.587 
       0.840667         257.235         86.6628          265.87 
       0.846816         253.926         85.3011         263.522 
       0.852925         252.498         83.9777         261.419 
       0.859047         249.759           82.68         259.716 
       0.865192          249.58         81.4058         258.183 
       0.871341         246.137          80.158         256.034 
       0.877463          244.09         78.9425         254.841 
       0.883569         243.716         77.7555         253.082 
       0.889708         241.686         76.5872         251.209 
       0.895864         239.622         75.4403         249.876 
       0.902008         237.499         74.3196         247.469 
       0.908149         235.334         73.2226         245.487 
       0.914301         234.669         72.1463         244.692 
       0.920448         233.294         71.0929          242.44 
       0.926574         230.853         70.0645         240.445 
       0.932687         229.583         69.0589         238.631 
       0.938823          227.85         68.0697         238.095 
       0.944975         225.915         67.0978         236.919 
       0.951105         224.218         66.1486          235.01 
       0.957225         223.156         65.2197         233.302 
       0.963368         221.567         64.3057         231.077 
       0.969511         218.714         63.4093         230.008 
       0.975621         217.718         62.5351         229.954 
       0.981748         216.112         61.6753         227.667 
       0.987916         215.068         60.8265         226.702 
        0.99406         213.455         59.9969         225.306 
        1.00019         212.158         59.1847         223.339 
        1.00632          211.37         58.3885         221.599 
        1.01246         209.533         57.6058         220.094 
        1.01859         207.559          56.839          219.46 
        1.02471         206.052         56.0872         218.648 
        1.03085         205.131         55.3467         217.076 
        1.03698         203.395         54.6212         215.602 
        1.04314         202.854         53.9057          214.48 
        1.04929         201.622          53.205         213.176 
        1.05541         200.066         52.5196         212.012 
        1.06154         198.882         51.8447         210.978 
        1.06769          196.81         51.1809         209.814 
        1.07382         196.284         50.5309         208.452 
        1.07993         194.797         49.8939         207.222 
        1.08607         193.072         49.2653         206.411 
        1.09222         192.284          48.647         205.169 
        1.09836         190.908         48.0402         203.978 
        1.10449         189.192         47.4446         202.617 
        1.11063         188.163         46.8585         201.197 
        1.11677          187.44         46.2826          200.34 
         1.1229         185.771         45.7176         199.444 
        1.12903         185.236         45.1616         198.265 
        1.13518         183.845         44.6145         197.144 
        1.14131         182.753         44.0768         195.895 
        1.14745         181.105         43.5484         194.908 
        1.15359         179.425         43.0287         193.776 
        1.15973         179.004         42.5173         192.843 
        1.16584         178.153         42.0166         191.573 
        1.17197         177.069         41.5234         190.443 
        1.17811         175.372         41.0366         189.968 
        1.18424         174.443         40.5591         188.781 
        1.19038         173.585          40.088         187.888 
        1.19652         172.081         39.6245         186.975 
        1.20267         171.263         39.1685         185.861 
        1.20881         170.068         38.7198         185.187 
        1.21495         169.684          38.279         183.564 
        1.22108         168.121         37.8451         183.219 
         1.2272         166.964         37.4191         181.861 
        1.23334         166.436         36.9987         181.194 
        1.23949         165.807         36.5838         180.154 
        1.24562         164.285         36.1765         179.157 
        1.25174         162.824         35.7761         178.367 
        1.25789         162.411         35.3806         177.484 
        1.26402         161.684         34.9918         176.357 
        1.27014         160.535         34.6099          176.24 
        1.27628         158.686         34.2325         175.524 
        1.28244         158.438         33.8601         173.788 
        1.28858         157.231         33.4938         172.946 
        1.29471         156.275         33.1338         172.433 
        1.30084         155.408         32.7795         171.406 
        1.30697         154.848         32.4298          170.52 
        1.31312          153.67         32.0848         169.472 
        1.31925         152.354          31.746         168.734 
        1.32537         151.923         31.4124         168.009 
        1.33151         151.063         31.0825         167.183 
        1.33765         149.486         30.7575          166.46 
        1.34378         149.604         30.4379         165.396 
        1.34992         148.772         30.1227         164.756 
        1.35606         147.563         29.8113          163.74 
         1.3622         147.132         29.5048         163.014 
        1.36833         145.429         29.2035         162.148 
        1.37445         145.131         28.9066         161.195 
        1.38059         144.169         28.6129         160.812 
        1.38675          143.24         28.3226         159.779 
        1.39288         142.388         28.0376         159.119 
        1.39901         141.259         27.7566         158.457 
        1.40515         140.944         27.4789         157.712 
         1.4113         140.146         27.2051         157.005 
        1.41742         139.028         26.9362         156.367 
        1.42355         138.573         26.6704         155.541 
         1.4297         137.534         26.4074         154.698 
        1.43585         136.493         26.1481         153.998 
        1.44198         135.605         25.8933         153.352 
        1.44809         134.661         25.6424         152.448 
        1.45423          134.32          25.394         151.618 
        1.46036         133.304         25.1493         151.008 
        1.46649         132.467         24.9078         150.557 
        1.47263          132.13         24.6693         149.965 
        1.47877         130.943          24.434         148.952 
        1.48491         130.136         24.2015         148.445 
        1.49104         128.889         23.9725          147.78 
        1.49718         129.021         23.7463         146.682 
        1.50333         128.149         23.5227         146.254 
        1.50947         127.492         23.3025         145.667 
         1.5156         126.612         23.0854         144.956 
        1.52172         125.843         22.8712          144.51 
        1.52787         125.032         22.6592         143.534 
          1.534         124.668         22.4502          142.92 
        1.54013         123.856          22.244         142.295 
        1.54627         122.845         22.0402         141.674 
        1.55241         122.202         21.8388         141.159 
        1.55855         121.609         21.6403         140.241 
        1.56467          120.59         21.4448         139.565 
         1.5708         120.249         21.2511         139.175 
        1.57695         119.649         21.0596         138.553 
        1.58308         118.882          20.871         137.803 
        1.58922         118.518         20.6845         137.181 
        1.59535         117.883         20.5004         136.592 
         1.6015         116.912         20.3183         135.966 
        1.60764         116.126         20.1385          135.47 
        1.61376         115.469         19.9614         135.022 
        1.61989          114.88         19.7863         134.287 
        1.62604         114.229         19.6129         133.572 
        1.63218         113.806         19.4417         133.017 
        1.63831         112.821          19.273         132.592 
        1.64444         112.276         19.1062         132.018 
        1.65059         111.522         18.9411         131.175 
        1.65673         110.883          18.778         130.679 
        1.66285         110.402         18.6174         130.268 
        1.66898         109.539         18.4586         129.599 
        1.67512         109.292         18.3014         129.138 
        1.68127         108.469         18.1458         128.516 
         1.6874           107.9         17.9925          127.79 
        1.69353         107.088          17.841         127.291 
        1.69967         106.847         17.6909         126.813 
        1.70581         106.262         17.5426         126.196 
        1.71193         105.522         17.3965         125.625 
        1.71806         104.736         17.2519         125.332 
        1.72421         104.258         17.1086         124.718 
        1.73035         103.924         16.9671         124.033 
        1.73649         103.161         16.8273         123.543 
        1.74262         102.434         16.6892         123.099 
        1.74876         101.952         16.5525         122.524 
        1.75489         101.312         16.4176         121.906 
        1.76101         100.697         16.2844          121.33 
        1.76715          100.17         16.1524         120.754 
        1.77329         99.5805         16.0217         120.359 
        1.77943         99.0676         15.8924         119.934 
        1.78557         98.6544         15.7648         119.288 
        1.79171         98.0123         15.6386         118.809 
        1.79785         97.3538         15.5137         118.414 
        1.80399         96.9049         15.3902          117.87 
        1.81012         96.2084         15.2682         117.378 
        1.81625         95.9188         15.1477         116.879 
        1.82239         95.5754         15.0282         116.359 
        1.82853         94.7615         14.9101         115.941 
        1.83466          94.115         14.7934         115.397 
        1.84078          93.719         14.6781         114.852 
        1.84692         93.3711         14.5638          114.62 
        1.85306         92.7975         14.4506          114.13 
         1.8592         92.3571         14.3388         113.508 
        1.86533         91.7088         14.2283         113.107 
        1.87147         91.1255         14.1188           112.4 
