# k  (h/Mpc)    P(k)  (Mpc/h)^3    P_linear(k)  (Mpc/h)^3     P_NL(k)  ShotnoiseSubtracted = false
     0.00783031         1275.87         1283.17         1282.38 
       0.013688         1696.64         1715.74         1710.06 
       0.019231         1844.04          1853.5         1844.49 
      0.0249154         1819.92         1820.64         1813.66 
      0.0312784         1670.54         1674.97         1670.56 
      0.0375637         1491.54         1498.28         1494.59 
      0.0433917         1349.28         1348.61         1345.72 
      0.0492413         1225.14         1228.85         1226.22 
      0.0555754         1134.69         1133.51         1130.59 
      0.0619321         1051.06         1062.46         1059.35 
       0.067871         1000.52         1004.99         1001.44 
      0.0738098         942.664         945.666         940.931 
      0.0800417         875.083         875.969         871.413 
      0.0862327         797.291         800.129         796.781 
      0.0921407          724.02         726.826         723.939 
      0.0982031         657.761         657.202         655.832 
       0.104506         592.983          596.26         596.158 
       0.110769         547.225         549.525         548.852 
       0.116806         518.619         516.455         515.713 
       0.122832          490.39         491.899         491.495 
       0.129052         471.099         470.968         470.489 
       0.135211         452.582         450.496         450.036 
       0.141259         427.684         428.022         427.986 
       0.147318         399.548         402.495          403.29 
       0.153489         374.018         374.521         374.548 
       0.159709         348.564         346.548         347.644 
       0.165845         319.894         321.431         324.294 
       0.171974         304.263          300.33         303.207 
       0.178125         287.898         283.617         287.704 
       0.184229         272.631         270.906         275.096 
        0.19034         264.901         260.817         264.896 
       0.196428         255.703         251.911         255.097 
       0.202534         243.293         242.824         246.225 
       0.208729         235.798         232.634         235.861 
       0.214876         226.354         221.417         225.867 
       0.220989         211.196         209.607         214.539 
       0.227147         203.485         197.815         202.869 
        0.23329         193.534         186.928         193.112 
       0.239377         185.234         177.538         184.345 
       0.245482         176.379         169.696         175.998 
       0.251667         168.976         163.187         170.075 
       0.257832         165.597         157.719         164.498 
       0.263955         158.583          152.78         159.279 
       0.270079         153.594         147.865         154.141 
        0.27624         147.264         142.659         148.656 
       0.282372          142.36          137.14         143.477 
        0.28843         139.228         131.481         137.968 
       0.294538         132.952         125.812         132.757 
       0.300721         126.741         120.377         127.896 
        0.30691         123.512         115.452         123.153 
       0.313033         118.644         111.166         118.735 
       0.319153         116.386         107.442         115.429 
       0.325316         111.389         104.118         112.366 
        0.33145         108.189         101.067         108.864 
       0.337538         105.356         98.1245         105.729 
       0.343633         102.475         95.1533         102.876 
       0.349808         99.2527         92.0702         100.001 
       0.355968         96.1024         88.9467         97.4928 
       0.362074         93.9661         85.8774         94.2743 
       0.368217         91.1387         82.9008         90.8718 
       0.374374           89.16         80.1109         88.5418 
       0.380519         85.3488         77.5535         85.8509 
       0.386598         83.0061         75.2515         83.6718 
       0.392688         80.7248         73.1377         81.6595 
        0.39888         79.2118         71.1255         79.4197 
       0.405048          77.396         69.2039         77.4257 
       0.411186         75.4533         67.3244         76.0197 
       0.417313         73.4485         65.4529          73.752 
       0.423458         71.3917          63.587         72.0511 
       0.429607         70.1647         61.7429         70.1015 
       0.435692         68.8148         59.9688         68.5375 
       0.441815         66.2988         58.2633         67.2186 
       0.447964         64.3655         56.6466         65.3762 
       0.454126         63.2505         55.1247         63.7299 
       0.460267         62.6415         53.7031         62.5193 
       0.466387          60.889          52.362         60.9761 
        0.47254         60.0089         51.0671          59.792 
       0.478662         58.2116         49.8148         58.4503 
       0.484765         57.0498         48.5936         57.1531 
       0.490885         55.5051          47.389         56.2801 
       0.497035         54.6228         46.1992         55.1732 
       0.503198         53.3381          45.038         53.6965 
       0.509342         51.9944         43.9203         52.7447 
       0.515458         51.3525         42.8524          51.978 
       0.521598         50.1555         41.8259         50.5233 
       0.527764         49.5316         40.8416         49.3724 
       0.533884         48.3677          39.908         48.4895 
           0.54         47.4102         39.0105         47.5645 
       0.546137         46.0441         38.1375         46.8594 
       0.552299         45.3277         37.2826         45.7506 
       0.558452         44.4464         36.4496         44.8806 
       0.564573         44.0127         35.6413         44.3281 
       0.570708         42.8548          34.852          43.488 
       0.576825         42.2795         34.0865         42.6899 
       0.582926         41.5578         33.3462         41.9985 
       0.589034         40.7865         32.6293         41.3571 
       0.595184         40.2494         31.9335         40.4195 
       0.601379         39.1782         31.2582         39.9328 
       0.607522         38.6315         30.6107         39.1186 
       0.613639          37.968         29.9853         38.4659 
       0.619772         37.3884         29.3749         37.9099 
       0.625918         36.6287         28.7783         37.3422 
       0.632068         36.3369         28.1965          36.619 
       0.638161         35.5833         27.6351          36.035 
         0.6443         35.0504         27.0848         35.3961 
       0.650464         34.1905         26.5477         34.9749 
       0.656582         33.9979         26.0296         34.4317 
       0.662703          33.602         25.5257         33.8321 
       0.668861         32.7328         25.0328         33.4261 
       0.675024         32.3478         24.5533         32.7938 
       0.681124         32.1302         24.0917         32.3176 
       0.687237         31.5063         23.6417         31.7562 
       0.693381         30.8415         23.2015         31.3073 
       0.699536         30.7213         22.7719         30.9028 
       0.705665         30.1542         22.3551         30.5798 
       0.711789         29.6094         21.9491         30.0231 
       0.717957         29.0305         21.5501         29.5987 
        0.72409         28.8003         21.1631         29.2514 
       0.730186         28.6327          20.788         28.7816 
       0.736317         28.0595         20.4199         28.3789 
       0.742472         27.7134         20.0595         28.1516 
       0.748622         27.2769         19.7083          27.664 
        0.75476         26.6161         19.3666         27.2689 
       0.760888         26.5082         19.0337         26.9551 
       0.767043         26.0653         18.7076         26.6677 
       0.773185         25.8056           18.39         26.3123 
       0.779291          25.591         18.0818         26.0083 
       0.785407         25.1306         17.7803          25.637 
       0.791564         24.9402         17.4838         25.3267 
       0.797719         24.4336         17.1944         24.9566 
       0.803834          24.311         16.9134         24.6229 
       0.809972          23.863         16.6377         24.4438 
       0.816124         23.6081         16.3676         24.0557 
       0.822261         23.3472         16.1043         23.7404 
       0.828378         23.0738         15.8477         23.4723 
       0.834502         22.8497         15.5965         23.2697 
       0.840667         22.6196         15.3492          22.928 
       0.846816         22.1427          15.108         22.7064 
       0.852925         22.0464         14.8736         22.5583 
       0.859047         21.7764         14.6438         22.1897 
       0.865192         21.4839         14.4181         21.9388 
       0.871341         21.1941         14.1971         21.7478 
       0.877463         21.0006         13.9818         21.4598 
       0.883569         20.8644         13.7716         21.2719 
       0.889708         20.5232         13.5647         21.0025 
       0.895864         20.2795         13.3615         20.7494 
       0.902008         20.0276         13.1631          20.565 
       0.908149         19.7893         12.9688         20.3511 
       0.914301         19.6955         12.7781         20.1957 
       0.920448         19.3906         12.5916         19.8843 
       0.926574         19.2625         12.4094         19.6922 
       0.932687         18.9975         12.2313         19.4155 
       0.938823         18.7667         12.0561         19.2836 
       0.944975         18.6029          11.884         19.0663 
       0.951105         18.3902         11.7159         18.8181 
       0.957225         18.2877         11.5513         18.7445 
       0.963368         18.0258         11.3894         18.4955 
       0.969511         17.8414         11.2307         18.3483 
       0.975621         17.6629         11.0759         18.1136 
       0.981748           17.43         10.9236          17.973 
       0.987916         17.3084         10.7732         17.7924 
        0.99406          17.165         10.6263         17.6242 
        1.00019         17.0044         10.4825         17.4857 
        1.00632          16.845         10.3414         17.3154 
        1.01246         16.6894         10.2028         17.2071 
        1.01859         16.4827          10.067         16.9883 
        1.02471         16.2904         9.93385         16.7889 
        1.03085           16.24         9.80268         16.6626 
        1.03698         16.0722         9.67418         16.5267 
        1.04314          15.887         9.54747         16.3467 
        1.04929         15.6765         9.42335         16.2231 
        1.05541         15.6155         9.30196         16.0969 
        1.06154         15.4777         9.18244         15.9326 
        1.06769         15.3784         9.06486         15.8059 
        1.07382         15.1234         8.94974         15.6763 
        1.07993         14.9923         8.83691         15.5369 
        1.08607         14.9277         8.72558         15.3724 
        1.09222         14.7336         8.61608          15.247 
        1.09836         14.7002          8.5086         15.0974 
        1.10449         14.4572         8.40311         14.9741 
        1.11063         14.4119         8.29931         14.8674 
        1.11677         14.3028         8.19731         14.7306 
         1.1229         14.1726         8.09723         14.6252 
        1.12903          14.076         7.99876         14.5463 
        1.13518         13.8609         7.90185         14.4113 
        1.14131          13.788         7.80663         14.2667 
        1.14745         13.6046         7.71304         14.1159 
        1.15359         13.5138         7.62099         14.0298 
        1.15973         13.3927         7.53042         13.9221 
        1.16584         13.2927         7.44174         13.8573 
        1.17197         13.1749         7.35438         13.7241 
        1.17811         13.0595         7.26816         13.5935 
        1.18424         12.9698          7.1836         13.5026 
        1.19038         12.8914         7.10015         13.3906 
        1.19652         12.7857         7.01807         13.2987 
        1.20267         12.6797          6.9373         13.1659 
        1.20881         12.5547         6.85784         13.1194 
        1.21495         12.4503         6.77975         13.0038 
        1.22108         12.4007         6.70291         12.9089 
         1.2272         12.2799         6.62745         12.7797 
        1.23334         12.2324           6.553         12.7094 
        1.23949         12.1005         6.47952         12.6261 
        1.24562         11.9981         6.40738         12.5131 
        1.25174           11.93         6.33646         12.4285 
        1.25789         11.7758         6.26641         12.3349 
        1.26402         11.7452         6.19755         12.2214 
        1.27014         11.6741          6.1299         12.1541 
        1.27628         11.5235         6.06307         12.0824 
        1.28244         11.5104         5.99711         12.0098 
        1.28858         11.4203         5.93224         11.9033 
        1.29471         11.2596         5.86847         11.8217 
        1.30084         11.1909         5.80571         11.7663 
        1.30697         11.1651         5.74379         11.6639 
        1.31312         11.0491         5.68268         11.5943 
        1.31925         10.9797         5.62267         11.5329 
        1.32537         10.9109         5.56359         11.4543 
        1.33151         10.8214         5.50515         11.3658 
        1.33765         10.7354          5.4476         11.2719 
        1.34378         10.7162         5.39099         11.2208 
        1.34992         10.6071         5.33516         11.1407 
        1.35606         10.5258            5.28         11.0387 
         1.3622         10.4452         5.22573          10.977 
        1.36833         10.3839         5.17236          10.945 
        1.37445          10.308         5.11977         10.8537 
        1.38059          10.254         5.06775         10.7716 
        1.38675         10.1683         5.01634         10.7143 
        1.39288         10.0856         4.96585         10.6426 
        1.39901          10.018         4.91609          10.585 
        1.40515         9.95403          4.8669         10.5169 
         1.4113         9.87939         4.81842         10.4454 
        1.41742         9.83219         4.77078         10.3824 
        1.42355         9.74514          4.7237         10.3081 
         1.4297          9.7077         4.67713         10.2608 
        1.43585         9.64545          4.6312         10.2083 
        1.44198         9.57525         4.58607          10.119 
        1.44809         9.52686         4.54164         10.0835 
        1.45423         9.44415         4.49763         10.0129 
        1.46036         9.39854          4.4543         9.94936 
        1.46649         9.33147         4.41152         9.89871 
        1.47263         9.28389         4.36928         9.84513 
        1.47877         9.21749         4.32761         9.78212 
        1.48491         9.17374         4.28643         9.71933 
        1.49104         9.09103         4.24587         9.66243 
        1.49718         9.06294         4.20581         9.60965 
        1.50333         8.99459         4.16621         9.56148 
        1.50947         8.91275         4.12721          9.5087 
         1.5156         8.90208         4.08876         9.45217 
        1.52172         8.84402         4.05081         9.39449 
        1.52787         8.78554         4.01327         9.32847 
          1.534         8.73201         3.97625         9.27588 
        1.54013         8.68393         3.93974          9.2283 
        1.54627         8.63014         3.90363         9.18329 
        1.55241         8.55836         3.86796         9.13486 
        1.55855         8.54241          3.8328         9.07188 
        1.56467         8.47164         3.79817         9.03557 
         1.5708         8.42989         3.76388         8.99647 
        1.57695         8.35786         3.72996         8.93772 
        1.58308         8.30613         3.69655         8.89254 
        1.58922         8.27603         3.66352         8.85074 
        1.59535         8.22424         3.63091         8.79402 
         1.6015         8.16015         3.59865         8.73995 
        1.60764         8.13591         3.56681         8.70311 
        1.61376         8.09877         3.53544         8.66882 
        1.61989         8.01478         3.50443         8.62177 
        1.62604         7.99168         3.47372         8.57029 
        1.63218         7.94814         3.44341         8.52808 
        1.63831         7.91288         3.41352         8.48802 
        1.64444         7.84538         3.38399         8.43508 
        1.65059          7.8097         3.35473         8.39213 
        1.65673         7.77939         3.32586         8.35194 
        1.66285         7.73475         3.29741           8.312 
        1.66898         7.67889         3.26928         8.27339 
        1.67512         7.63418         3.24143         8.23383 
        1.68127         7.58827         3.21389         8.19239 
         1.6874         7.56623         3.18672         8.14929 
        1.69353         7.50555         3.15989         8.10494 
        1.69967         7.47698         3.13331         8.06166 
        1.70581          7.4213         3.10704         8.02984 
        1.71193         7.40425         3.08118         8.00136 
        1.71806         7.36544         3.05556         7.95773 
        1.72421         7.30934         3.03018         7.91595 
        1.73035         7.27155         3.00512         7.87395 
        1.73649         7.23894         2.98036         7.83098 
        1.74262         7.19208         2.95589         7.79711 
        1.74876         7.17486         2.93168         7.76724 
        1.75489         7.13172          2.9078         7.72815 
        1.76101         7.08019         2.88419         7.68007 
        1.76715         7.06666         2.86082         7.64352 
        1.77329         7.02834         2.83768         7.61515 
        1.77943         6.97265         2.81478         7.58332 
        1.78557         6.95401         2.79217         7.54425 
        1.79171         6.92636         2.76981         7.50535 
        1.79785         6.87948          2.7477         7.46917 
        1.80399          6.8232         2.72583         7.43684 
        1.81012         6.80699         2.70422         7.41404 
        1.81625         6.77147         2.68287          7.3838 
        1.82239         6.73539         2.66171         7.34517 
        1.82853         6.69817          2.6408         7.31689 
        1.83466         6.65377         2.62013         7.29168 
        1.84078         6.62997          2.5997         7.25629 
        1.84692          6.6006         2.57946         7.20594 
        1.85306         6.56823         2.55942         7.17266 
         1.8592         6.54857         2.53962         7.15364 
        1.86533         6.51036         2.52004         7.12303 
        1.87147         6.47107         2.50064         7.08918 
        1.87761         6.45691         2.48145         7.05816 
