# k  (h/Mpc)    Pcb(k)  (Mpc/h)^3    Pcb_linear(k) (Mpc/h)^3    Pcb_NL(k) (Mpc/h)^3   ShotnoiseSubtracted = false
     0.00783031         9059.94         9095.58         9087.15 
       0.013688         11885.5         12156.2         12092.8 
       0.019231         12953.5         13129.6         13021.4 
      0.0249154         12872.8         12895.4         12769.4 
      0.0312784         11712.1         11862.7         11717.7 
      0.0375637         10394.7         10610.8         10459.4 
      0.0433917         9447.36         9550.56         9384.12 
      0.0492413         8527.92          8702.3          8533.7 
      0.0555754         7909.17         8027.01         7858.83 
      0.0619321         7200.98         7523.72         7349.76 
       0.067871         6895.09         7116.69         6944.22 
      0.0738098         6521.12         6696.55         6478.89 
      0.0800417         6046.48         6202.97         5990.88 
      0.0862327         5498.51         5665.89         5502.46 
      0.0921407         5008.62          5146.8         4992.59 
      0.0982031         4587.65         4653.76         4557.35 
       0.104506         4120.38         4222.21         4175.56 
       0.110769         3816.03         3891.26         3825.78 
       0.116806         3653.97         3657.08         3593.52 
       0.122832         3438.75         3483.19         3434.41 
       0.129052         3288.37         3334.97         3289.17 
       0.135211         3195.87            3190         3143.21 
       0.141259          2993.4         3030.85         3006.65 
       0.147318         2784.19         2850.09         2848.39 
       0.153489         2632.69         2652.01         2626.96 
       0.159709         2512.81         2453.93          2467.7 
       0.165845         2292.69         2276.06         2348.99 
       0.171974         2228.64         2126.65         2210.06 
       0.178125         2147.09          2008.3         2134.99 
       0.184229         1991.02         1918.29         2039.15 
        0.19034         1961.81         1846.85         1969.73 
       0.196428         1909.54         1783.79          1889.5 
       0.202534         1800.61         1719.44         1833.75 
       0.208729         1768.81         1647.29         1748.52 
       0.214876         1700.67         1567.86         1702.52 
       0.220989         1604.65         1484.23         1640.03 
       0.227147         1566.04         1400.73         1571.68 
        0.23329         1505.88         1323.64         1523.05 
       0.239377         1486.83         1257.15         1466.46 
       0.245482         1416.68         1201.62         1402.87 
       0.251667         1365.15         1155.53         1373.15 
       0.257832         1350.36         1116.81         1331.98 
       0.263955         1288.15         1081.84          1294.8 
       0.270079         1255.44         1047.03         1259.33 
        0.27624         1204.15         1010.17         1220.83 
       0.282372         1187.27         971.086         1190.11 
        0.28843         1173.97         931.015         1156.03 
       0.294538         1117.74         890.873         1126.08 
       0.300721          1091.3         852.389         1095.15 
        0.30691         1071.37         817.511         1075.58 
       0.313033          1029.4         787.169          1042.6 
       0.319153          1016.2         760.797         1016.95 
       0.325316         1002.62         737.258         1001.91 
        0.33145         984.053         715.657          967.97 
       0.337538         951.342         694.817         950.597 
       0.343633         927.154         673.779         939.955 
       0.349808         908.449         651.949         922.286 
       0.355968         892.413         629.829         905.864 
       0.362074         865.996         608.096         885.731 
       0.368217         862.503         587.019         861.392 
       0.374374         849.164         567.263         846.578 
       0.380519         819.037         549.157         829.179 
       0.386598         812.456         532.853          817.98 
       0.392688         796.258         517.887         799.387 
        0.39888         776.351         503.638         788.799 
       0.405048         764.355         490.031         780.075 
       0.411186         761.284         476.722         761.215 
       0.417313         756.378          463.47         747.199 
       0.423458         733.124         450.257         736.427 
       0.429607         714.151           437.2         721.452 
       0.435692         706.082         424.638         709.446 
       0.441815         694.934          412.56         705.244 
       0.447964         683.618         401.113          693.09 
       0.454126         675.381         390.338          676.72 
       0.460267         665.539          380.27         674.386 
       0.466387         656.644         370.774         661.516 
        0.47254         645.519         361.604         654.247 
       0.478662         634.469         352.737         643.597 
       0.484765          629.18         344.089         632.486 
       0.490885         622.562          335.56         623.934 
       0.497035         611.332         327.135         618.141 
       0.503198         610.562         318.912         609.463 
       0.509342         597.747         310.999         601.819 
       0.515458         587.495         303.436         598.242 
       0.521598         580.933         296.168         588.996 
       0.527764         570.656         289.198         581.585 
       0.533884         568.198         282.587         575.079 
           0.54         561.271         276.232         567.998 
       0.546137         551.609          270.05         561.456 
       0.552299         550.479         263.997         554.066 
       0.558452         542.891         258.098         549.149 
       0.564573         536.613         252.375         544.504 
       0.570708         532.378         246.786         539.781 
       0.576825          522.29         241.366         530.643 
       0.582926         519.226         236.123         525.196 
       0.589034         512.503         231.048         518.285 
       0.595184         508.413          226.12         512.939 
       0.601379         500.327         221.338         509.526 
       0.607522          492.84         216.754         503.774 
       0.613639         490.857         212.325         499.889 
       0.619772         488.495         208.002         497.985 
       0.625918          480.58         203.778         491.892 
       0.632068         476.024         199.658         485.986 
       0.638161         471.162         195.684         480.713 
         0.6443         467.483         191.786         477.758 
       0.650464         461.944         187.983         470.093 
       0.656582         457.807         184.315         466.219 
       0.662703         453.991         180.746         464.706 
       0.668861         448.364         177.257          460.58 
       0.675024         444.874         173.861          456.43 
       0.681124         440.227         170.593          449.92 
       0.687237         437.142         167.406         446.154 
       0.693381         432.209         164.289         442.649 
       0.699536         428.588         161.247         439.816 
       0.705665         424.379         158.296         436.115 
       0.711789          423.21          155.42         432.077 
       0.717957         416.772         152.595         429.528 
        0.72409         413.275         149.855         426.357 
       0.730186         414.799         147.199         422.929 
       0.736317         407.423         144.592         418.322 
       0.742472         402.983          142.04         414.638 
       0.748622         399.221         139.554         411.271 
        0.75476         397.922         137.134         410.601 
       0.760888         394.242         134.777         405.618 
       0.767043         391.113         132.468         402.906 
       0.773185         389.172         130.219         399.884 
       0.779291         383.095         128.036         396.224 
       0.785407         381.812         125.901         393.737 
       0.791564         377.963         123.802         391.206 
       0.797719         372.598         121.753         388.189 
       0.803834          375.37         119.763         385.768 
       0.809972         369.768         117.811         383.006 
       0.816124         365.828         115.899         378.719 
       0.822261          362.23         114.034         376.649 
       0.828378         361.857         112.217         373.797 
       0.834502         356.284         110.438         372.094 
       0.840667         356.151         108.687         369.367 
       0.846816         350.687         106.979         366.922 
       0.852925         350.287          105.32         364.141 
       0.859047         346.647         103.692         361.634 
       0.865192         346.195         102.094         359.377 
       0.871341         341.221         100.529          356.91 
       0.877463         338.009         99.0048         354.809 
       0.883569         336.552         97.5162         352.684 
       0.889708         333.775          96.051         349.667 
       0.895864         331.425         94.6126          347.76 
       0.902008         329.239          93.207         345.243 
       0.908149         326.632         91.8313         342.198 
       0.914301         324.815         90.4814         340.725 
       0.920448         322.714         89.1603         337.547 
       0.926574         320.511         87.8706         335.588 
       0.932687         317.969         86.6094         332.867 
       0.938823         315.183         85.3688         332.434 
       0.944975         313.586         84.1499         330.468 
       0.951105          310.96         82.9596         327.796 
       0.957225         307.814         81.7945         325.697 
       0.963368          307.52         80.6482         323.097 
       0.969511         302.238         79.5241         321.098 
       0.975621         302.108         78.4277         320.339 
       0.981748         299.947         77.3494         317.867 
       0.987916         298.261         76.2848         316.432 
        0.99406         295.582         75.2445         314.571 
        1.00019         293.417         74.2258         311.596 
        1.00632         293.021         73.2272         309.489 
        1.01246         290.616         72.2457         307.585 
        1.01859         286.971          71.284         306.137 
        1.02471         284.949         70.3412         304.949 
        1.03085         284.528         69.4124         303.192 
        1.03698         281.998         68.5025         301.592 
        1.04314         281.521         67.6053         299.451 
        1.04929         279.149         66.7264          297.29 
        1.05541         276.418         65.8668         295.618 
        1.06154         274.816         65.0205         294.015 
        1.06769          272.08         64.1879         292.446 
        1.07382         272.115         63.3728         290.461 
        1.07993         268.964         62.5738         289.067 
        1.08607         266.838         61.7855         287.488 
        1.09222         265.748         61.0101         285.688 
        1.09836           264.4         60.2491         284.757 
        1.10449         262.033         59.5021         282.777 
        1.11063         259.948          58.767         280.945 
        1.11677         258.833         58.0448         279.369 
         1.1229           256.8         57.3362         278.135 
        1.12903         255.946         56.6389          276.74 
        1.13518         253.858         55.9527         274.963 
        1.14131         252.981         55.2784          273.48 
        1.14745         249.659         54.6157         271.956 
        1.15359         247.717         53.9639         270.389 
        1.15973           247.2         53.3226         268.766 
        1.16584         246.211         52.6946         266.655 
        1.17197         244.156          52.076         265.633 
        1.17811         241.985         51.4656         264.755 
        1.18424          240.59         50.8668         263.281 
        1.19038         239.189         50.2758         261.864 
        1.19652         236.717         49.6947         260.804 
        1.20267         236.285         49.1227         258.636 
        1.20881          234.26         48.5601         257.947 
        1.21495         233.644         48.0072         255.809 
        1.22108         231.749          47.463         254.818 
         1.2272         229.645         46.9287         252.741 
        1.23334         228.751         46.4015         251.876 
        1.23949         227.942         45.8812           251.2 
        1.24562         226.124         45.3704         249.394 
        1.25174         224.415         44.8682         248.478 
        1.25789         222.632         44.3722         247.046 
        1.26402         222.337         43.8846         245.404 
        1.27014         220.913         43.4056          244.75 
        1.27628          218.31         42.9323         243.879 
        1.28244         217.703         42.4653         242.035 
        1.28858         216.183         42.0059         240.681 
        1.29471         215.066         41.5544         239.342 
        1.30084         213.615           41.11         238.111 
        1.30697         211.954         40.6715          237.12 
        1.31312         210.671         40.2388         235.499 
        1.31925         209.287         39.8139         234.152 
        1.32537         208.676         39.3955         233.389 
        1.33151         206.941         38.9817         232.226 
        1.33765          205.23         38.5742         230.837 
        1.34378          204.43         38.1734         229.667 
        1.34992         203.274          37.778         228.391 
        1.35606         201.986         37.3875         227.012 
         1.3622         201.027         37.0032         226.002 
        1.36833         198.811         36.6252         225.007 
        1.37445         198.604         36.2528         223.487 
        1.38059         196.894         35.8845         222.802 
        1.38675          195.67         35.5205         221.609 
        1.39288         194.496          35.163         219.972 
        1.39901         193.323         34.8106         219.385 
        1.40515          192.28         34.4623         218.489 
         1.4113         190.943          34.119         217.136 
        1.41742         189.316         33.7817         216.133 
        1.42355         189.563         33.4483         215.426 
         1.4297         187.564         33.1185         214.133 
        1.43585         186.386         32.7933          213.02 
        1.44198         184.595         32.4738         211.938 
        1.44809         183.634         32.1591         210.824 
        1.45423         183.117         31.8475         209.733 
        1.46036         181.776         31.5407         208.725 
        1.46649         180.579         31.2378         208.034 
        1.47263         179.848         30.9387         207.347 
        1.47877         178.586         30.6436         205.971 
        1.48491         176.955          30.352         204.962 
        1.49104         175.246         30.0648         204.168 
        1.49718         174.979         29.7812         202.701 
        1.50333          173.95         29.5008         201.887 
        1.50947         172.922         29.2246         201.067 
         1.5156         171.768         28.9523         199.995 
        1.52172         170.753         28.6836         199.075 
        1.52787         169.925         28.4178         198.083 
          1.534         168.826         28.1556         197.044 
        1.54013         167.877         27.8971          196.21 
        1.54627         166.849         27.6414         195.402 
        1.55241         165.787         27.3889         194.405 
        1.55855         164.961         27.1399         193.289 
        1.56467         163.511         26.8947         192.353 
         1.5708         162.549         26.6519         191.786 
        1.57695          161.86         26.4117         190.884 
        1.58308         160.772         26.1751         189.706 
        1.58922             160         25.9412         188.872 
        1.59535         158.906         25.7103         188.017 
         1.6015         157.379         25.4819         187.033 
        1.60764         156.721         25.2564         186.126 
        1.61376          155.72         25.0343          185.47 
        1.61989         154.953         24.8147         184.769 
        1.62604          153.83         24.5973         183.748 
        1.63218         153.173         24.3826         182.835 
        1.63831         152.046          24.171         182.048 
        1.64444         151.083         23.9619          181.03 
        1.65059         150.207         23.7547         180.337 
        1.65673         149.382         23.5503         179.518 
        1.66285         148.875         23.3488         178.617 
        1.66898         147.471         23.1496          177.87 
        1.67512         146.843         22.9524         177.107 
        1.68127         145.679         22.7574         176.277 
         1.6874         144.982          22.565         175.546 
        1.69353         144.137          22.375         174.931 
        1.69967         143.168         22.1868          173.89 
        1.70581         142.649         22.0008         172.984 
        1.71193         141.368         21.8177         172.269 
        1.71806         140.522         21.6363         171.302 
        1.72421         139.906         21.4566         170.622 
        1.73035         139.012         21.2791         169.904 
        1.73649          137.86         21.1038         169.056 
        1.74262         137.397         20.9305         168.525 
        1.74876         136.378         20.7591         167.718 
        1.75489         135.668           20.59         166.776 
        1.76101         134.891         20.4228         166.004 
        1.76715         133.735         20.2573         165.258 
        1.77329         133.392         20.0934         164.496 
        1.77943         132.129         19.9313         163.749 
        1.78557         131.675         19.7713         163.063 
        1.79171         130.877         19.6129         162.486 
        1.79785         129.822         19.4563         161.824 
        1.80399          129.32         19.3014         160.932 
        1.81012          128.15         19.1485         160.149 
        1.81625         127.795         18.9973         159.549 
        1.82239         126.962         18.8475         158.942 
        1.82853         126.439         18.6994         158.192 
        1.83466         125.336          18.553         157.366 
        1.84078         124.619         18.4084         156.653 
        1.84692         124.326         18.2651         156.176 
        1.85306         123.216         18.1231         155.465 
         1.8592         122.595         17.9829         154.719 
        1.86533         121.612         17.8443         154.219 
        1.87147         121.145         17.7069         153.357 
