# k  (h/Mpc)    Pcb(k)  (Mpc/h)^3    Pcb_linear(k) (Mpc/h)^3    Pcb_NL(k) (Mpc/h)^3   ShotnoiseSubtracted = false
     0.00783031         8683.39         8717.96         8710.17 
       0.013688         11396.9         11651.6           11592 
       0.019231         12420.1         12584.7         12483.1 
      0.0249154         12340.3         12360.3           12243 
      0.0312784         11231.4         11370.5         11236.6 
      0.0375637         9970.24         10170.5           10031 
      0.0433917         9060.59         9154.28         9001.21 
      0.0492413         8180.32         8341.22         8186.26 
      0.0555754         7587.24         7693.95         7539.25 
      0.0619321         6911.56         7211.54         7051.44 
       0.067871         6617.33          6821.4         6662.51 
      0.0738098         6257.41          6418.7         6218.09 
      0.0800417         5802.75          5945.6         5750.06 
      0.0862327         5276.85         5430.81          5280.2 
      0.0921407         4805.91         4933.25         4791.09 
      0.0982031         4400.68         4460.67         4372.04 
       0.104506          3952.5         4047.03         4004.36 
       0.110769         3660.05         3729.81         3669.45 
       0.116806         3503.98         3505.34         3446.79 
       0.122832         3297.29         3338.67         3293.84 
       0.129052         3154.23          3196.6          3154.4 
       0.135211         3064.38         3057.64         3014.69 
       0.141259            2871          2905.1         2882.89 
       0.147318         2669.98         2731.84         2730.81 
       0.153489          2523.9         2541.97         2518.91 
       0.159709         2406.96         2352.11         2365.13 
       0.165845         2195.88         2181.63         2249.81 
       0.171974         2133.93         2038.41            2116 
       0.178125         2054.36         1924.98         2042.92 
       0.184229         1906.03          1838.7         1951.51 
        0.19034         1877.22         1770.22         1884.74 
       0.196428         1826.72         1709.78         1807.76 
       0.202534         1722.15          1648.1         1754.09 
       0.208729         1691.71         1578.94         1672.82 
       0.214876          1626.7         1502.81         1628.31 
       0.220989         1533.18         1422.65         1567.68 
       0.227147         1496.46         1342.61         1501.32 
        0.23329         1438.78         1268.72         1454.42 
       0.239377          1419.2         1204.99         1400.22 
       0.245482         1351.76         1151.76         1339.11 
       0.251667         1302.45         1107.58          1310.4 
       0.257832         1288.65         1070.47         1270.91 
       0.263955         1228.63         1036.95         1235.12 
       0.270079         1196.81         1003.59         1201.04 
        0.27624         1147.92         968.255         1164.01 
       0.282372         1131.08         930.795         1134.05 
        0.28843         1119.07         892.387          1100.9 
       0.294538         1064.98         853.911         1072.37 
       0.300721         1038.85         817.024         1043.03 
        0.30691         1020.35         783.592         1023.67 
       0.313033         980.033         754.509         991.979 
       0.319153         967.021         729.232         967.715 
       0.325316          953.64         706.669         953.089 
        0.33145         935.914         685.964         920.739 
       0.337538         904.606         665.989         903.724 
       0.343633         881.175         645.824         893.473 
       0.349808         862.997           624.9         876.481 
       0.355968         847.814         603.698         860.634 
       0.362074         822.645         582.866         841.254 
       0.368217         819.065         562.663         817.811 
       0.374374         806.105         543.727         803.567 
       0.380519         777.226         526.372         786.828 
       0.386598         770.539         510.745         775.998 
       0.392688          755.42         496.399         758.381 
        0.39888         736.228         482.742         747.972 
       0.405048         724.942           469.7         739.821 
       0.411186          721.92         456.943         721.648 
       0.417313         716.559         444.241         707.835 
       0.423458         694.714         431.576         697.613 
       0.429607         676.961         419.061         683.384 
       0.435692         668.705          407.02         671.956 
       0.441815         658.371         395.443         667.723 
       0.447964         647.064         384.471         656.029 
       0.454126          639.34         374.143         640.605 
       0.460267         629.841         364.492          638.13 
       0.466387         621.379         355.391         625.939 
        0.47254         611.118         346.601         618.959 
       0.478662         599.996         338.102         608.629 
       0.484765         594.966         329.813         597.749 
       0.490885         588.849         321.637         589.913 
       0.497035         578.133         313.562         584.343 
       0.503198         577.379         305.681         575.962 
       0.509342         564.814         298.095         568.941 
       0.515458         555.486         290.847         565.432 
       0.521598         548.615          283.88         556.282 
       0.527764         539.338         277.199         549.111 
       0.533884         537.256         270.863          542.99 
           0.54         530.372         264.771         536.235 
       0.546137         520.832         258.846         530.115 
       0.552299         519.977         253.044         523.079 
       0.558452         512.566          247.39         518.272 
       0.564573         506.644         241.904         513.886 
       0.570708         502.377         236.546         509.369 
       0.576825         492.996         231.352         500.598 
       0.582926         489.847         226.326         495.356 
       0.589034         483.525         221.461         489.035 
       0.595184         479.851         216.738         483.622 
       0.601379         472.083         212.154         480.582 
       0.607522          464.95         207.761         475.201 
       0.613639         462.882         203.515         471.276 
       0.619772         460.734         199.372         469.194 
       0.625918         453.426         195.324         463.651 
       0.632068         448.671         191.375         457.744 
       0.638161         444.218         187.565         453.188 
         0.6443         440.919         183.829          450.16 
       0.650464         435.389         180.184         442.916 
       0.656582          431.42         176.667         439.232 
       0.662703         428.052         173.247         437.754 
       0.668861         422.486         169.902         433.682 
       0.675024         419.325         166.647         429.648 
       0.681124         415.064         163.515         423.749 
       0.687237         411.872          160.46          420.12 
       0.693381         407.476         157.472         416.772 
       0.699536         403.744         154.557         414.062 
       0.705665         399.783         151.728         410.723 
       0.711789         398.457         148.972         406.737 
       0.717957         392.571         146.264         404.214 
        0.72409          389.27         143.638         401.364 
       0.730186          390.79         141.092         398.104 
       0.736317         383.774         138.593          393.73 
       0.742472         379.507         136.147         390.244 
       0.748622         375.735         133.764         386.985 
        0.75476         374.952         131.444         386.155 
       0.760888         371.211         129.185         381.493 
       0.767043         368.076         126.972         379.073 
       0.773185         366.268         124.816         376.222 
       0.779291         360.464         122.724         372.743 
       0.785407         359.375         120.678         370.277 
       0.791564         355.625         118.666         367.856 
       0.797719         350.584         116.701         365.175 
       0.803834         353.248         114.794         362.709 
       0.809972          348.16         112.923          360.07 
       0.816124         344.328          111.09         356.299 
       0.822261         340.776         109.303          354.22 
       0.828378         340.677         107.561         351.428 
       0.834502         335.359         105.856         349.821 
       0.840667          335.18         104.178         347.293 
       0.846816         330.095         102.541         344.916 
       0.852925           329.5          100.95         342.246 
       0.859047         325.999           99.39          339.94 
       0.865192         325.762         97.8583         337.846 
       0.871341         321.088         96.3583         335.421 
       0.877463         318.031         94.8971         333.515 
       0.883569         316.902         93.4702         331.503 
       0.889708          314.27         92.0658         328.702 
       0.895864         312.018         90.6871         326.912 
       0.902008         309.762         89.3399         324.411 
       0.908149         307.305         88.0212         321.592 
       0.914301          305.65         86.7273         320.308 
       0.920448         303.784         85.4611         317.253 
       0.926574         301.558         84.2248         315.338 
       0.932687         299.223          83.016         312.765 
       0.938823         296.716         81.8268         312.337 
       0.944975         295.066         80.6585         310.598 
       0.951105         292.573         79.5176         308.114 
       0.957225         289.932         78.4009         305.999 
       0.963368         289.375         77.3021         303.468 
       0.969511         284.573         76.2246           301.7 
       0.975621         284.165         75.1737          301.11 
       0.981748         282.208         74.1402         298.688 
       0.987916           280.7         73.1197         297.312 
        0.99406         278.191         72.1226         295.592 
        1.00019         276.325         71.1462         292.859 
        1.00632         275.771          70.189         290.757 
        1.01246         273.509         69.2482         288.955 
        1.01859         270.229         68.3264         287.745 
        1.02471         268.245         67.4227         286.607 
        1.03085         267.739         66.5324         284.842 
        1.03698         265.368         65.6603         283.302 
        1.04314          264.94         64.8003         281.359 
        1.04929          262.77         63.9579         279.357 
        1.05541         260.383          63.134         277.813 
        1.06154         258.774         62.3228         276.338 
        1.06769         256.193         61.5247         274.887 
        1.07382         256.216         60.7434         273.001 
        1.07993         253.287         59.9776         271.639 
        1.08607          251.24          59.222         270.292 
        1.09222         250.247         58.4788         268.613 
        1.09836         248.921         57.7493         267.626 
        1.10449         246.597         57.0333         265.754 
        1.11063         244.846         56.3288         264.024 
        1.11677         243.896         55.6366         262.586 
         1.1229         241.816         54.9573         261.407 
        1.12903           241.1         54.2889         260.084 
        1.13518         239.168         53.6312         258.449 
        1.14131         238.166         52.9849         257.007 
        1.14745         235.264         52.3497         255.603 
        1.15359         233.322          51.725         254.124 
        1.15973           232.9         51.1102         252.603 
        1.16584         231.971         50.5083         250.668 
        1.17197         230.108         49.9154         249.618 
        1.17811         228.001         49.3303         248.861 
        1.18424         226.724         48.7563         247.413 
        1.19038         225.336         48.1899         246.114 
        1.19652         223.174         47.6328         245.151 
        1.20267         222.601         47.0846         243.192 
        1.20881          220.75         46.5453         242.514 
        1.21495         220.214         46.0153         240.445 
        1.22108         218.382         45.4938          239.67 
         1.2272         216.537         44.9816          237.69 
        1.23334         215.702         44.4763           236.9 
        1.23949         214.938         43.9776         236.158 
        1.24562         213.196          43.488         234.458 
        1.25174         211.539         43.0066         233.611 
        1.25789         210.015         42.5312         232.278 
        1.26402         209.671         42.0638         230.709 
        1.27014          208.28         41.6047         230.244 
        1.27628         205.811         41.1511         229.385 
        1.28244         205.253         40.7034          227.53 
        1.28858         203.891         40.2631         226.303 
        1.29471         202.773         39.8303         225.176 
        1.30084         201.416         39.4043         223.989 
        1.30697         200.049          38.984         222.988 
        1.31312         198.753         38.5693         221.442 
        1.31925         197.343          38.162         220.279 
        1.32537         196.814          37.761         219.553 
        1.33151         195.241         37.3644         218.434 
        1.33765         193.516         36.9738          217.19 
        1.34378         193.016         36.5896         216.017 
        1.34992         191.935         36.2106         214.918 
        1.35606         190.622         35.8362         213.592 
         1.3622         189.831         35.4679         212.639 
        1.36833         187.655         35.1057         211.654 
        1.37445         187.474         34.7487         210.287 
        1.38059         185.862         34.3957         209.654 
        1.38675         184.795         34.0467         208.484 
        1.39288         183.601         33.7041         207.083 
        1.39901         182.487         33.3663         206.494 
        1.40515         181.531         33.0325         205.639 
         1.4113         180.391         32.7034         204.426 
        1.41742         178.836         32.3801         203.513 
        1.42355         178.938         32.0606         202.822 
         1.4297         177.141         31.7444         201.584 
        1.43585         175.987         31.4327         200.518 
        1.44198          174.33         31.1264         199.549 
        1.44809         173.358         30.8249         198.484 
        1.45423         172.996         30.5262         197.483 
        1.46036         171.692         30.2321         196.553 
        1.46649         170.513         29.9417         195.889 
        1.47263         169.887          29.655         195.229 
        1.47877         168.593         29.3722         193.966 
        1.48491         167.228         29.0927         193.049 
        1.49104         165.531         28.8174         192.292 
        1.49718         165.476         28.5455         190.846 
        1.50333         164.472         28.2768         190.113 
        1.50947         163.453          28.012         189.349 
         1.5156         162.313         27.7511          188.37 
        1.52172         161.378         27.4935         187.601 
        1.52787         160.596         27.2387         186.577 
          1.534          159.65         26.9875         185.611 
        1.54013         158.703         26.7397         184.842 
        1.54627          157.67         26.4946         184.072 
        1.55241         156.691         26.2525          183.17 
        1.55855         155.894         26.0138         182.105 
        1.56467         154.592         25.7788          181.22 
         1.5708         153.742         25.5461         180.729 
        1.57695         153.067         25.3159         179.881 
        1.58308         152.056         25.0891         178.739 
        1.58922         151.387         24.8649          177.96 
        1.59535           150.5         24.6436         177.173 
         1.6015         148.844         24.4247         176.282 
        1.60764         148.196         24.2085         175.461 
        1.61376         147.358         23.9956         174.834 
        1.61989         146.637         23.7851         174.144 
        1.62604         145.638         23.5767         173.162 
        1.63218         144.987          23.371         172.312 
        1.63831         143.842         23.1682         171.624 
        1.64444         143.006         22.9677         170.692 
        1.65059         142.106         22.7691         169.978 
        1.65673         141.474         22.5732          169.22 
        1.66285         140.977         22.3801         168.425 
        1.66898         139.568         22.1892         167.721 
        1.67512         139.037         22.0001         167.011 
        1.68127         137.925         21.8132         166.205 
         1.6874         137.249         21.6288         165.481 
        1.69353         136.367         21.4467         164.915 
        1.69967          135.61         21.2663         163.977 
        1.70581         135.088          21.088          163.13 
        1.71193         133.918         20.9125         162.461 
        1.71806         133.123         20.7386         161.619 
        1.72421         132.475         20.5663         160.946 
        1.73035          131.71         20.3963         160.239 
        1.73649         130.642         20.2282         159.471 
        1.74262         130.168         20.0621         158.957 
        1.74876         129.159         19.8978         158.185 
        1.75489         128.572         19.7357         157.295 
        1.76101         127.839         19.5755         156.561 
        1.76715         126.707         19.4168         155.863 
        1.77329         126.377         19.2598         155.194 
        1.77943         125.214         19.1044         154.538 
        1.78557          124.75         18.9509         153.886 
        1.79171         124.054         18.7992         153.322 
        1.79785         123.036         18.6491           152.7 
        1.80399         122.633         18.5006         151.887 
        1.81012          121.57          18.354         151.152 
        1.81625          121.14         18.2091         150.565 
        1.82239         120.463         18.0655         149.985 
        1.82853         119.889         17.9235         149.295 
        1.83466          118.81         17.7832         148.533 
        1.84078         118.144         17.6446         147.873 
        1.84692         117.868         17.5072         147.439 
        1.85306          116.91         17.3712         146.768 
         1.8592         116.337         17.2368         146.059 
        1.86533          115.42         17.1039         145.579 
        1.87147         114.882         16.9723         144.699 
