# k  (h/Mpc)    Pcb(k)  (Mpc/h)^3    Pcb_linear(k) (Mpc/h)^3    Pcb_NL(k) (Mpc/h)^3   ShotnoiseSubtracted = false
     0.00783031         967.788         973.501         972.854 
       0.013688         1288.31         1301.75         1297.53 
       0.019231         1399.83         1406.31         1399.67 
      0.0249154         1380.62         1381.39         1376.42 
      0.0312784         1268.04         1270.88         1268.01 
      0.0375637         1132.65         1136.82         1134.57 
      0.0433917         1024.08         1023.26          1021.7 
      0.0492413         930.294         932.397         931.042 
      0.0555754         861.264         860.059         858.475 
      0.0619321         798.938         806.145          804.44 
       0.067871         759.936         762.541         760.483 
      0.0738098         715.819          717.53         714.736 
      0.0800417         664.379         664.648         661.971 
      0.0862327         605.494         607.104         605.154 
      0.0921407         549.814         551.485         549.864 
      0.0982031          499.19         498.658         497.946 
       0.104506         450.324         452.418         452.464 
       0.110769          415.47         416.957         416.673 
       0.116806          393.29         391.865         391.503 
       0.122832           372.2         373.233         373.049 
       0.129052         357.466         357.351           357.1 
       0.135211         343.142         341.818          341.56 
       0.141259         324.485         324.765         324.749 
       0.147318         303.395         305.397         305.875 
       0.153489          283.77         284.171         284.219 
       0.159709         264.064         262.947         263.627 
       0.165845         242.637         243.889         245.609 
       0.171974          230.19         227.878         229.601 
       0.178125         217.649         215.197         217.622 
       0.184229         206.404         205.552          208.04 
        0.19034         200.323         197.897         200.311 
       0.196428          193.28          191.14         193.018 
       0.202534         184.202         184.245         186.241 
       0.208729         178.215         176.514         178.417 
       0.214876         170.918         168.002         170.622 
       0.220989         159.673         159.041         161.946 
       0.227147         153.447         150.094         153.065 
        0.23329         145.749         141.834         145.471 
       0.239377         139.243         134.709         138.723 
       0.245482         132.682         128.759         132.474 
       0.251667         127.089          123.82         127.877 
       0.257832         124.278         119.671         123.661 
       0.263955         119.239         115.924         119.739 
       0.270079          115.46         112.194          115.87 
        0.27624         110.738         108.244          111.75 
       0.282372         106.925         104.056         107.776 
        0.28843         104.248         99.7624          103.58 
       0.294538         99.5895         95.4611         99.5422 
       0.300721         94.9025         91.3374         95.7563 
        0.30691         92.2785            87.6         92.1176 
       0.313033         88.6627         84.3487         88.7926 
       0.319153         86.8798         81.5229          86.224 
       0.325316         83.0745         79.0006         83.8522 
        0.33145         80.6706         76.6859         81.2712 
       0.337538         78.5767         74.4528         78.9177 
       0.343633          76.438         72.1985          76.709 
       0.349808         73.9788         69.8594          74.498 
       0.355968         71.5446         67.4891         72.5309 
       0.362074         69.8435         65.1603         70.0906 
       0.368217         67.6415         62.9018         67.5599 
       0.374374          66.132         60.7848         65.7365 
       0.380519         63.3461         58.8447         63.7035 
       0.386598         61.5224         57.0977         62.0474 
       0.392688         59.8005          55.494         60.4856 
        0.39888         58.6202         53.9671          58.837 
       0.405048         57.2403         52.5091         57.2897 
       0.411186         55.7304         51.0831         56.1889 
       0.417313         54.2438          49.663         54.5383 
       0.423458         52.6464         48.2472         53.2228 
       0.429607         51.6983         46.8481         51.7419 
       0.435692         50.6392          45.502         50.5359 
       0.441815         48.7903         44.2078         49.4778 
       0.447964         47.3356         42.9811         48.1115 
       0.454126           46.51         41.8265         46.8865 
       0.460267         45.9741         40.7477         45.9297 
       0.466387         44.6513         39.7302         44.7746 
        0.47254         43.9354         38.7476         43.8568 
       0.478662         42.6697         37.7975         42.8472 
       0.484765         41.7681         36.8708         41.8973 
       0.490885         40.6197         35.9568         41.2047 
       0.497035         39.8315         35.0541         40.3445 
       0.503198          38.941          34.173         39.2359 
       0.509342         37.9272          33.325         38.4977 
       0.515458         37.4124         32.5146         37.8746 
       0.521598         36.5464         31.7358          36.817 
       0.527764         36.0564         30.9889         35.9877 
       0.533884         35.0893         30.2806         35.3067 
           0.54         34.4219         29.5996         34.5929 
       0.546137         33.4287         28.9372         34.0332 
       0.552299         32.8856         28.2886         33.2107 
       0.558452         32.2296         27.6565         32.5707 
       0.564573         31.8323         27.0432         32.1433 
       0.570708         31.0514         26.4443         31.5031 
       0.576825          30.565         25.8635         30.8947 
       0.582926         29.9888         25.3017         30.3768 
       0.589034         29.4345         24.7579         29.8838 
       0.595184         29.0391         24.2299         29.1594 
       0.601379         28.2633         23.7174         28.7993 
       0.607522         27.8322         23.2262         28.2166 
       0.613639         27.2846         22.7516         27.7107 
       0.619772         26.8863         22.2885          27.307 
       0.625918           26.32         21.8358         26.8306 
       0.632068         26.0743         21.3944         26.3154 
       0.638161         25.5314         20.9684         25.8658 
         0.6443         25.1043         20.5509         25.3963 
       0.650464         24.4878         20.1433         25.0841 
       0.656582          24.334         19.7502         24.6587 
       0.662703         24.0172         19.3679          24.227 
       0.668861         23.3793         18.9939         23.9152 
       0.675024         23.0654           18.63         23.4464 
       0.681124         22.9463         18.2798          23.089 
       0.687237         22.4771         17.9384         22.6599 
       0.693381         21.9464         17.6044         22.3155 
       0.699536         21.8481         17.2784         21.9941 
       0.705665         21.4401         16.9622         21.7719 
       0.711789         21.0288         16.6541          21.379 
       0.717957         20.6056         16.3513         21.0286 
        0.72409         20.4353         16.0577         20.7618 
       0.730186         20.2864         15.7731         20.4132 
       0.736317         19.8632         15.4938          20.113 
       0.742472         19.6117         15.2203         19.9495 
       0.748622         19.3055         14.9539         19.5993 
        0.75476         18.8267         14.6946         19.2839 
       0.760888         18.7195          14.442         19.0475 
       0.767043         18.3731         14.1946         18.8303 
       0.773185         18.1642         13.9536         18.5758 
       0.779291          18.048         13.7197         18.3368 
       0.785407         17.6986         13.4909         18.0613 
       0.791564         17.5223          13.266         17.8331 
       0.797719         17.1721         13.0464         17.5424 
       0.803834           17.06         12.8332         17.3082 
       0.809972          16.743          12.624         17.1777 
       0.816124         16.5516         12.4191         16.8847 
       0.822261         16.3542         12.2193         16.6608 
       0.828378         16.1321         12.0246         16.4609 
       0.834502         15.9638          11.834         16.2777 
       0.840667         15.8047         11.6464         16.0477 
       0.846816           15.48         11.4634         15.8827 
       0.852925         15.3611         11.2855         15.7399 
       0.859047         15.1714         11.1111         15.5067 
       0.865192          14.961         10.9399         15.3123 
       0.871341         14.7443         10.7722         15.1611 
       0.877463         14.5962         10.6088         14.9457 
       0.883569         14.4725         10.4493          14.804 
       0.889708         14.2416         10.2923         14.6178 
       0.895864         14.0677         10.1382         14.4252 
       0.902008          13.881          9.9876         14.2873 
       0.908149         13.7048         9.84018         14.1231 
       0.914301         13.6185         9.69553         13.9937 
       0.920448         13.4124         9.55397         13.7725 
       0.926574         13.3342         9.41576         13.6434 
       0.932687         13.1229         9.28062         13.4246 
       0.938823         12.9459         9.14769         13.3411 
       0.944975         12.8353         9.01708         13.1714 
       0.951105         12.6594         8.88953         12.9997 
       0.957225         12.5815         8.76469         12.9366 
       0.963368         12.4221         8.64185         12.7599 
       0.969511         12.2808          8.5214         12.6463 
       0.975621         12.1403         8.40392          12.462 
       0.981748         11.9564         8.28837         12.3492 
       0.987916         11.8635         8.17429         12.2415 
        0.99406         11.7835         8.06282         12.1144 
        1.00019         11.6594         7.95367         12.0157 
        1.00632         11.5432         7.84666         11.8785 
        1.01246         11.4058         7.74149         11.7861 
        1.01859         11.2706         7.63843         11.6306 
        1.02471         11.1196         7.53741         11.4847 
        1.03085          11.083         7.43788         11.3871 
        1.03698         10.9589         7.34038         11.2929 
        1.04314         10.8411         7.24424         11.1678 
        1.04929         10.6804         7.15006         11.0705 
        1.05541         10.6173         7.05796         10.9755 
        1.06154         10.5194         6.96727         10.8649 
        1.06769         10.4678         6.87805         10.7761 
        1.07382         10.2812         6.79071         10.6728 
        1.07993         10.1759         6.70509         10.5687 
        1.08607         10.1273         6.62062         10.4492 
        1.09222         9.98748         6.53753         10.3498 
        1.09836         9.97302         6.45599         10.2481 
        1.10449           9.773         6.37594         10.1596 
        1.11063         9.74423         6.29718         10.0702 
        1.11677         9.65627         6.21979         9.98435 
         1.1229         9.56821         6.14386         9.90533 
        1.12903         9.49839         6.06914         9.83732 
        1.13518         9.34738         5.99561         9.74783 
        1.14131         9.27715         5.92336         9.63706 
        1.14745         9.16223         5.85235         9.52582 
        1.15359         9.09907          5.7825         9.46898 
        1.15973         9.01079         5.71378         9.38967 
        1.16584         8.94039         5.64649         9.33529 
        1.17197         8.85292         5.58021         9.23329 
        1.17811          8.7688         5.51479         9.14613 
        1.18424         8.69742         5.45063         9.07324 
        1.19038         8.63277         5.38731         8.99762 
        1.19652         8.56912         5.32503         8.93948 
        1.20267          8.4911         5.26375         8.83021 
        1.20881         8.40578         5.20345         8.78795 
        1.21495         8.33404         5.14421         8.71468 
        1.22108         8.27853          5.0859         8.64563 
         1.2272         8.18559         5.02865         8.55099 
        1.23334         8.16961         4.97215         8.49601 
        1.23949         8.06828          4.9164         8.44533 
        1.24562               8         4.86166         8.36921 
        1.25174         7.94979         4.80785         8.29261 
        1.25789         7.83667          4.7547         8.22769 
        1.26402         7.80169         4.70245          8.1464 
        1.27014         7.74912         4.65112         8.10003 
        1.27628         7.65547         4.60041         8.05435 
        1.28244         7.63173         4.55037         7.98866 
        1.28858         7.58034         4.50114         7.91753 
        1.29471         7.47133         4.45276         7.85642 
        1.30084         7.41465         4.40514         7.81144 
        1.30697         7.38102         4.35815         7.74528 
        1.31312         7.31531         4.31179         7.69325 
        1.31925         7.25665         4.26625         7.64316 
        1.32537          7.2113         4.22143         7.58743 
        1.33151         7.14396         4.17709         7.52926 
        1.33765         7.08812         4.13342         7.46049 
        1.34378         7.06254         4.09047         7.42365 
        1.34992         6.99503          4.0481         7.36462 
        1.35606          6.9427         4.00625         7.28852 
         1.3622         6.88751         3.96507         7.24727 
        1.36833         6.82722         3.92458         7.22266 
        1.37445         6.76773         3.88467         7.16034 
        1.38059         6.72937         3.84521         7.10488 
        1.38675         6.67211          3.8062         7.05119 
        1.39288         6.63261         3.76789         7.01067 
        1.39901         6.56509         3.73013         6.96725 
        1.40515         6.52597         3.69281          6.9132 
         1.4113         6.47914         3.65602         6.86525 
        1.41742         6.43278         3.61988         6.82529 
        1.42355         6.38102         3.58416         6.76187 
         1.4297          6.3497         3.54882         6.73375 
        1.43585         6.30349         3.51397         6.69813 
        1.44198         6.25315         3.47973         6.62931 
        1.44809         6.22188         3.44601         6.60709 
        1.45423          6.1707         3.41262         6.55034 
        1.46036         6.13182         3.37974         6.50809 
        1.46649         6.07663         3.34728         6.47624 
        1.47263         6.05237         3.31523         6.43463 
        1.47877         6.00523         3.28362         6.38578 
        1.48491         5.96846         3.25237         6.34657 
        1.49104          5.9195          3.2216         6.30154 
        1.49718         5.89018          3.1912         6.26584 
        1.50333         5.84438         3.16115          6.2317 
        1.50947         5.78839         3.13156         6.19131 
         1.5156          5.7739         3.10239         6.15195 
        1.52172          5.7354         3.07359          6.1151 
        1.52787         5.69564         3.04511         6.06798 
          1.534         5.65572         3.01702         6.02905 
        1.54013           5.617         2.98932         5.99575 
        1.54627         5.58206         2.96192         5.96274 
        1.55241         5.53666         2.93486         5.92494 
        1.55855         5.51586         2.90817          5.8781 
        1.56467         5.47458          2.8819         5.85688 
         1.5708         5.43871         2.85588         5.82327 
        1.57695         5.38789         2.83015         5.78088 
        1.58308         5.35526         2.80479         5.75686 
        1.58922         5.33917         2.77973         5.72353 
        1.59535         5.29998         2.75499         5.68465 
         1.6015         5.25566         2.73052         5.64691 
        1.60764         5.23442         2.70635         5.62064 
        1.61376         5.20076         2.68255         5.59715 
        1.61989         5.15331         2.65902         5.55993 
        1.62604         5.12883         2.63572         5.52496 
        1.63218         5.10303         2.61272         5.49711 
        1.63831         5.08297         2.59005         5.46651 
        1.64444         5.04037         2.56763         5.42865 
        1.65059          5.0164         2.54544         5.40078 
        1.65673          4.9811         2.52353         5.37239 
        1.66285         4.95105         2.50194         5.34168 
        1.66898         4.91805          2.4806          5.3121 
        1.67512          4.8848         2.45947         5.28382 
        1.68127         4.85207         2.43857         5.26011 
         1.6874         4.84232         2.41796         5.23268 
        1.69353         4.78934          2.3976         5.19404 
        1.69967         4.77379         2.37743         5.16367 
        1.70581         4.74622          2.3575         5.14512 
        1.71193         4.71387         2.33788         5.12562 
        1.71806         4.68956         2.31844         5.09056 
        1.72421         4.66081         2.29918          5.0593 
        1.73035         4.63105         2.28017         5.03286 
        1.73649         4.60928         2.26137         5.00562 
        1.74262         4.58233         2.24281         4.97724 
        1.74876          4.5575         2.22444         4.95719 
        1.75489         4.53391         2.20632         4.93297 
        1.76101         4.50049         2.18841         4.89783 
        1.76715          4.4883         2.17067         4.86939 
        1.77329         4.45536         2.15311         4.85023 
        1.77943         4.42709         2.13574         4.82948 
        1.78557         4.40336         2.11859         4.80122 
        1.79171         4.38878         2.10162         4.77474 
        1.79785         4.35693         2.08484         4.75088 
        1.80399         4.32819         2.06825         4.72714 
        1.81012         4.30571         2.05186         4.70792 
        1.81625         4.28372         2.03565         4.68496 
        1.82239         4.26125          2.0196         4.66078 
        1.82853         4.23523         2.00373         4.64704 
        1.83466         4.20301         1.98805         4.62839 
        1.84078         4.18472         1.97255         4.59815 
        1.84692         4.16399         1.95719         4.56469 
        1.85306          4.1423         1.94198         4.54178 
         1.8592         4.12568         1.92696         4.52594 
        1.86533         4.09786          1.9121         4.50615 
        1.87147         4.07975         1.89739         4.48721 
