# k  (h/Mpc)    Pcb(k)  (Mpc/h)^3    Pcb_linear(k) (Mpc/h)^3    Pcb_NL(k) (Mpc/h)^3   ShotnoiseSubtracted = false
     0.00783031         11995.9         12039.3         12024.9 
       0.013688         15683.3         16089.2         15992.9 
       0.019231         17100.4           17377         17211.5 
      0.0249154         17017.5         17066.6         16862.5 
      0.0312784         15444.6         15699.7           15453 
      0.0375637         13686.3         14042.7         13783.4 
      0.0433917         12447.2         12639.5         12351.4 
      0.0492413         11221.3         11516.8         11224.2 
      0.0555754         10400.9         10623.1         10332.9 
      0.0619321         9434.95         9956.97         9658.01 
       0.067871         9038.44         9418.28          9123.7 
      0.0738098         8559.31         8862.26         8491.39 
      0.0800417         7927.29         8209.03         7848.85 
      0.0862327         7210.14         7498.26         7220.04 
      0.0921407         6576.55         6811.28         6550.29 
      0.0982031         6036.73         6158.79         5993.09 
       0.104506         5422.52         5587.67         5505.56 
       0.110769         5027.34         5149.68         5040.38 
       0.116806         4818.66         4839.77         4733.17 
       0.122832         4539.67         4609.64         4526.87 
       0.129052         4328.72         4413.48         4337.34 
       0.135211         4217.64         4221.63         4141.71 
       0.141259         3943.78         4011.01         3970.86 
       0.147318         3674.37          3771.8         3764.34 
       0.153489         3481.93         3509.65         3468.98 
       0.159709         3342.93         3247.51         3269.29 
       0.165845         3054.26         3012.13         3126.88 
       0.171974         2971.65         2814.39         2949.98 
       0.178125         2877.91         2657.78         2861.06 
       0.184229         2661.07         2538.65         2729.73 
        0.19034         2629.89         2444.11         2640.31 
       0.196428         2564.73         2360.65         2536.11 
       0.202534         2425.01          2275.5         2464.42 
       0.208729         2379.77         2180.01         2348.43 
       0.214876         2287.41         2074.89         2289.91 
       0.220989         2176.21         1964.21         2214.85 
       0.227147         2121.42         1853.71         2133.21 
        0.23329         2041.07         1751.69         2070.24 
       0.239377          2027.3          1663.7         1994.83 
       0.245482         1937.62         1590.21         1913.02 
       0.251667         1868.15         1529.22         1875.16 
       0.257832         1843.95         1477.97         1821.62 
       0.263955         1766.88         1431.69         1774.55 
       0.270079         1729.31         1385.63         1727.78 
        0.27624         1658.02         1336.85         1677.75 
       0.282372         1642.43         1285.13         1643.95 
        0.28843         1615.65          1232.1         1604.09 
       0.294538         1545.47         1178.97         1561.68 
       0.300721         1518.08         1128.05         1517.83 
        0.30691         1484.06         1081.89          1497.1 
       0.313033         1431.21         1041.73         1454.45 
       0.319153         1417.44         1006.83         1417.06 
       0.325316         1400.94         975.681         1399.49 
        0.33145         1374.84         947.095            1353 
       0.337538         1333.08         919.515         1333.39 
       0.343633         1303.46         891.673         1318.96 
       0.349808         1282.07         862.784         1296.41 
       0.355968         1256.93         833.511         1275.71 
       0.362074         1223.59          804.75         1249.98 
       0.368217         1220.23         776.856         1219.47 
       0.374374            1202          750.71         1199.87 
       0.380519         1163.27         726.749            1178 
       0.386598         1159.12         705.173         1162.49 
       0.392688         1131.44         685.367         1138.31 
        0.39888         1109.16          666.51         1125.04 
       0.405048         1090.38         648.503         1110.52 
       0.411186         1085.04          630.89         1088.05 
       0.417313          1084.2         613.353          1073.6 
       0.423458          1050.6         595.866          1056.3 
       0.429607          1023.2         578.587         1037.03 
       0.435692         1016.25         561.962         1019.41 
       0.441815          998.07         545.979         1016.77 
       0.447964         987.714         530.829         1001.67 
       0.454126         974.445         516.569         976.365 
       0.460267         963.546         503.245         975.629 
       0.466387         950.051         490.679         957.163 
        0.47254         932.222         478.544         946.687 
       0.478662         922.185          466.81         934.745 
       0.484765         914.296         455.365         922.942 
       0.490885         903.516         444.077         907.559 
       0.497035         888.807         432.928         900.077 
       0.503198         887.326         422.046         889.775 
       0.509342         871.792         411.573         875.632 
       0.515458         854.614         401.565         871.469 
       0.521598         852.647         391.946         862.763 
       0.527764         833.497         382.722         853.438 
       0.533884         826.667         373.973         844.045 
           0.54         819.775         365.563         835.172 
       0.546137         810.185         357.382         825.496 
       0.552299         804.764         349.372         814.396 
       0.558452         796.909         341.565         808.454 
       0.564573         789.697         333.991         801.131 
       0.570708          783.09         326.594         793.404 
       0.576825         767.419         319.421         782.367 
       0.582926         765.408         312.483         776.115 
       0.589034         756.737         305.766         764.696 
       0.595184         748.319         299.245         759.324 
       0.601379         736.768         292.916         753.443 
       0.607522         727.564          286.85          743.62 
       0.613639         726.434         280.989         740.461 
       0.619772         720.369         275.268         738.724 
       0.625918         710.391         269.678         729.444 
       0.632068         705.638         264.226         724.185 
       0.638161         696.285         258.966         712.248 
         0.6443         690.689         253.808         709.351 
       0.650464         685.303         248.776         699.374 
       0.656582         679.957          243.92         694.533 
       0.662703         671.091         239.198         690.713 
       0.668861         665.095          234.58         687.011 
       0.675024         660.356         230.086         682.713 
       0.681124          650.58         225.761          671.41 
       0.687237         650.007         221.544         666.534 
       0.693381         639.256         217.418         660.821 
       0.699536         638.693         213.393         656.413 
       0.705665         631.409         209.487         650.393 
       0.711789         629.607         205.682         644.875 
       0.717957         620.977         201.943         643.029 
        0.72409         615.732         198.317         637.543 
       0.730186          614.21         194.802         631.927 
       0.736317         606.213         191.352         625.893 
       0.742472         598.937         187.975         621.136 
       0.748622         596.216         184.684         616.258 
        0.75476         590.321         181.482          616.56 
       0.760888         587.032         178.363         609.147 
       0.767043         584.353         175.307         602.742 
       0.773185         580.449         172.331         599.195 
       0.779291         573.143         169.442         593.928 
       0.785407         569.225         166.617         590.599 
       0.791564         565.175         163.839         588.611 
       0.797719         557.244         161.126         582.528 
       0.803834           558.5         158.493         579.563 
       0.809972         550.856          155.91         576.573 
       0.816124          546.27         153.379         568.582 
       0.822261         543.027         150.912         565.773 
       0.828378         540.301         148.507         562.218 
       0.834502         532.222         146.153         560.432 
       0.840667         531.535         143.836         556.166 
       0.846816         525.764         141.576         552.225 
       0.852925          524.39         139.379         548.679 
       0.859047         519.611         137.225         543.821 
       0.865192         516.611          135.11         540.431 
       0.871341             510          133.04         537.822 
       0.877463         508.253         131.022         534.397 
       0.883569         502.984         129.052         530.611 
       0.889708         498.237         127.113          526.18 
       0.895864         493.942         125.209         523.494 
       0.902008          492.78         123.349         520.432 
       0.908149         488.567         121.529         515.718 
       0.914301         486.509         119.742         512.285 
       0.920448         480.647         117.994         509.474 
       0.926574         478.694         116.287         505.837 
       0.932687         476.609         114.618         502.802 
       0.938823         470.566         112.976         501.471 
       0.944975         468.221         111.363         497.641 
       0.951105         464.899         109.788         493.107 
       0.957225         458.185         108.246         491.926 
       0.963368         459.343         106.729         488.511 
       0.969511         451.717         105.241         484.977 
       0.975621         451.544          103.79          482.14 
       0.981748          448.33         102.363         478.696 
       0.987916         445.449         100.955         477.667 
        0.99406         441.333         99.5778         474.077 
        1.00019         436.985         98.2298         468.996 
        1.00632         436.104         96.9082         466.712 
        1.01246         432.627         95.6093         463.953 
        1.01859         428.038         94.3366         460.538 
        1.02471         426.015         93.0889         459.209 
        1.03085         423.823         91.8597         457.675 
        1.03698           421.2         90.6556         455.069 
        1.04314         418.205         89.4682         451.979 
        1.04929         415.978         88.3051          448.26 
        1.05541         410.126         87.1676         445.297 
        1.06154         409.256         86.0475         442.676 
        1.06769           405.2         84.9456         439.775 
        1.07382          402.99         83.8669         437.486 
        1.07993         401.176         82.8096         435.281 
        1.08607          398.04         81.7663         432.091 
        1.09222         394.805         80.7402         429.371 
        1.09836         392.526          79.733         428.348 
        1.10449         389.514         78.7445          425.53 
        1.11063         386.799         77.7718         422.042 
        1.11677         382.805          76.816         420.548 
         1.1229         381.842         75.8782         418.091 
        1.12903         378.748         74.9554         415.823 
        1.13518         376.309         74.0473         413.189 
        1.14131         374.895         73.1549         410.794 
        1.14745         369.937          72.278         408.568 
        1.15359         367.489         71.4153         406.649 
        1.15973         366.034         70.5666         404.202 
        1.16584         364.195         69.7356         401.822 
        1.17197         361.294         68.9169         399.673 
        1.17811         357.511          68.109         397.697 
        1.18424         355.875         67.3166         396.028 
        1.19038         353.965         66.5346         393.636 
        1.19652         350.023         65.7654         391.443 
        1.20267         349.334         65.0086         388.591 
        1.20881          347.37         64.2639         386.707 
        1.21495         343.571         63.5322         384.241 
        1.22108         342.307         62.8121         382.114 
         1.2272          337.62          62.105         379.532 
        1.23334         336.817         61.4073         377.412 
        1.23949         334.644         60.7187         376.117 
        1.24562         333.826         60.0428         374.195 
        1.25174         330.188         59.3782         372.225 
        1.25789         327.748         58.7217          370.26 
        1.26402          326.37         58.0764         368.547 
        1.27014         324.647         57.4425         365.712 
        1.27628         321.333         56.8162         364.945 
        1.28244         319.445         56.1982         363.351 
        1.28858         317.806         55.5902         360.743 
        1.29471         316.125         54.9927         358.126 
        1.30084         314.257         54.4046         356.443 
        1.30697         310.964         53.8243         355.084 
        1.31312         308.922         53.2517         353.237 
        1.31925         307.426         52.6893         350.782 
        1.32537         305.659         52.1356         348.685 
        1.33151         302.897         51.5881          347.48 
        1.33765          300.68         51.0488          345.68 
        1.34378         298.539         50.5183         343.589 
        1.34992         296.168         49.9951         341.223 
        1.35606         294.675         49.4782         339.525 
         1.3622         293.168         48.9696         338.204 
        1.36833         291.639         48.4695         336.884 
        1.37445         289.997         47.9767         334.196 
        1.38059         286.904         47.4892         333.315 
        1.38675         285.427         47.0075         332.031 
        1.39288         284.353         46.5344         328.833 
        1.39901           281.5         46.0681         327.385 
        1.40515         280.118         45.6071         325.668 
         1.4113         277.889         45.1528          323.72 
        1.41742         275.301         44.7063         322.481 
        1.42355         275.456         44.2652           320.7 
         1.4297         272.758         43.8287         319.019 
        1.43585         269.809         43.3984         318.078 
        1.44198           268.9         42.9755         315.872 
        1.44809          267.52         42.5591         314.791 
        1.45423         265.454         42.1467         312.131 
        1.46036          263.98         41.7406         310.761 
        1.46649           262.6         41.3398         309.698 
        1.47263         259.865         40.9439         307.822 
        1.47877         258.627         40.5535         305.955 
        1.48491          256.54         40.1675         304.355 
        1.49104         254.767         39.7875          302.86 
        1.49718         253.355         39.4121         301.857 
        1.50333         251.065          39.041          300.64 
        1.50947         250.459         38.6755         299.056 
         1.5156         248.186         38.3152         297.137 
        1.52172          246.61         37.9596          295.14 
        1.52787         244.892         37.6078         294.002 
          1.534         244.393         37.2609         292.842 
        1.54013         241.946         36.9188         291.231 
        1.54627         240.778         36.5804         289.846 
        1.55241         238.944         36.2462         288.697 
        1.55855         237.882         35.9167         287.291 
        1.56467         236.013         35.5922         285.341 
         1.5708         234.641         35.2708         283.788 
        1.57695         233.162          34.953         282.648 
        1.58308         231.856         34.6398         281.133 
        1.58922         229.975         34.3303         279.695 
        1.59535         228.063         34.0248           278.7 
         1.6015         227.038         33.7225          277.28 
        1.60764         225.554         33.4241         275.525 
        1.61376         223.486         33.1302          274.28 
        1.61989         222.139         32.8396         273.121 
        1.62604          220.56         32.5518         271.665 
        1.63218         219.346         32.2677         270.496 
        1.63831         218.777         31.9877          269.41 
        1.64444         216.586         31.7109          267.71 
        1.65059         215.845         31.4368         266.556 
        1.65673          213.79         31.1662         265.418 
        1.66285         212.818         30.8996         263.911 
        1.66898         211.522          30.636         262.334 
        1.67512         209.679          30.375         261.391 
        1.68127         208.765         30.1169         260.125 
         1.6874         207.263         29.8623         258.806 
        1.69353         206.108         29.6109         258.022 
        1.69967         204.693         29.3618         256.467 
        1.70581         203.559         29.1157         255.132 
        1.71193         202.056         28.8733         254.121 
        1.71806          200.45         28.6332         252.579 
        1.72421         199.534         28.3954         251.519 
        1.73035         197.821         28.1606         250.307 
        1.73649          196.41         27.9285         248.859 
        1.74262          195.61         27.6992         248.186 
        1.74876         194.409         27.4724         246.987 
        1.75489         193.261         27.2486         245.591 
        1.76101         192.095         27.0274          244.63 
        1.76715         190.593         26.8083         243.621 
        1.77329         188.919         26.5915         242.434 
        1.77943         187.975         26.3769         241.175 
        1.78557         187.129         26.1651         239.969 
        1.79171           186.2         25.9555         238.929 
        1.79785         184.829         25.7483         237.856 
        1.80399         183.556         25.5433         236.636 
        1.81012         182.364         25.3409         235.787 
        1.81625         181.114         25.1408         234.738 
        1.82239         179.862         24.9425         233.366 
        1.82853          179.17         24.7465         232.317 
        1.83466         177.621         24.5529         231.178 
        1.84078         176.664         24.3615         230.039 
        1.84692         175.686         24.1718         229.355 
        1.85306         174.236         23.9839         228.201 
         1.8592         173.504         23.7984         226.942 
        1.86533         171.814         23.6149         226.346 
        1.87147         171.097         23.4332         225.489 
