# k  (h/Mpc)    P(k)  (Mpc/h)^3    P_linear(k)  (Mpc/h)^3     P_NL(k)  ShotnoiseSubtracted = false
     0.00783031          9747.7         9785.19         9775.45 
       0.013688           12776         13077.5         13006.7 
       0.019231         13925.8         14124.6         14003.6 
      0.0249154         13844.4         13872.6         13729.1 
      0.0312784         12587.8         12761.6           12594 
      0.0375637         11167.3         11414.8         11239.5 
      0.0433917         10151.5         10274.2         10080.8 
      0.0492413         9160.26         9361.65         9165.55 
      0.0555754         8494.53         8635.18          8439.9 
      0.0619321         7726.08         8093.75         7891.97 
       0.067871          7399.1         7655.88          7456.2 
      0.0738098         7000.07         7203.91          6952.1 
      0.0800417         6488.74         6672.93         6427.72 
      0.0862327         5900.84         6095.16         5906.04 
      0.0921407         5376.92         5536.73         5358.51 
      0.0982031         4927.79         5006.35         4894.37 
       0.104506         4425.88          4542.1         4487.43 
       0.110769         4100.08         4186.07         4110.48 
       0.116806         3927.19         3934.15         3860.68 
       0.122832         3696.68         3747.08         3690.49 
       0.129052         3532.46         3587.63         3534.76 
       0.135211         3435.51         3431.68         3377.28 
       0.141259         3216.29         3260.47         3232.39 
       0.147318         2992.48         3066.02         3062.91 
       0.153489         2831.34         2852.92         2824.04 
       0.159709         2706.79         2639.84         2655.17 
       0.165845          2470.3          2448.5         2530.75 
       0.171974         2402.33         2287.77         2382.75 
       0.178125          2317.7         2160.45         2304.37 
       0.184229         2147.21         2063.62         2200.29 
        0.19034         2117.51         1986.77         2126.13 
       0.196428         2062.15         1918.93         2040.08 
       0.202534         1945.54         1849.71          1980.6 
       0.208729         1911.01         1772.09         1888.04 
       0.214876         1837.12         1686.64         1839.34 
       0.220989         1737.16         1596.67         1773.74 
       0.227147          1694.9         1506.85         1702.06 
        0.23329         1630.15         1423.92         1650.28 
       0.239377         1612.38         1352.39         1589.29 
       0.245482         1537.48         1292.66          1521.3 
       0.251667          1481.8         1243.07         1489.75 
       0.257832            1465         1201.42         1445.57 
       0.263955         1399.05          1163.8         1405.96 
       0.270079         1364.98         1126.35         1367.93 
        0.27624         1309.17          1086.7         1326.76 
       0.282372         1292.43         1044.66         1294.98 
        0.28843         1276.37         1001.55          1259.4 
       0.294538         1216.48         958.366         1226.71 
       0.300721         1189.73         916.966         1192.76 
        0.30691         1166.84         879.446         1172.96 
       0.313033         1122.03         846.803         1137.68 
       0.319153         1108.63         818.437         1109.35 
       0.325316         1094.63         793.113         1093.67 
        0.33145         1074.43         769.875         1056.77 
       0.337538         1039.32         747.458         1038.85 
       0.343633         1013.84         724.825         1027.44 
       0.349808         994.334          701.34         1008.57 
       0.355968         976.509         677.546         991.134 
       0.362074         948.004         654.166          969.67 
       0.368217         944.659         631.492         943.785 
       0.374374         930.527          610.24         927.926 
       0.380519         898.203         590.759          909.36 
       0.386598         892.005         573.224         897.401 
       0.392688          873.48         557.122         877.136 
        0.39888         852.563         541.794         866.163 
       0.405048         839.132         527.156         856.233 
       0.411186         835.868         512.839          836.31 
       0.417313         831.956         498.583         822.089 
       0.423458         806.096          484.37         810.126 
       0.429607         784.861         470.323         793.872 
       0.435692         777.269         456.808         780.719 
       0.441815         764.489         443.817         776.722 
       0.447964         753.318         431.502          763.77 
       0.454126         743.975         419.908         745.471 
       0.460267         733.712          409.08         743.494 
       0.466387         723.915         398.864         729.338 
        0.47254         711.113             389         721.465 
       0.478662         700.372         379.461         710.372 
       0.484765         694.549         370.158         698.987 
       0.490885         686.908         360.982         688.938 
       0.497035         674.853         351.919         682.733 
       0.503198         673.916         343.074           673.6 
       0.509342         660.697          334.56          664.59 
       0.515458         648.673         326.425         660.921 
       0.521598         642.972         318.606         651.695 
       0.527764         630.647         311.108         643.838 
       0.533884         627.329         303.996         636.609 
           0.54         620.388          297.16         628.993 
       0.546137         610.668          290.51         621.647 
       0.552299         608.797         283.998         613.491 
       0.558452         601.024         277.652         608.392 
       0.564573         594.221         271.495         603.225 
       0.570708         589.895         265.482         598.008 
       0.576825         578.448         259.652         588.289 
       0.582926         575.599         254.012         582.528 
       0.589034         568.214         248.551         574.457 
       0.595184         563.228         243.251         569.302 
       0.601379         554.495         238.107          565.19 
       0.607522         546.424         233.175         558.613 
       0.613639         544.655         228.411          554.91 
       0.619772         541.731         223.761         553.287 
       0.625918          532.78         219.217         546.201 
       0.632068         528.591         214.785          540.44 
       0.638161         522.801         210.509         533.627 
         0.6443         518.449         206.316          530.82 
       0.650464         512.985         202.225         522.412 
       0.656582         508.587         198.278         518.264 
       0.662703         503.746          194.44           516.5 
       0.668861         498.057         190.686         512.387 
       0.675024         494.076         187.033         508.073 
       0.681124         488.429         183.517         500.408 
       0.687237          485.79         180.089          496.37 
       0.693381         479.621         176.735          492.52 
       0.699536         476.447         173.463         489.388 
       0.705665         471.728         170.288         485.028 
       0.711789         470.735         167.195         480.814 
       0.717957         463.346         164.156         478.315 
        0.72409         459.485         161.208         474.535 
       0.730186         460.711         158.351         470.741 
       0.736317         452.865         155.547         465.719 
       0.742472         447.999         152.802         461.696 
       0.748622         444.405         150.127         458.094 
        0.75476         441.978         147.523         457.752 
       0.760888         438.511         144.988         452.132 
       0.767043         435.429         142.504         448.749 
       0.773185         433.087         140.084         445.501 
       0.779291         426.688         137.736         441.492 
       0.785407         424.831          135.44         438.928 
       0.791564         420.957         133.182          436.31 
       0.797719         415.002         130.977         432.564 
       0.803834         417.685         128.836         430.211 
       0.809972         411.301         126.736         427.291 
       0.816124         407.153         124.679         421.954 
       0.822261         403.639         122.673         419.887 
       0.828378         402.602         120.719         416.913 
       0.834502         396.493         118.805         415.107 
       0.840667         396.423         116.921         412.001 
       0.846816         390.447         115.084         409.325 
       0.852925          390.28         113.299         406.381 
       0.859047         386.443         111.548         403.434 
       0.865192          385.35         109.829         400.839 
       0.871341         379.879         108.145          398.35 
       0.877463         376.618         106.505         395.874 
       0.883569          374.38         104.904         393.476 
       0.889708         371.258         103.328         390.095 
       0.895864         368.646         101.781         387.991 
       0.902008         366.664         100.268         385.423 
       0.908149         363.731         98.7885         381.941 
       0.914301         361.734         97.3364          380.05 
       0.920448         358.991         95.9152         376.779 
       0.926574         356.839         94.5277         374.591 
       0.932687         354.087          93.171         371.714 
       0.938823         350.646         91.8364         371.207 
       0.944975         349.108         90.5252         368.735 
       0.951105         346.275         89.2446         365.652 
       0.957225         342.057         87.9914         363.729 
       0.963368         342.283         86.7582         361.011 
       0.969511         336.216         85.5489         358.553 
       0.975621         336.563         84.3694         357.389 
       0.981748         333.968         83.2094         354.782 
       0.987916         331.894         82.0642         353.336 
        0.99406         328.941          80.945         351.141 
        1.00019         326.116         79.8492         347.642 
        1.00632          326.03          78.775         345.578 
        1.01246         323.256         77.7191         343.459 
        1.01859         319.077         76.6845         341.494 
        1.02471         317.053         75.6703         340.277 
        1.03085         316.641         74.6711         338.584 
        1.03698         313.841         73.6923         336.797 
        1.04314         313.183         72.7271         334.345 
        1.04929         310.509         71.7816          331.88 
        1.05541         307.002          70.857         329.936 
        1.06154         305.595         69.9465         328.092 
        1.06769         302.509         69.0508         326.243 
        1.07382          302.31         68.1739         324.135 
        1.07993         299.062         67.3144         322.636 
        1.08607         296.812         66.4664         320.572 
        1.09222         295.381         65.6322         318.567 
        1.09836         293.944         64.8136         317.683 
        1.10449         291.616           64.01         315.496 
        1.11063         288.827         63.2193         313.418 
        1.11677         287.186         62.4424         311.696 
         1.1229         285.505           61.68         310.305 
        1.12903         284.229         60.9299         308.736 
        1.13518         281.816         60.1917         306.703 
        1.14131         281.128         59.4663         305.101 
        1.14745         277.084         58.7535         303.374 
        1.15359         275.194         58.0523         301.656 
        1.15973         274.433         57.3623         299.893 
        1.16584         273.219         56.6868          297.52 
        1.17197         270.884         56.0214         296.452 
        1.17811          268.51         55.3646         295.352 
        1.18424         266.937         54.7205         293.825 
        1.19038         265.548         54.0848         292.188 
        1.19652         262.535         53.4596         290.875 
        1.20267         262.339         52.8443         288.376 
        1.20881         260.034          52.239         287.584 
        1.21495          259.11         51.6442          285.35 
        1.22108         257.122         51.0589         283.933 
         1.2272         254.449         50.4841         281.737 
        1.23334         253.493         49.9169         280.649 
        1.23949         252.564         49.3572         280.001 
        1.24562         250.627         48.8077         278.107 
        1.25174         248.759         48.2675         276.981 
        1.25789         246.642         47.7338         275.405 
        1.26402         246.356         47.2093         273.702 
        1.27014         244.832          46.694         272.566 
        1.27628         241.994         46.1849         271.705 
        1.28244         241.296         45.6825         269.957 
        1.28858         239.501         45.1883         268.314 
        1.29471         238.373         44.7026         266.531 
        1.30084         236.768         44.2245         265.255 
        1.30697         234.506         43.7528         264.278 
        1.31312         233.184         43.2873          262.57 
        1.31925          231.85         42.8302         260.855 
        1.32537         231.043         42.3801         259.899 
        1.33151         229.015          41.935         258.701 
        1.33765          227.38         41.4966         257.104 
        1.34378         226.014         41.0654         255.902 
        1.34992         224.612         40.6401         254.258 
        1.35606         223.441           40.22         252.812 
         1.3622         222.104         39.8065         251.701 
        1.36833         219.954            39.4         250.702 
        1.37445         219.544         38.9994         248.851 
        1.38059         217.675         38.6032         248.104 
        1.38675         216.179         38.2115         246.916 
        1.39288         215.028          37.827         244.767 
        1.39901         213.586         37.4479         244.133 
        1.40515         212.488         37.0732         243.113 
         1.4113         210.796         36.7039         241.514 
        1.41742         209.047          36.341         240.388 
        1.42355         209.467         35.9824         239.523 
         1.4297          207.14         35.6276          238.18 
        1.43585         205.785         35.2778         237.057 
        1.44198         203.962          34.934         235.705 
        1.44809         203.004         34.5955         234.564 
        1.45423         202.127         34.2603          233.17 
        1.46036         200.701         33.9302         232.032 
        1.46649         199.573         33.6044         231.314 
        1.47263         198.536         33.2826         230.503 
        1.47877         197.207         32.9652         228.901 
        1.48491         195.272         32.6515          227.73 
        1.49104         193.611         32.3425         226.846 
        1.49718          192.85         32.0374         225.415 
        1.50333         191.658         31.7357         224.495 
        1.50947         190.777         31.4386         223.562 
         1.5156         189.538         31.1458         222.272 
        1.52172         188.311         30.8567         221.002 
        1.52787         187.302         30.5707         220.076 
          1.534         186.175         30.2887         218.968 
        1.54013         185.047         30.0106         217.968 
        1.54627         184.004         29.7355         217.066 
        1.55241         182.795         29.4639          215.94 
        1.55855         182.009          29.196         214.715 
        1.56467         180.294         28.9323         213.665 
         1.5708         179.086          28.671         212.867 
        1.57695         178.332         28.4127          211.88 
        1.58308         177.034         28.1581         210.715 
        1.58922         176.155         27.9065         209.723 
        1.59535         174.607         27.6581         208.762 
         1.6015         173.497         27.4124         207.597 
        1.60764          172.75         27.1699         206.507 
        1.61376         171.347         26.9309         205.799 
        1.61989          170.47         26.6947         205.023 
        1.62604         169.156         26.4608         203.941 
        1.63218          168.52         26.2298         202.958 
        1.63831         167.502         26.0022          202.03 
        1.64444         166.242         25.7772         200.851 
        1.65059         165.412         25.5544         200.113 
        1.65673         164.152         25.3344         199.177 
        1.66285         163.519         25.1177         198.098 
        1.66898         162.263         24.9035         197.214 
        1.67512         161.385         24.6913          196.36 
        1.68127         160.202         24.4815         195.489 
         1.6874         159.381         24.2746          194.72 
        1.69353         158.597         24.0702         194.002 
        1.69967         157.292         23.8677         192.806 
        1.70581          156.78         23.6676         191.794 
        1.71193         155.274         23.4706         190.984 
        1.71806         154.342         23.2754         189.841 
        1.72421         153.707         23.0821         189.132 
        1.73035         152.624         22.8912          188.34 
        1.73649         151.395         22.7026         187.319 
        1.74262          150.82         22.5162         186.753 
        1.74876          149.87         22.3318         185.905 
        1.75489         148.914         22.1499         184.886 
        1.76101         147.876         21.9701         184.045 
        1.76715         146.898          21.792         183.212 
        1.77329         146.347         21.6157         182.283 
        1.77943         144.999         21.4413         181.362 
        1.78557         144.558         21.2691          180.58 
        1.79171         143.594         21.0988         179.939 
        1.79785         142.563         20.9303         179.199 
        1.80399         141.743         20.7637          178.21 
        1.81012         140.461         20.5992         177.364 
        1.81625         140.237         20.4365         176.699 
        1.82239         139.006         20.2754         176.001 
        1.82853         138.505          20.116         175.161 
        1.83466         137.385         19.9586         174.219 
        1.84078         136.699          19.803         173.386 
        1.84692         136.268         19.6488         172.833 
        1.85306         134.931         19.4961         172.033 
         1.8592         134.339         19.3453         171.196 
        1.86533         133.139         19.1961         170.682 
        1.87147         132.734         19.0484         169.883 
        1.87761         131.569         18.9022         168.982 
