# k  (h/Mpc)    Pcb(k)  (Mpc/h)^3    Pcb_linear(k) (Mpc/h)^3    Pcb_NL(k) (Mpc/h)^3   ShotnoiseSubtracted = false
     0.00783031         10917.7         10958.4         10946.3 
       0.013688         14290.9           14645         14561.5 
       0.019231         15579.8         15817.4         15674.2 
      0.0249154         15496.9           15535         15361.5 
      0.0312784           14077         14290.8         14084.3 
      0.0375637         12481.1         12782.5           12566 
      0.0433917         11348.7         11505.3         11265.3 
      0.0492413         10235.5         10483.4         10239.8 
      0.0555754         9489.52         9669.82         9427.85 
      0.0619321            8619         9063.52         8813.85 
       0.067871         8255.78         8573.17         8326.69 
      0.0738098         7814.35         8067.04         7756.49 
      0.0800417         7240.42         7472.44         7170.41 
      0.0862327         6584.85         6825.44         6592.28 
      0.0921407         6003.23         6200.11         5980.85 
      0.0982031         5506.24         5606.17          5467.6 
       0.104506         4945.62         5086.29         5018.02 
       0.110769         4583.41         4687.61         4595.08 
       0.116806         4391.82         4405.51          4315.4 
       0.122832         4135.69         4196.03         4126.31 
       0.129052         3947.67         4017.47         3952.83 
       0.135211         3843.04         3842.83         3775.64 
       0.141259          3595.5         3651.11         3616.76 
       0.147318         3347.38         3433.36         3428.02 
       0.153489         3169.77         3194.74          3159.7 
       0.159709          3037.1         2956.12         2974.43 
       0.165845         2773.13         2741.86          2840.2 
       0.171974         2697.82         2561.87         2676.86 
       0.178125         2607.98          2419.3         2592.73 
       0.184229         2413.42         2310.87         2474.61 
        0.19034         2382.77         2224.81         2392.41 
       0.196428         2322.14         2148.84          2296.7 
       0.202534         2193.07         2071.33         2230.84 
       0.208729         2153.35          1984.4         2126.04 
       0.214876         2069.81         1888.72         2072.37 
       0.220989         1963.38         1787.97         2001.55 
       0.227147         1914.77         1687.38         1924.32 
        0.23329         1842.02         1594.52         1866.84 
       0.239377         1826.14         1514.42         1798.36 
       0.245482         1743.33         1447.53         1723.02 
       0.251667         1680.53            1392         1688.23 
       0.257832         1660.14         1345.36         1639.06 
       0.263955         1588.09         1303.23         1595.41 
       0.270079         1551.92          1261.3         1552.91 
        0.27624         1488.24          1216.9         1507.15 
       0.282372         1471.83         1169.82         1473.89 
        0.28843          1450.7         1121.54         1435.87 
       0.294538         1385.05         1073.19         1398.32 
       0.300721         1357.71         1026.83         1359.25 
        0.30691         1329.49         984.812         1338.88 
       0.313033         1280.17         948.261         1299.73 
       0.319153         1266.46         916.493         1266.83 
       0.325316         1251.32         888.136         1250.07 
        0.33145         1228.18         862.115          1208.2 
       0.337538         1189.41          837.01          1189.3 
       0.343633          1161.7         811.666         1176.41 
       0.349808            1141         785.369         1155.56 
       0.355968         1119.73         758.722         1136.39 
       0.362074         1088.27         732.542         1112.68 
       0.368217         1085.01         707.151         1084.28 
       0.374374         1069.06         683.351         1066.55 
       0.380519         1033.21          661.54         1046.11 
       0.386598         1027.83           641.9         1032.53 
       0.392688         1004.89         623.871         1009.91 
        0.39888          982.85         606.706         997.915 
       0.405048         966.828         590.315         985.765 
       0.411186         962.797         574.283         964.328 
       0.417313         960.444         558.319         949.831 
       0.423458          930.46         542.401         935.416 
       0.429607         905.771         526.672         917.365 
       0.435692         898.675         511.539         902.068 
       0.441815         883.145          496.99         898.592 
       0.447964         872.223         483.199         884.401 
       0.454126         860.879         470.219          862.63 
       0.460267         850.198         458.091         861.256 
       0.466387         838.639         446.652         844.906 
        0.47254         823.167         435.606         835.807 
       0.478662         812.806         424.924         824.145 
       0.484765         805.978         414.506         812.406 
       0.490885         796.662         404.231         799.717 
       0.497035         783.293         394.083         792.818 
       0.503198         781.967         384.177         783.013 
       0.509342         767.789         374.644         771.493 
       0.515458         753.031         365.534         767.615 
       0.521598         748.962         356.778         758.559 
       0.527764         733.225         348.381         749.907 
       0.533884         728.213         340.418         741.524 
           0.54         721.269         332.762         733.169 
       0.546137         711.513         325.315         724.541 
       0.552299         708.074         318.024         714.921 
       0.558452         700.148         310.917          709.44 
       0.564573         692.836         304.023         703.273 
       0.570708         687.743          297.29         696.936 
       0.576825         674.057         290.761         686.418 
       0.582926         671.622         284.445         680.286 
       0.589034         663.414         278.331         670.401 
       0.595184         656.793         272.395         665.299 
       0.601379         646.708         266.634         660.203 
       0.607522         637.904         261.112          652.05 
       0.613639         636.479         255.776         648.647 
       0.619772         632.251         250.569         647.127 
       0.625918         622.202         245.481          638.72 
       0.632068         618.102         240.518         633.226 
       0.638161         610.541          235.73         623.795 
         0.6443         605.404         231.035         621.049 
       0.650464         599.981         226.454         611.619 
       0.656582          595.12         222.034          607.13 
       0.662703         588.359         217.736         604.508 
       0.668861         582.548         213.532         600.543 
       0.675024         578.055         209.441         596.091 
       0.681124         570.381         205.504         586.588 
       0.687237         568.727         201.665         582.079 
       0.693381         560.284          197.91         577.434 
       0.699536         558.233         194.246         573.669 
       0.705665         552.425         190.691         568.395 
       0.711789         551.235         187.227         563.599 
       0.717957         542.831         183.824         561.362 
        0.72409         538.298         180.523          556.65 
       0.730186         538.384         177.323         552.061 
       0.736317         530.248         174.183         546.447 
       0.742472         524.326         171.109         541.957 
       0.748622         521.131         168.113         537.804 
        0.75476          516.93         165.198         537.892 
       0.760888         513.655         162.359         531.233 
       0.767043         510.705         159.577         526.485 
       0.773185         507.557         156.868         523.047 
       0.779291         500.742         154.238         518.415 
       0.785407         497.804         151.667         515.548 
       0.791564          493.92         149.138         513.084 
       0.797719         487.018         146.669         508.098 
       0.803834         489.072         144.272         505.604 
       0.809972         481.871         141.921         502.581 
       0.816124         477.402         139.617         495.693 
       0.822261         474.112         137.371         493.412 
       0.828378         472.003         135.182         490.154 
       0.834502         464.963         133.039          488.33 
       0.840667         464.772          130.93         484.598 
       0.846816         458.512         128.872         481.324 
       0.852925         458.106         126.873         478.124 
       0.859047         453.878         124.912         474.294 
       0.865192         451.702         122.987         471.195 
       0.871341         445.515         121.102          468.69 
       0.877463           442.8         119.266         465.661 
       0.883569         439.037         117.473         462.654 
       0.889708         435.185         115.708         458.741 
       0.895864         431.879         113.975         456.353 
       0.902008         430.235         112.282         453.562 
       0.908149         426.736         110.624         449.413 
       0.914301         424.682         108.998         446.748 
       0.920448          420.42         107.407         443.597 
       0.926574         418.371         105.853         440.716 
       0.932687         415.799         104.334         437.776 
       0.938823         411.036         102.839         436.965 
       0.944975         409.323         101.371         433.683 
       0.951105         406.176          99.937         429.869 
       0.957225         400.416         98.5335         428.352 
       0.963368         401.284         97.1526         425.343 
       0.969511         394.258         95.7985         422.246 
       0.975621         394.731         94.4777         420.268 
       0.981748         391.678         93.1787         417.277 
       0.987916         389.058         91.8963         415.995 
        0.99406         385.624          90.643         413.141 
        1.00019         381.835          89.416         408.761 
        1.00632         381.762          88.213         406.681 
        1.01246         378.438         87.0306         404.193 
        1.01859         373.877          85.872         401.445 
        1.02471         371.772         84.7363         400.239 
        1.03085         370.832         83.6174         398.614 
        1.03698         367.852         82.5213         396.404 
        1.04314         366.443         81.4405           393.6 
        1.04929         363.628         80.3817         390.558 
        1.05541          358.89         79.3463          388.13 
        1.06154         357.875         78.3267         385.902 
        1.06769         354.202         77.3237         383.512 
        1.07382         353.187         76.3418         381.288 
        1.07993         350.414         75.3793         379.483 
        1.08607         347.854         74.4297         376.753 
        1.09222          345.52         73.4956         374.425 
        1.09836         343.756         72.5788         373.465 
        1.10449         341.375          71.679         370.898 
        1.11063         338.081         70.7935         368.237 
        1.11677           335.2         69.9236         366.554 
         1.1229         334.208         69.0699         364.703 
        1.12903         332.011         68.2299         362.816 
        1.13518         329.307         67.4033         360.431 
        1.14131         328.456          66.591         358.462 
        1.14745         323.729         65.7927         356.501 
        1.15359         321.679         65.0075         354.594 
        1.15973         320.601         64.2349         352.552 
        1.16584          318.96         63.4785         350.067 
        1.17197         316.301         62.7332         348.543 
        1.17811         313.334         61.9978         347.073 
        1.18424         311.598         61.2765         345.472 
        1.19038         310.018         60.5647         343.465 
        1.19652          306.48         59.8645         341.689 
        1.20267         306.249         59.1756         338.898 
        1.20881         303.916         58.4977         337.662 
        1.21495         301.854         57.8317          335.28 
        1.22108         299.911         57.1762         333.398 
         1.2272         296.235         56.5325          331.02 
        1.23334         295.341         55.8974         329.445 
        1.23949          293.96         55.2706         328.575 
        1.24562         292.276         54.6553         326.667 
        1.25174         289.723         54.0504         325.065 
        1.25789         287.408         53.4528         323.314 
        1.26402         286.825         52.8654         321.619 
        1.27014         285.081         52.2884         319.607 
        1.27628         281.962         51.7183         318.803 
        1.28244         280.835         51.1557         317.201 
        1.28858         278.955         50.6023         315.037 
        1.29471         277.594         50.0584         312.661 
        1.30084         275.893          49.523         311.297 
        1.30697         272.955         48.9948         310.217 
        1.31312         271.204         48.4736         308.418 
        1.31925         269.937         47.9616         306.241 
        1.32537         268.596         47.4577         304.697 
        1.33151         266.194         46.9592         303.495 
        1.33765         264.425         46.4683         301.767 
        1.34378         262.591         45.9854         300.253 
        1.34992         260.561         45.5092         298.136 
        1.35606         259.456         45.0387          296.56 
         1.3622         257.832         44.5757         295.324 
        1.36833         255.941         44.1205         294.245 
        1.37445         254.892         43.6719         291.873 
        1.38059         252.596         43.2282         291.087 
        1.38675         251.005         42.7896         289.921 
        1.39288         249.857          42.359         287.047 
        1.39901           247.6         41.9345         286.133 
        1.40515         246.428          41.515         284.804 
         1.4113         244.419         41.1013         282.944 
        1.41742         242.291          40.695         281.742 
        1.42355          242.75         40.2934         280.403 
         1.4297           240.1         39.8961          278.95 
        1.43585             238         39.5044         277.944 
        1.44198         236.582         39.1194         276.073 
        1.44809         235.502         38.7404         275.041 
        1.45423         234.016         38.3651         272.953 
        1.46036         232.494         37.9954         271.654 
        1.46649         231.377         37.6305         270.838 
        1.47263         229.513         37.2702         269.574 
        1.47877         228.051         36.9147         267.736 
        1.48491         226.085         36.5634         266.351 
        1.49104          224.53         36.2175         265.215 
        1.49718         223.243         35.8758          263.94 
        1.50333         221.432          35.538         262.909 
        1.50947         220.823         35.2053         261.716 
         1.5156         219.129         34.8773         260.054 
        1.52172         217.653         34.5536           258.3 
        1.52787         216.255         34.2334         257.373 
          1.534         215.577         33.9176         256.242 
        1.54013         213.767         33.6062         254.891 
        1.54627         212.639         33.2981          253.77 
        1.55241          211.09         32.9939         252.601 
        1.55855         210.327          32.694         251.219 
        1.56467         208.494         32.3986         249.825 
         1.5708         207.033         32.1061         248.627 
        1.57695         205.987         31.8168         247.556 
        1.58308         204.516         31.5317         246.323 
        1.58922         203.238           31.25         245.032 
        1.59535         201.396         30.9718         244.015 
         1.6015         200.548         30.6967         242.657 
        1.60764         199.434         30.4251         241.227 
        1.61376         197.542         30.1575         240.329 
        1.61989         196.364          29.893          239.34 
        1.62604         195.016          29.631         238.108 
        1.63218          194.14         29.3724         237.076 
        1.63831         193.432         29.1175         236.058 
        1.64444         191.683         28.8656         234.614 
        1.65059         190.938          28.616         233.654 
        1.65673         189.134         28.3697          232.57 
        1.66285         188.311         28.1271         231.261 
        1.66898         187.164         27.8871         230.058 
        1.67512         185.718         27.6496         229.112 
        1.68127          184.68         27.4146         228.061 
         1.6874         183.546         27.1829         227.077 
        1.69353         182.576          26.954         226.313 
        1.69967         181.133         26.7272          224.93 
        1.70581         180.451         26.5032         223.739 
        1.71193          178.85         26.2826         222.798 
        1.71806         177.724         26.0641         221.451 
        1.72421         176.856         25.8476         220.618 
        1.73035         175.474         25.6338         219.629 
        1.73649         174.247         25.4226         218.349 
        1.74262         173.407         25.2139         217.725 
        1.74876         172.438         25.0074         216.747 
        1.75489          171.39         24.8037         215.555 
        1.76101         170.025         24.6023         214.618 
        1.76715         168.999         24.4029         213.701 
        1.77329         167.923         24.2055          212.61 
        1.77943         166.713         24.0102         211.481 
        1.78557          166.12         23.8174         210.505 
        1.79171         165.018         23.6266         209.665 
        1.79785          164.03          23.438         208.748 
        1.80399         162.871         23.2514         207.662 
        1.81012         161.593         23.0672         206.811 
        1.81625          161.03          22.885         205.966 
        1.82239         159.551         22.7045         204.957 
        1.82853         158.975         22.5261         203.986 
        1.83466         157.653         22.3498         202.924 
        1.84078         156.995         22.1756         201.932 
        1.84692         156.067         22.0029         201.289 
        1.85306         154.688         21.8319           200.3 
         1.8592         154.208          21.663         199.267 
        1.86533         152.635          21.496         198.749 
        1.87147         152.098         21.3306         197.977 
