# k  (h/Mpc)    Pcb(k)  (Mpc/h)^3    Pcb_linear(k) (Mpc/h)^3    Pcb_NL(k) (Mpc/h)^3   ShotnoiseSubtracted = false
     0.00783031         7574.81          7606.1         7600.02 
       0.013688         9956.27           10166         10116.9 
       0.019231         10847.8         10980.3           10897 
      0.0249154         10771.3         10784.5         10691.3 
      0.0312784         9813.44         9921.01         9817.65 
      0.0375637         8717.21         8874.06          8766.8 
      0.0433917         7919.14         7987.38         7870.66 
      0.0492413         7153.94         7277.98         7160.08 
      0.0555754         6636.21         6713.22         6595.19 
      0.0619321         6055.33         6292.32         6169.96 
       0.067871          5795.6         5951.91         5830.04 
      0.0738098         5477.74         5600.55         5446.46 
      0.0800417         5081.64         5187.75         5037.45 
      0.0862327         4621.25         4738.58         4623.03 
      0.0921407         4206.76         4304.44         4195.29 
      0.0982031         3848.58          3892.1         3824.69 
       0.104506         3456.87         3531.18          3499.4 
       0.110769          3199.8          3254.4         3208.26 
       0.116806         3061.43         3058.55         3013.85 
       0.122832         2880.37         2913.12         2879.18 
       0.129052         2758.24         2789.15         2756.97 
       0.135211         2676.57         2667.91         2635.52 
       0.141259         2509.84         2534.81          2518.2 
       0.147318         2333.45         2383.64         2384.38 
       0.153489          2203.6         2217.97         2200.55 
       0.159709         2096.05         2052.31         2063.32 
       0.165845         1911.88         1903.56         1958.53 
       0.171974         1855.89         1778.59         1840.14 
       0.178125         1782.74         1679.62          1773.3 
       0.184229         1656.97         1604.34         1694.68 
        0.19034         1629.59         1544.59         1635.85 
       0.196428         1584.43         1491.85         1568.66 
       0.202534         1493.14         1438.03         1521.19 
       0.208729         1466.38         1377.69         1451.51 
       0.214876         1410.44         1311.26          1411.3 
       0.220989         1325.24         1241.31         1356.46 
       0.227147          1293.7         1171.48         1296.46 
        0.23329         1243.25         1107.01         1254.54 
       0.239377         1222.43          1051.4         1207.29 
       0.245482         1163.19         1004.96         1153.64 
       0.251667         1120.33         966.411         1127.91 
       0.257832         1109.17         934.026         1093.47 
       0.263955         1055.91         904.781         1061.89 
       0.270079         1027.16         875.671         1031.89 
        0.27624         985.104         844.841         999.223 
       0.282372         968.671         812.155         971.914 
        0.28843         959.835         778.642         941.846 
       0.294538         912.497         745.071         917.229 
       0.300721          887.52         712.885         892.346 
        0.30691         872.719         683.715         873.795 
       0.313033         837.548         658.339         846.008 
       0.319153          825.34         636.283         825.666 
       0.325316         812.405         616.597         812.354 
        0.33145         796.949         598.531          784.66 
       0.337538          770.03         581.102         768.842 
       0.343633         748.966         563.507         759.604 
       0.349808          732.56          545.25         744.644 
       0.355968         719.541          526.75         730.552 
       0.362074         698.435         508.574         713.435 
       0.368217         694.421         490.946         692.775 
       0.374374         682.496         474.423         680.198 
       0.380519         657.381          459.28         665.451 
       0.386598         650.635         445.645         655.557 
       0.392688         638.177         433.128         640.981 
        0.39888         621.519         421.211         630.973 
       0.405048         612.128         409.832         624.257 
       0.411186         609.133         398.701         608.464 
       0.417313         602.628         387.618         595.479 
       0.423458         584.875         376.567          586.62 
       0.429607         570.675         365.647         574.702 
       0.435692         562.135         355.141         564.875 
       0.441815         553.921          345.04         560.737 
       0.447964         542.897         335.466         550.427 
       0.454126         536.353         326.454          537.53 
       0.460267         528.281         318.034         534.751 
       0.466387         520.894         310.093         524.494 
        0.47254         513.052         302.423         518.243 
       0.478662         502.006         295.008         509.107 
       0.484765          497.63         287.775         499.151 
       0.490885         492.737         280.641         493.128 
       0.497035         483.871         273.596         488.201 
       0.503198         482.735         266.719         480.831 
       0.509342         471.098           260.1         475.272 
       0.515458         464.365         253.775         472.037 
       0.521598         457.038         247.697         463.494 
       0.527764         450.329         241.867          456.98 
       0.533884         449.151         236.338         451.941 
           0.54         442.406         231.023         446.234 
       0.546137         433.538         225.853          441.31 
       0.552299         433.042         220.791         435.117 
       0.558452         426.397         215.857         430.655 
       0.564573         421.725         211.071         426.991 
       0.570708         417.117         206.396         422.901 
       0.576825         409.773         201.863         415.351 
       0.582926         406.477         197.479         410.802 
       0.589034         401.384         193.234         406.086 
       0.595184         398.719         189.113         400.666 
       0.601379         391.835         185.113         398.662 
       0.607522          385.81         181.279         394.087 
       0.613639         383.612         177.575         390.269 
       0.619772         381.764          173.96         387.604 
       0.625918         376.326         170.428         383.653 
       0.632068         371.075         166.982         378.003 
       0.638161         367.566         163.658         375.176 
         0.6443         365.369         160.398         371.986 
       0.650464         360.028         157.218         365.985 
       0.656582         356.743         154.149         362.986 
       0.662703         354.301         151.165         361.286 
       0.668861         349.006         148.246         357.604 
       0.675024         347.006         145.406         353.933 
       0.681124         343.388         142.673          349.81 
       0.687237         340.242         140.008         346.506 
       0.693381         337.048         137.401         343.564 
       0.699536         333.339         134.857         341.143 
       0.705665         330.048         132.389         338.843 
       0.711789         328.197         129.984         334.894 
       0.717957         323.899         127.621         332.586 
        0.72409         321.266          125.33         330.646 
       0.730186         322.278         123.108           327.8 
       0.736317         316.598         120.928         324.115 
       0.742472         312.752         118.794         321.253 
       0.748622         309.146         116.714         318.292 
        0.75476         309.474          114.69         317.024 
       0.760888         305.868         112.719         313.242 
       0.767043          302.76         110.788         311.508 
       0.773185         301.062         108.907          309.28 
       0.779291         296.424         107.082         306.345 
       0.785407         295.437         105.296          303.88 
       0.791564         292.356         103.541         301.909 
       0.797719         288.322         101.826         300.017 
       0.803834         290.115         100.162         297.443 
       0.809972         286.788         98.5297         295.273 
       0.816124         283.323         96.9303           292.8 
       0.822261          280.15         95.3711         290.715 
       0.828378         280.507         93.8513         288.055 
       0.834502         275.842         92.3637         286.849 
       0.840667         275.571         90.8992         284.931 
       0.846816         271.816         89.4709         282.589 
       0.852925         270.567         88.0828         280.335 
       0.859047          267.62         86.7217         278.515 
       0.865192         267.521         85.3852          276.85 
       0.871341         263.779         84.0765         274.622 
       0.877463         261.465         82.8015         273.272 
       0.883569          260.99         81.5565          271.47 
       0.889708         258.784         80.3311         269.371 
       0.895864         256.698         79.1281          267.94 
       0.902008         254.467         77.9526         265.483 
       0.908149         252.276          76.802         263.307 
       0.914301         251.334         75.6731          262.43 
       0.920448         249.898         74.5682         259.951 
       0.926574         247.509         73.4895          257.99 
       0.932687         245.982         72.4347         255.985 
       0.938823           244.1         71.3972          255.49 
       0.944975          242.23         70.3778         254.219 
       0.951105          240.31         69.3822         252.184 
       0.957225         238.916         68.4079         250.322 
       0.963368         237.563         67.4492         248.016 
       0.969511         234.259          66.509         246.814 
       0.975621         233.318         65.5921         246.638 
       0.981748         231.676         64.6902         244.318 
       0.987916         230.546         63.7999         243.242 
        0.99406         228.688         62.9298         241.796 
        1.00019         227.348         62.0779         239.663 
        1.00632         226.556         61.2427         237.778 
        1.01246         224.612         60.4218         236.209 
        1.01859          222.37         59.6175         235.493 
        1.02471         220.724          58.829         234.596 
        1.03085         219.883         58.0522         232.944 
        1.03698         217.985         57.2912         231.467 
        1.04314          217.52         56.5409          230.16 
        1.04929         216.055         55.8058         228.672 
        1.05541         214.344         55.0869         227.431 
        1.06154         213.039         54.3791         226.306 
        1.06769         210.829         53.6828         225.087 
        1.07382          210.46         53.0011         223.593 
        1.07993         208.621         52.3328         222.317 
        1.08607          206.81         51.6735          221.44 
        1.09222         205.963          51.025         220.108 
        1.09836         204.637         50.3886         218.937 
        1.10449         202.701         49.7638         217.438 
        1.11063         201.584         49.1491         215.945 
        1.11677         200.845         48.5451         214.969 
         1.1229         199.025         47.9524         213.987 
        1.12903         198.465         47.3692         212.784 
        1.13518         196.946         46.7954         211.545 
        1.14131         195.805         46.2314         210.237 
        1.14745         193.943         45.6772         209.158 
        1.15359         192.156         45.1321         207.946 
        1.15973         191.785         44.5957         206.856 
        1.16584         190.925         44.0705         205.445 
        1.17197         189.676         43.5532         204.298 
        1.17811         187.815         43.0426          203.81 
        1.18424         186.834         42.5418         202.523 
        1.19038         185.787         42.0476         201.539 
        1.19652         184.218         41.5615         200.654 
        1.20267         183.412         41.0832         199.357 
        1.20881         182.063         40.6126         198.675 
        1.21495         181.654         40.1502         196.912 
        1.22108         180.023         39.6951         196.534 
         1.2272         178.736         39.2483         195.002 
        1.23334          178.14         38.8073         194.318 
        1.23949         177.498         38.3722         193.324 
        1.24562         175.916          37.945         192.138 
        1.25174          174.38          37.525         191.353 
        1.25789         173.737         37.1101         190.364 
        1.26402         173.114         36.7023         189.117 
        1.27014         171.867         36.3017         188.967 
        1.27628          169.86         35.9059         188.212 
        1.28244         169.537         35.5154          186.42 
        1.28858         168.339         35.1311         185.495 
        1.29471         167.319         34.7535         184.873 
        1.30084         166.319         34.3819         183.814 
        1.30697         165.605         34.0151         182.873 
        1.31312          164.38         33.6533         181.678 
        1.31925         162.978         33.2978          180.89 
        1.32537         162.586          32.948         180.165 
        1.33151         161.524         32.6019         179.249 
        1.33765          159.89         32.2611          178.43 
        1.34378         159.949         31.9259         177.309 
        1.34992         159.069         31.5952         176.592 
        1.35606         157.803         31.2686         175.492 
         1.3622          157.31         30.9472         174.703 
        1.36833         155.468         30.6311         173.805 
        1.37445         155.224         30.3196         172.772 
        1.38059         154.069         30.0116         172.327 
        1.38675         153.168         29.7071         171.258 
        1.39288         152.157         29.4081         170.446 
        1.39901         151.071         29.1135         169.801 
        1.40515         150.586         28.8222          169.02 
         1.4113         149.773          28.535         168.201 
        1.41742         148.538         28.2529         167.527 
        1.42355         148.173         27.9741         166.738 
         1.4297         146.958         27.6983         165.786 
        1.43585         145.883         27.4263         164.983 
        1.44198         144.816         27.1591         164.263 
        1.44809         143.823         26.8959         163.338 
        1.45423         143.564         26.6353         162.462 
        1.46036         142.478         26.3787         161.776 
        1.46649         141.514         26.1253         161.271 
        1.47263         141.146         25.8752          160.66 
        1.47877         139.818         25.6284         159.604 
        1.48491         138.999         25.3845         158.994 
        1.49104         137.595         25.1443         158.321 
        1.49718         137.771         24.9071         157.098 
        1.50333         136.844         24.6726          156.62 
        1.50947         136.071         24.4416             156 
         1.5156         135.097         24.2139         155.225 
        1.52172         134.311         23.9892         154.736 
        1.52787         133.508         23.7669         153.711 
          1.534         133.041         23.5476         153.017 
        1.54013         132.152         23.3314         152.365 
        1.54627         131.121         23.1176         151.702 
        1.55241         130.415         22.9064         151.109 
        1.55855         129.764         22.6981         150.156 
        1.56467         128.719         22.4931         149.422 
         1.5708         128.262           22.29         149.016 
        1.57695         127.622         22.0891         148.339 
        1.58308         126.781         21.8912         147.478 
        1.58922         126.412         21.6956         146.818 
        1.59535         125.767         21.5025         146.192 
         1.6015         124.508         21.3115          145.52 
        1.60764         123.743         21.1229         144.949 
        1.61376         123.105         20.9371         144.446 
        1.61989         122.519         20.7535         143.716 
        1.62604         121.762         20.5716          142.93 
        1.63218         121.297         20.3921          142.31 
        1.63831          120.22         20.2151         141.846 
        1.64444         119.615         20.0402         141.192 
        1.65059         118.777          19.867          140.36 
        1.65673         118.237          19.696         139.801 
        1.66285         117.752         19.5275         139.314 
        1.66898          116.71         19.3609         138.643 
        1.67512         116.424          19.196         138.112 
        1.68127         115.521         19.0329         137.438 
         1.6874         114.915          18.872         136.715 
        1.69353         114.033         18.7131         136.205 
        1.69967         113.738         18.5557         135.619 
        1.70581         113.169         18.4001         134.943 
        1.71193         112.343          18.247         134.352 
        1.71806         111.562         18.0952         133.954 
        1.72421         110.991         17.9449         133.319 
        1.73035         110.582         17.7965         132.611 
        1.73649          109.78         17.6499          132.05 
        1.74262         109.107          17.505         131.594 
        1.74876         108.454         17.3616         130.971 
        1.75489         107.911         17.2202         130.279 
        1.76101         107.203         17.0804         129.657 
        1.76715         106.527          16.942         129.064 
        1.77329         106.018         16.8049         128.627 
        1.77943         105.329         16.6693         128.164 
        1.78557         104.897         16.5355         127.522 
        1.79171         104.287          16.403         127.008 
        1.79785         103.526          16.272         126.552 
        1.80399         103.102         16.1425         125.961 
        1.81012          102.33         16.0146         125.405 
        1.81625         101.957         15.8881          124.87 
        1.82239          101.56         15.7628         124.334 
        1.82853         100.792          15.639         123.851 
        1.83466         100.003         15.5166         123.263 
        1.84078         99.5852         15.3956         122.702 
        1.84692         99.2549         15.2758         122.419 
        1.85306         98.6213          15.157         121.876 
         1.8592         98.1847         15.0398         121.236 
        1.86533         97.4629         14.9238         120.818 
        1.87147           96.82          14.809         120.035 
