# k  (h/Mpc)    P(k)  (Mpc/h)^3    P_linear(k)  (Mpc/h)^3     P_NL(k)  ShotnoiseSubtracted = false
     0.00783031         4804.71         4826.82          4823.9 
       0.013688         6340.97         6452.05         6425.39 
       0.019231         6903.87         6969.24         6924.68 
      0.0249154          6842.2          6845.2          6800.5 
      0.0312784         6251.14         6297.23         6253.01 
      0.0375637         5562.98         5632.76            5588 
      0.0433917          5047.8         5069.99         5023.05 
      0.0492413         4567.88         4619.72         4572.83 
      0.0555754         4237.43         4261.26         4213.78 
      0.0619321         3885.74         3994.11         3944.67 
       0.067871         3714.28         3778.04         3728.04 
      0.0738098         3506.23         3555.01         3491.41 
      0.0800417         3255.05         3292.99         3230.94 
      0.0862327         2961.26         3007.88         2960.55 
      0.0921407         2692.49         2732.31         2687.81 
      0.0982031         2457.15         2470.57         2444.18 
       0.104506         2208.28         2241.47         2230.32 
       0.110769         2041.86         2065.78         2047.87 
       0.116806         1948.87         1941.46         1924.16 
       0.122832         1834.58         1849.15         1836.59 
       0.129052          1760.8         1770.46         1758.28 
       0.135211         1702.59          1693.5         1681.64 
       0.141259         1600.78         1609.02         1603.41 
       0.147318         1488.82         1513.06         1516.07 
       0.153489         1401.97          1407.9          1401.9 
       0.159709          1323.7         1302.74         1309.43 
       0.165845         1207.97         1208.32         1235.22 
       0.171974         1166.95            1129         1157.74 
       0.178125         1114.04         1066.17         1109.53 
       0.184229         1041.76         1018.38         1061.32 
        0.19034          1020.3         980.458         1023.14 
       0.196428          989.53          946.98         981.473 
       0.202534          933.37          912.82         950.226 
       0.208729         914.382         874.514         908.243 
       0.214876         880.099         832.345         879.247 
       0.220989          821.43         787.949         841.185 
       0.227147         800.849         743.621         800.016 
        0.23329         768.079         702.695         770.683 
       0.239377         747.697         667.398         740.365 
       0.245482          710.27         637.918         706.404 
       0.251667         682.988          613.45         688.327 
       0.257832         676.173         592.892         666.707 
       0.263955         642.348         574.327         646.403 
       0.270079          623.31         555.849         626.854 
        0.27624         597.499         536.279         605.574 
       0.282372         584.013         515.532         587.167 
        0.28843         579.106         494.259         566.895 
       0.294538         550.593         472.949         550.684 
       0.300721         530.833         452.518         535.256 
        0.30691         522.288         434.002         520.654 
       0.313033         501.036         417.893         503.083 
       0.319153         492.456         403.894         491.244 
       0.325316         480.499         391.397         481.814 
        0.33145         469.964          379.93         465.473 
       0.337538         454.738         368.867         454.056 
       0.343633         441.178         357.697          446.74 
       0.349808           430.1         346.108         436.955 
       0.355968         421.123         334.366         427.824 
       0.362074          410.69         322.828         416.567 
       0.368217         405.177         311.638          403.36 
       0.374374         396.778          301.15         395.185 
       0.380519         381.122         291.537         385.542 
       0.386598         375.318         282.883             378 
       0.392688         367.392         274.937         370.535 
        0.39888         358.696         267.373         362.114 
       0.405048          352.68         260.149         357.522 
       0.411186         349.308         253.084         349.192 
       0.417313         342.517         246.048          339.83 
       0.423458         333.571         239.034         333.837 
       0.429607         326.971         232.102         327.232 
       0.435692         320.645         225.433         321.161 
       0.441815         314.962         219.021         317.919 
       0.447964         306.779         212.944         311.032 
       0.454126         302.069         207.223         303.512 
       0.460267         298.754         201.879         300.728 
       0.466387         293.442         196.838         294.698 
        0.47254         289.963          191.97         290.269 
       0.478662          281.51         187.262         284.912 
       0.484765         278.412         182.671         278.533 
       0.490885         274.725         178.143         275.348 
       0.497035         271.597          173.67         272.075 
       0.503198          267.86         169.305         267.457 
       0.509342         260.846         165.104         263.967 
       0.515458         258.418         161.089          261.79 
       0.521598         252.602         157.231         256.111 
       0.527764         249.822          153.53         251.275 
       0.533884         249.372         150.021          248.38 
           0.54         243.565         146.647         245.186 
       0.546137          238.22         143.365         242.642 
       0.552299          236.77         140.152         238.203 
       0.558452         232.714          137.02         234.887 
       0.564573         231.297         133.982         232.867 
       0.570708         226.296         131.014         229.655 
       0.576825         223.267         128.137         225.671 
       0.582926         220.953         125.354         222.831 
       0.589034         218.179         122.659         220.732 
       0.595184         216.499         120.043         217.326 
       0.601379         211.605         117.505         216.137 
       0.607522         208.647         115.071         212.475 
       0.613639         206.922          112.72         210.354 
       0.619772         204.763         110.425         207.322 
       0.625918         203.082         108.182         205.925 
       0.632068          198.82         105.995         202.463 
       0.638161          196.37         103.885         201.329 
         0.6443         195.748         101.816         198.554 
       0.650464         192.356         99.7972         195.178 
       0.656582         191.314         97.8494         193.982 
       0.662703         189.387         95.9551         191.524 
       0.668861         185.795         94.1025         189.729 
       0.675024         185.777         92.2997          187.27 
       0.681124         182.906         90.5648         185.648 
       0.687237         180.119         88.8731         183.346 
       0.693381         179.388         87.2182         181.419 
       0.699536         177.036         85.6033         180.186 
       0.705665         174.626         84.0365         179.061 
       0.711789         172.668         82.5101         175.851 
       0.717957         170.989         81.0103         174.647 
        0.72409         170.054         79.5556         173.987 
       0.730186         169.091         78.1453         171.943 
       0.736317         166.225         76.7617         169.811 
       0.742472         164.385         75.4069         168.352 
       0.748622         162.003         74.0867         166.532 
        0.75476         161.933         72.8021         165.003 
       0.760888         160.673         71.5508         163.121 
       0.767043         158.161         70.3249         162.384 
       0.773185         156.414          69.131         161.352 
       0.779291         154.795         67.9723          159.73 
       0.785407         153.133         66.8389         157.769 
       0.791564         152.657         65.7246         156.648 
       0.797719          151.07         64.6365         155.619 
       0.803834         150.054         63.5801         153.669 
       0.809972         149.402         62.5438         152.652 
       0.816124         147.541         61.5286         151.828 
       0.822261          145.76         60.5388          150.23 
       0.828378         145.591         59.5741         148.362 
       0.834502         143.057         58.6298         148.085 
       0.840667         142.602         57.7002         147.222 
       0.846816         141.381         56.7936         145.546 
       0.852925         140.009         55.9124         144.344 
       0.859047         138.979         55.0484         143.029 
       0.865192         137.576         54.2001         142.343 
       0.871341         136.134         53.3693         140.913 
       0.877463          135.41           52.56         140.285 
       0.883569         135.028         51.7697         139.132 
       0.889708         133.956         50.9919         138.127 
       0.895864         132.591         50.2282         137.236 
       0.902008         131.615          49.482          135.94 
       0.908149         129.989         48.7517          134.95 
       0.914301         129.961         48.0351         134.388 
       0.920448         129.044         47.3337         133.259 
       0.926574             127          46.649         131.644 
       0.932687         126.624         45.9795         131.003 
       0.938823         125.544         45.3208         130.103 
       0.944975         124.183         44.6738         129.287 
       0.951105         123.346         44.0418         128.446 
       0.957225         123.385         43.4233         127.745 
       0.963368         121.864         42.8148         126.259 
       0.969511         120.784          42.218         125.602 
       0.975621         120.029         41.6359         125.787 
       0.981748         118.978         41.0635         124.287 
       0.987916         118.133         40.4983         123.799 
        0.99406         117.688          39.946         122.821 
        1.00019         116.397         39.4052         121.861 
        1.00632         115.846         38.8751         121.211 
        1.01246         114.942          38.354         120.236 
        1.01859         114.387         37.8435         119.593 
        1.02471         113.299         37.3429          119.12 
        1.03085         112.459         36.8499         118.207 
        1.03698         111.814         36.3668         117.276 
        1.04314         111.066         35.8905         116.692 
        1.04929         110.556         35.4239         116.305 
        1.05541         109.793         34.9676           115.7 
        1.06154         109.125         34.5183         114.892 
        1.06769         107.979         34.0763         114.268 
        1.07382         107.281         33.6435         113.518 
        1.07993         106.883         33.2194         112.758 
        1.08607         105.907         32.8009         112.062 
        1.09222         105.622         32.3892         111.202 
        1.09836         104.504         31.9852         110.673 
        1.10449         103.995         31.5886         110.033 
        1.11063         103.142         31.1984         109.171 
        1.11677         102.728          30.815         108.628 
         1.1229         101.859         30.4388         108.371 
        1.12903          101.64         30.0686         107.526 
        1.13518         101.113         29.7043         106.959 
        1.14131         100.318         29.3464         106.352 
        1.14745          99.345         28.9946         105.768 
        1.15359         98.5127         28.6485         105.368 
        1.15973         98.3184         28.3081           104.7 
        1.16584           97.63         27.9747         104.085 
        1.17197         96.7946         27.6463         103.516 
        1.17811         96.3088         27.3222         102.767 
        1.18424         95.4756         27.0043         102.271 
        1.19038         95.4331         26.6906         102.052 
        1.19652         94.8103         26.3821         101.149 
        1.20267         94.0225         26.0784         100.832 
        1.20881         93.3953         25.7797         100.187 
        1.21495         93.0569         25.4862         99.6883 
        1.22108         92.4276         25.1973         99.2165 
         1.2272         91.7356         24.9137         98.7598 
        1.23334         91.2879         24.6338         98.1906 
        1.23949         90.7969         24.3576         97.5489 
        1.24562          90.028         24.0864         97.1639 
        1.25174         89.5057         23.8198         96.7618 
        1.25789         89.6326         23.5564         96.2141 
        1.26402         88.7235         23.2976         95.6427 
        1.27014         88.2214         23.0433         95.2818 
        1.27628         87.4543         22.7921         94.8354 
        1.28244         87.1526         22.5441         94.1943 
        1.28858         86.6638         22.3002         93.7601 
        1.29471         86.2321         22.0605         93.4916 
        1.30084         85.5423         21.8246         92.7011 
        1.30697         85.4851         21.5918         92.2275 
        1.31312         84.6494         21.3621         92.0814 
        1.31925         84.2038         21.1365          91.518 
        1.32537         83.7225         20.9144         90.9807 
        1.33151         83.4256         20.6948         90.6415 
        1.33765         82.7845         20.4784         90.2324 
        1.34378         82.6092         20.2656         89.7056 
        1.34992         81.9942         20.0557         89.3473 
        1.35606         81.4497         19.8484         88.9767 
         1.3622         80.9783         19.6444          88.528 
        1.36833         80.4443         19.4437         87.9097 
        1.37445         79.8776          19.246         87.5993 
        1.38059         79.6762         19.0505         87.4651 
        1.38675         78.8931         18.8572         86.7503 
        1.39288         78.8514         18.6674          86.537 
        1.39901         78.1478         18.4804         86.0883 
        1.40515         77.8824         18.2955         85.6589 
         1.4113         77.6103         18.1132         85.3718 
        1.41742         77.1683         17.9341         85.0118 
        1.42355         76.4976         17.7572         84.3729 
         1.4297         76.1136         17.5821         83.9977 
        1.43585         75.6026         17.4094         83.7817 
        1.44198         75.1888         17.2398         83.5203 
        1.44809         74.8135         17.0727         82.7831 
        1.45423         74.4357         16.9073         82.4932 
        1.46036         73.9416         16.7444         82.2403 
        1.46649         73.8695         16.5836         81.9593 
        1.47263         73.3159         16.4248         81.6352 
        1.47877         72.9805         16.2682         81.1194 
        1.48491         72.6445         16.1134         80.7673 
        1.49104         72.0584         15.9609         80.2907 
        1.49718         71.7063         15.8103         79.9553 
        1.50333         71.4721         15.6615         79.7117 
        1.50947         70.9416         15.5148         79.4163 
         1.5156         70.6519         15.3703         79.0856 
        1.52172          70.174         15.2276         78.7364 
        1.52787         69.7608         15.0865         78.3537 
          1.534         69.5571         14.9474         78.0752 
        1.54013         69.1915         14.8101         77.7076 
        1.54627         68.6168         14.6744         77.3141 
        1.55241         68.2528         14.5403         77.0053 
        1.55855         68.0849         14.4081         76.6591 
        1.56467         67.5711         14.2779         76.2544 
         1.5708         67.3458          14.149         76.0766 
        1.57695         66.9897         14.0215         75.8499 
        1.58308         66.4976         13.8959         75.4228 
        1.58922         66.2197         13.7717          75.127 
        1.59535         65.9864         13.6492          74.838 
         1.6015         65.8487         13.5279         74.4513 
        1.60764         65.4053         13.4082         74.1472 
        1.61376         64.9493         13.2903         73.9298 
        1.61989         64.5058         13.1737         73.5163 
        1.62604         64.2729         13.0583         73.1757 
        1.63218         63.9615         12.9443         72.9257 
        1.63831         63.7589          12.832         72.6488 
        1.64444         63.2792          12.721         72.3192 
        1.65059         63.1113          12.611         72.0177 
        1.65673         62.5406         12.5024         71.6846 
        1.66285         62.4495         12.3955         71.4126 
        1.66898         61.7909         12.2898         71.2609 
        1.67512         61.7818         12.1851         71.0215 
        1.68127         61.3755         12.0815         70.6123 
         1.6874         61.0215         11.9794         70.1833 
        1.69353         60.7921         11.8785         69.9349 
        1.69967         60.5548         11.7786         69.7716 
        1.70581         60.0818         11.6799           69.62 
        1.71193         59.8095         11.5826         69.3427 
        1.71806         59.5604         11.4863         68.8474 
        1.72421         59.2743         11.3909         68.5161 
        1.73035         58.9529         11.2967         68.4237 
        1.73649         58.6015         11.2036          68.288 
        1.74262         58.1822         11.1117          67.753 
        1.74876         57.9081         11.0207         67.4424 
        1.75489         57.6428         10.9309         67.2891 
        1.76101         57.3785         10.8421         67.0189 
        1.76715          57.279         10.7543         66.7209 
        1.77329         56.7343         10.6673           66.48 
        1.77943         56.7233         10.5812          66.244 
        1.78557          56.399         10.4962          65.953 
        1.79171         56.0658         10.4122         65.6674 
        1.79785         55.7524          10.329          65.469 
        1.80399          55.469         10.2468         65.3147 
        1.81012         55.2342         10.1656         64.8855 
        1.81625         54.8664         10.0853         64.5229 
        1.82239         54.6239         10.0058         64.4232 
        1.82853         54.4773         9.92718         64.2859 
        1.83466         54.0957         9.84948         63.9745 
        1.84078         53.8026         9.77269         63.6416 
        1.84692         53.4862         9.69661         63.5364 
        1.85306         53.2573         9.62125         63.3196 
         1.8592         53.0906         9.54682         63.0071 
        1.86533         52.8023         9.47322         62.8294 
        1.87147         52.5193         9.40031         62.5897 
        1.87761         52.1706         9.32815         62.2797 
