# k  (h/Mpc)    Pcb(k)  (Mpc/h)^3    Pcb_linear(k) (Mpc/h)^3    Pcb_NL(k) (Mpc/h)^3   ShotnoiseSubtracted = false
     0.00783031         282.596         284.429         284.178 
       0.013688          377.38         380.421         379.244 
       0.019231         409.672         411.012         409.216 
      0.0249154         403.219         403.748         402.499 
      0.0312784         370.955         371.457         370.913 
      0.0375637         331.763         332.279         331.986 
      0.0433917         299.447          299.09          299.04 
      0.0492413         272.408         272.534         272.537 
      0.0555754          251.82         251.391         251.327 
      0.0619321         234.626         235.634         235.528 
       0.067871           222.6         222.889         222.674 
      0.0738098         209.534         209.733         209.407 
      0.0800417         194.326         194.276         193.972 
      0.0862327         177.281         177.456         177.244 
      0.0921407         160.985         161.199         161.065 
      0.0982031         145.902         145.758         145.735 
       0.104506         131.928         132.242         132.304 
       0.110769         121.638         121.877         121.911 
       0.116806         114.729         114.542         114.537 
       0.122832         108.875         109.096         109.089 
       0.129052         104.433         104.454         104.418 
       0.135211         100.036         99.9137         99.8583 
       0.141259          94.791         94.9292         94.8916 
       0.147318         88.8675         89.2678         89.2802 
       0.153489         82.9155         83.0637         83.0542 
       0.159709         76.8834         76.8597         76.9185 
       0.165845         70.9349          71.289         71.4484 
       0.171974         66.7857         66.6092         66.7704 
       0.178125         63.0611         62.9025         63.1238 
       0.184229          60.024         60.0833         60.3055 
        0.19034         58.0466         57.8457         58.0539 
       0.196428         55.9721         55.8705         56.0221 
       0.202534         53.6206         53.8552         54.0118 
       0.208729         51.6154         51.5953         51.7439 
       0.214876         49.3365         49.1074         49.3209 
       0.220989         46.3347          46.488         46.7322 
       0.227147         44.1527         43.8727         44.1255 
        0.23329         41.7967         41.4582         41.7736 
       0.239377         39.7631         39.3757         39.7285 
       0.245482         37.9672         37.6364         37.9622 
       0.251667         36.3873         36.1928         36.5473 
       0.257832         35.3525         34.9799         35.3257 
       0.263955         34.1024         33.8847         34.2101 
       0.270079         33.0005         32.7945         33.1039 
        0.27624          31.711         31.6399         31.9325 
       0.282372         30.5327         30.4158         30.7313 
        0.28843         29.4979         29.1608         29.4888 
       0.294538          28.203         27.9035         28.2552 
       0.300721         26.8943         26.6981         27.0808 
        0.30691         25.9683         25.6057         25.9966 
       0.313033         24.9715         24.6553         25.0411 
       0.319153         24.3396         23.8293         24.2401 
       0.325316         23.3284          23.092         23.5151 
        0.33145         22.6534         22.4155         22.8131 
       0.337538         22.0458         21.7627         22.1473 
       0.343633         21.4263         21.1038         21.4867 
       0.349808           20.71         20.4201         20.8163 
       0.355968         19.9922         19.7272         20.1701 
       0.362074         19.3988         19.0465          19.474 
       0.368217         18.7361         18.3863         18.7843 
       0.374374         18.2397         17.7675         18.1978 
       0.380519         17.5393         17.2004          17.619 
       0.386598         16.9995         16.6898         17.1218 
       0.392688         16.5071          16.221         16.6511 
        0.39888         16.1142         15.7747         16.1981 
       0.405048         15.7011         15.3485         15.7522 
       0.411186         15.2612         14.9317          15.374 
       0.417313         14.8569         14.5166         14.9409 
       0.423458         14.3849         14.1028         14.5356 
       0.429607         14.0599         13.6938         14.1152 
       0.435692         13.6987         13.3003         13.7387 
       0.441815         13.2557          12.922         13.3845 
       0.447964         12.8445         12.5635         13.0127 
       0.454126         12.5813          12.226         12.6688 
       0.460267         12.3415         11.9106          12.364 
       0.466387         11.9957         11.6132         12.0492 
        0.47254         11.7397          11.326         11.7664 
       0.478662         11.4334         11.0483         11.4814 
       0.484765         11.1682         10.7774         11.2142 
       0.490885         10.8682         10.5103         10.9742 
       0.497035         10.5746         10.2464         10.7132 
       0.503198         10.3512         9.98885         10.4239 
       0.509342         10.0661         9.74097         10.1883 
       0.515458         9.87762         9.50411         9.97039 
       0.521598          9.6475         9.27646         9.71146 
       0.527764         9.47547         9.05814         9.49122 
       0.533884         9.19262         8.85108         9.28691 
           0.54         9.01123         8.65204         9.08091 
       0.546137         8.77452          8.4584         8.89612 
       0.552299         8.60939         8.26882         8.68229 
       0.558452         8.42612         8.08405         8.50246 
       0.564573         8.26433         7.90479         8.35154 
       0.570708         8.08174         7.72972         8.16872 
       0.576825         7.91387         7.55997         7.99268 
       0.582926         7.73301         7.39576         7.83523 
       0.589034         7.60154         7.23678         7.68627 
       0.595184         7.46773         7.08244          7.4976 
       0.601379         7.27904         6.93266         7.37305 
       0.607522         7.13527         6.78908         7.22275 
       0.613639         6.96707         6.65035         7.07886 
       0.619772         6.86592         6.51497         6.95523 
       0.625918         6.72267         6.38267         6.80941 
       0.632068         6.61015         6.25363         6.67512 
       0.638161          6.4734         6.12912         6.54804 
         0.6443         6.34532         6.00706         6.41986 
       0.650464         6.21313         5.88795         6.31516 
       0.656582         6.13387         5.77303         6.19445 
       0.662703         6.01937         5.66127           6.078 
       0.668861         5.86733         5.55196         5.97921 
       0.675024         5.77394          5.4456          5.8623 
       0.681124         5.73235         5.34324         5.75589 
       0.687237         5.59711         5.24343         5.64275 
       0.693381         5.46035         5.14579         5.53787 
       0.699536         5.40668         5.05052         5.44583 
       0.705665          5.3056         4.95808         5.37401 
       0.711789         5.18978         4.86802         5.27725 
       0.717957         5.09821         4.77954         5.17711 
        0.72409         5.02159         4.69371         5.09236 
       0.730186         4.96092         4.61051         4.99937 
       0.736317         4.85722         4.52887         4.91505 
       0.742472         4.78882         4.44894         4.85391 
       0.748622         4.71307         4.37105         4.77257 
        0.75476         4.60963         4.29526          4.6822 
       0.760888         4.55827         4.22144         4.61153 
       0.767043         4.43978         4.14911         4.54281 
       0.773185          4.3865         4.07867         4.47548 
       0.779291         4.34949          4.0103         4.40437 
       0.785407         4.26227         3.94344         4.33156 
       0.791564         4.19877         3.87769         4.26577 
       0.797719         4.12676          3.8135         4.18856 
       0.803834         4.06416         3.75117         4.12978 
       0.809972         3.99876         3.69003          4.0784 
       0.816124         3.93835         3.63013         4.00577 
       0.822261         3.88507         3.57174         3.94569 
       0.828378         3.81625         3.51482         3.88759 
       0.834502         3.76414         3.45911         3.82579 
       0.840667         3.71868         3.40426         3.77354 
       0.846816         3.65626         3.35077         3.72961 
       0.852925         3.59499         3.29878         3.67109 
       0.859047         3.54578         3.24781         3.62647 
       0.865192         3.49406         3.19776         3.56931 
       0.871341         3.44657         3.14874         3.51719 
       0.877463         3.38981         3.10099          3.4645 
       0.883569         3.34387         3.05437         3.42224 
       0.889708         3.30388         3.00848         3.37452 
       0.895864         3.25725         2.96342         3.32492 
       0.902008          3.2002          2.9194         3.28019 
       0.908149         3.16386         2.87631         3.23854 
       0.914301         3.12735         2.83403         3.18994 
       0.920448         3.08323         2.79265         3.14384 
       0.926574         3.05348         2.75225         3.10612 
       0.932687         3.00424         2.71275         3.05597 
       0.938823         2.95132         2.67389         3.03058 
       0.944975         2.92322         2.63571         2.97786 
       0.951105         2.86957         2.59843         2.94014 
       0.957225         2.83697         2.56194         2.91112 
       0.963368         2.80938         2.52604         2.86841 
       0.969511         2.77573         2.49083         2.83296 
       0.975621         2.73089         2.45649         2.78634 
       0.981748         2.68239         2.42271         2.75436 
       0.987916         2.65443         2.38937         2.72968 
        0.99406         2.63155         2.35678         2.69643 
        1.00019         2.59545         2.32488         2.66405 
        1.00632         2.57155          2.2936         2.62635 
        1.01246         2.53274         2.26286         2.59247 
        1.01859          2.5014         2.23273         2.56256 
        1.02471         2.46054          2.2032         2.53188 
        1.03085         2.43465         2.17411         2.49571 
        1.03698         2.40862         2.14561         2.46572 
        1.04314          2.3817         2.11751          2.4389 
        1.04929         2.35459         2.08998         2.41021 
        1.05541         2.31611         2.06306         2.38575 
        1.06154         2.29671         2.03655         2.35773 
        1.06769         2.27427         2.01047         2.32947 
        1.07382         2.24128         1.98494         2.30211 
        1.07993         2.21392         1.95992         2.27503 
        1.08607         2.19214         1.93522         2.24949 
        1.09222         2.15923         1.91094         2.22057 
        1.09836         2.14456          1.8871          2.1986 
        1.10449         2.10727          1.8637         2.17429 
        1.11063         2.08592         1.84068         2.14543 
        1.11677         2.06656         1.81806         2.12542 
         1.1229         2.03455         1.79586         2.10299 
        1.12903         2.02089         1.77402         2.07833 
        1.13518         1.99128         1.75253         2.05687 
        1.14131         1.97275         1.73141         2.03403 
        1.14745         1.95259         1.71066         2.00749 
        1.15359         1.92937         1.69024         1.98953 
        1.15973         1.90963         1.67015         1.96952 
        1.16584         1.88512         1.65048         1.94647 
        1.17197         1.86325         1.63111         1.92569 
        1.17811         1.84295         1.61199         1.90761 
        1.18424         1.82311         1.59323         1.88367 
        1.19038         1.80124         1.57472         1.86502 
        1.19652         1.78945         1.55652         1.84774 
        1.20267         1.77217         1.53861         1.82254 
        1.20881          1.7452         1.52098         1.80756 
        1.21495         1.73112         1.50366         1.79401 
        1.22108         1.71356         1.48662         1.77192 
         1.2272         1.68874         1.46989         1.75019 
        1.23334         1.67688         1.45337         1.73532 
        1.23949         1.66164         1.43708         1.72182 
        1.24562         1.64295         1.42108         1.70358 
        1.25174         1.62629         1.40535         1.68291 
        1.25789         1.60534         1.38981         1.66565 
        1.26402         1.58942         1.37454         1.64916 
        1.27014         1.57083         1.35953         1.63438 
        1.27628         1.55942         1.34471         1.61834 
        1.28244         1.54534         1.33008          1.6014 
        1.28858         1.52587          1.3157         1.58318 
        1.29471         1.50901         1.30155         1.56966 
        1.30084         1.49676         1.28763         1.55924 
        1.30697         1.48601          1.2739          1.5431 
        1.31312         1.46957         1.26035         1.52769 
        1.31925         1.45506         1.24704         1.51524 
        1.32537         1.44149         1.23393         1.50061 
        1.33151         1.42578         1.22097         1.48623 
        1.33765         1.41255         1.20821         1.47219 
        1.34378         1.39633         1.19565         1.46003 
        1.34992         1.38867         1.18327         1.44689 
        1.35606         1.37247         1.17104         1.42941 
         1.3622         1.36047           1.159         1.41751 
        1.36833         1.34763         1.14716         1.40701 
        1.37445         1.33498          1.1355         1.39462 
        1.38059         1.32193         1.12396         1.38085 
        1.38675         1.31006         1.11256         1.36737 
        1.39288         1.29715         1.10136          1.3557 
        1.39901         1.28616         1.09033         1.34469 
        1.40515         1.27252         1.07942         1.33085 
         1.4113          1.2665         1.06866         1.32014 
        1.41742         1.25051          1.0581         1.31276 
        1.42355         1.23589         1.04766         1.29498 
         1.4297         1.23096         1.03733          1.2885 
        1.43585         1.21596         1.02714          1.2773 
        1.44198          1.2067         1.01713         1.26032 
        1.44809          1.1945         1.00728         1.25539 
        1.45423         1.18605        0.997519         1.23955 
        1.46036         1.17491        0.987907         1.23049 
        1.46649         1.16203         0.97842         1.22356 
        1.47263         1.15278        0.969051         1.21195 
        1.47877           1.148         0.95981         1.20035 
        1.48491         1.13033        0.950675         1.19253 
        1.49104          1.1266        0.941681         1.18014 
        1.49718         1.11242        0.932796         1.17303 
        1.50333         1.10562        0.924013         1.15945 
        1.50947         1.09693        0.915362         1.14937 
         1.5156          1.0864        0.906836         1.14273 
        1.52172         1.07859        0.898419         1.13193 
        1.52787         1.06654        0.890092         1.12234 
          1.534         1.06068        0.881882         1.11445 
        1.54013         1.05098        0.873785         1.10531 
        1.54627         1.04132        0.865775         1.09556 
        1.55241         1.03114        0.857866         1.08656 
        1.55855         1.02402        0.850067         1.07839 
        1.56467           1.016        0.842387         1.07084 
         1.5708         1.00639        0.834782         1.06047 
        1.57695        0.997115        0.827259         1.05191 
        1.58308        0.987023        0.819847         1.04611 
        1.58922        0.983253        0.812522         1.03744 
        1.59535        0.972149         0.80529         1.02825 
         1.6015        0.964061        0.798136         1.01923 
        1.60764        0.957651        0.791074         1.01272 
        1.61376        0.949257        0.784117         1.00727 
        1.61989        0.942456        0.777239        0.998603 
        1.62604        0.933133        0.770428        0.990674 
        1.63218        0.928532        0.763704        0.983712 
        1.63831         0.91883        0.757077        0.976025 
        1.64444        0.912128        0.750526         0.96745 
        1.65059        0.905047        0.744038        0.959913 
        1.65673         0.89759        0.737634        0.953675 
        1.66285        0.891244        0.731324        0.946864 
        1.66898        0.884409        0.725086         0.93863 
        1.67512        0.875228         0.71891        0.931804 
        1.68127        0.867761          0.7128        0.925755 
         1.6874        0.863842        0.706775        0.919366 
        1.69353        0.856395        0.700824        0.912062 
        1.69967        0.849716        0.694928        0.904696 
        1.70581        0.844479        0.689103        0.898754 
        1.71193        0.837677        0.683367        0.893114 
        1.71806        0.831114        0.677684        0.885647 
        1.72421        0.824331        0.672056        0.879859 
        1.73035        0.815711        0.666499        0.873469 
        1.73649        0.814539        0.661005        0.865629 
        1.74262        0.804842        0.655579        0.859594 
        1.74876        0.800768        0.650211        0.854915 
        1.75489        0.794648        0.644914        0.849296 
        1.76101        0.786897        0.639678        0.842386 
        1.76715        0.782134        0.634494        0.836788 
        1.77329        0.776689        0.629361        0.831544 
        1.77943        0.770492        0.624283        0.825679 
        1.78557        0.767135        0.619269        0.819326 
        1.79171        0.760913         0.61431        0.812874 
        1.79785        0.754071        0.609405         0.80727 
        1.80399        0.747216        0.604554        0.802428 
        1.81012        0.743305        0.599763        0.795336 
        1.81625          0.7387        0.595027        0.789621 
        1.82239        0.733182        0.590335        0.786551 
        1.82853        0.727537        0.585696        0.782209 
        1.83466        0.721739        0.581111        0.776191 
        1.84078        0.715588        0.576581         0.77006 
        1.84692        0.711756        0.572093        0.765472 
        1.85306         0.70736        0.567647        0.759898 
         1.8592        0.701355        0.563255        0.754042 
        1.86533        0.697863        0.558913        0.749787 
        1.87147        0.690532        0.554611        0.744878 
