# k  (h/Mpc)    P(k)  (Mpc/h)^3    P_linear(k)  (Mpc/h)^3     P_NL(k)  ShotnoiseSubtracted = false
     0.00783031         5795.54          5821.1         5817.21 
       0.013688         7636.57         7780.74         7746.66 
       0.019231          8316.9         8404.27         8346.89 
      0.0249154         8248.89         8254.59         8194.32 
      0.0312784         7528.31         7593.73         7530.96 
      0.0375637         6694.82         6792.42         6728.11 
      0.0433917         6077.78         6113.76         6045.11 
      0.0492413         5496.21         5570.79         5501.84 
      0.0555754         5098.89         5138.52         5069.06 
      0.0619321         4666.51         4816.36         4744.16 
       0.067871         4463.12         4555.81         4483.31 
      0.0738098         4215.07         4286.87         4194.92 
      0.0800417         3912.22          3970.9         3881.17 
      0.0862327         3558.45         3627.09          3558.4 
      0.0921407         3236.84         3294.79         3229.98 
      0.0982031         2956.73         2979.17         2940.01 
       0.104506         2656.49         2702.91         2685.43 
       0.110769         2457.32         2491.05         2464.26 
       0.116806         2347.87         2341.13         2315.24 
       0.122832         2209.34         2229.82         2210.61 
       0.129052         2118.86         2134.93         2116.47 
       0.135211         2051.72         2042.13         2023.91 
       0.141259         1927.02         1940.25         1931.24 
       0.147318         1791.62         1824.53         1827.13 
       0.153489         1689.01         1697.73         1688.15 
       0.159709         1599.33         1570.92         1579.13 
       0.165845         1458.93         1457.06         1493.27 
       0.171974         1412.49         1361.41          1400.8 
       0.178125         1351.62         1285.65         1345.41 
       0.184229         1260.76         1228.03         1286.58 
        0.19034         1236.77         1182.29         1240.86 
       0.196428         1200.71         1141.92         1189.95 
       0.202534         1131.75         1100.73         1152.78 
       0.208729         1110.14         1054.54         1101.14 
       0.214876         1068.33         1003.69            1068 
       0.220989          999.28         950.154         1023.57 
       0.227147          975.06         896.701         975.203 
        0.23329         936.069         847.351         941.293 
       0.239377         914.849         804.788         904.993 
       0.245482         869.401         769.239         863.844 
       0.251667         836.629         739.734         842.967 
       0.257832          828.66         714.944         816.755 
       0.263955          787.45         692.558         792.323 
       0.270079         764.697         670.275         768.967 
        0.27624         733.159         646.677         743.502 
       0.282372         718.328         621.659         721.638 
        0.28843         712.562         596.006         697.572 
       0.294538         677.141         570.309         678.515 
       0.300721           655.1         545.672         659.956 
        0.30691         644.718         523.345         643.613 
       0.313033         618.436         503.919         622.336 
       0.319153         608.304         487.039          607.66 
       0.325316         595.909          471.97         596.777 
        0.33145         583.705         458.141         576.417 
       0.337538         564.226         444.801         563.183 
       0.343633         547.724         431.332         555.216 
       0.349808         534.641         417.357         543.581 
       0.355968         524.359         403.197         532.578 
       0.362074         510.234         389.284         519.199 
       0.368217         505.163         375.791         503.309 
       0.374374         495.294         363.145         493.509 
       0.380519         476.281         351.552          482.04 
       0.386598         470.034         341.117         473.537 
       0.392688         460.704         331.535         463.752 
        0.39888         448.988         322.413         454.529 
       0.405048         441.942         313.703          449.36 
       0.411186         438.792         305.183         438.252 
       0.417313         431.609           296.7         427.344 
       0.423458         419.788         288.241          420.31 
       0.429607         410.774         279.882         412.011 
       0.435692         403.164          271.84         404.594 
       0.441815         397.029         264.109         400.986 
       0.447964         387.512          256.78          392.87 
       0.454126         382.167         249.881         383.512 
       0.460267         377.165         243.437         380.614 
       0.466387         371.105         237.358          373.18 
        0.47254         366.359         231.488         368.011 
       0.478662         356.639         225.812         361.294 
       0.484765         353.059         220.276         353.478 
       0.490885          349.21         214.815         349.483 
       0.497035         344.067         209.422         345.618 
       0.503198         341.234         204.158         340.054 
       0.509342         332.269         199.091         335.951 
       0.515458         328.755         194.251         333.368 
       0.521598         322.004         189.598          326.56 
       0.527764         318.159         185.136          321.07 
       0.533884         317.741         180.904         317.499 
           0.54         311.338         176.835          313.47 
       0.546137         304.589         172.878         310.188 
       0.552299         303.563         169.003         305.064 
       0.558452         298.563         165.227         301.287 
       0.564573         296.099         161.563          298.73 
       0.570708         290.997         157.985         295.112 
       0.576825         286.574         154.515         289.822 
       0.582926         283.682         151.159         286.428 
       0.589034           280.3         147.909         283.629 
       0.595184         278.473         144.755         279.221 
       0.601379         272.845         141.694         278.095 
       0.607522         268.748         138.759         274.115 
       0.613639         266.739         135.924         271.254 
       0.619772         264.711         133.157         268.054 
       0.625918         262.062         130.453         266.013 
       0.632068         256.873         127.815         261.629 
       0.638161         254.197         125.271         260.234 
         0.6443         253.264         122.776          257.18 
       0.650464         248.953         120.341          252.92 
       0.656582         247.208         117.992         251.138 
       0.662703         245.211         115.708         248.777 
       0.668861         240.875         113.474         246.287 
       0.675024         240.484           111.3         243.308 
       0.681124         237.232         109.208         241.224 
       0.687237         234.337         107.168         238.443 
       0.693381         232.818         105.173         236.152 
       0.699536         229.883         103.225         234.379 
       0.705665         227.147         101.336         233.118 
       0.711789         224.997         99.4954         229.436 
       0.717957         222.639         97.6869         227.767 
        0.72409         221.218         95.9328         226.872 
       0.730186         220.789         94.2322         224.528 
       0.736317          217.13         92.5637         221.884 
       0.742472         214.418         90.9299         219.982 
       0.748622         211.467         89.3381         217.681 
        0.75476         211.953          87.789         216.033 
       0.760888         209.755         86.2801         213.532 
       0.767043          206.89         84.8018          212.51 
       0.773185         204.929         83.3622         211.219 
       0.779291         202.543         81.9649         209.157 
       0.785407         201.055         80.5982         206.844 
       0.791564         199.676         79.2545         205.543 
       0.797719         197.319         77.9424         204.287 
       0.803834         197.092         76.6686         201.917 
       0.809972         195.951         75.4189         200.563 
       0.816124         193.393         74.1947         199.378 
       0.822261         191.203         73.0012         197.544 
       0.828378         191.301         71.8379         195.252 
       0.834502         187.828         70.6992         194.727 
       0.840667         187.419         69.5782         193.684 
       0.846816         185.678         68.4849         191.539 
       0.852925         183.979         67.4224         189.987 
       0.859047           182.2         66.3805         188.579 
       0.865192         181.341         65.3576         187.596 
       0.871341         179.125         64.3558         185.818 
       0.877463         178.003         63.3798         185.064 
       0.883569          177.66         62.4269         183.545 
       0.889708         176.286         61.4889         182.364 
       0.895864         174.476         60.5681         181.306 
       0.902008         173.087         59.6683         179.438 
       0.908149         171.031         58.7876         178.121 
       0.914301         171.147         57.9234         177.488 
       0.920448         169.891         57.0777         176.056 
       0.926574         167.591         56.2521         174.108 
       0.932687          167.04         55.4447         173.006 
       0.938823          165.69         54.6505         172.242 
       0.944975         163.885         53.8702         171.312 
       0.951105         162.885         53.1082         169.978 
       0.957225         162.719         52.3624         168.963 
       0.963368          160.83         51.6285         167.118 
       0.969511         159.294         50.9089          166.36 
       0.975621         158.333          50.207         166.634 
       0.981748         157.025         49.5167          164.67 
       0.987916         156.128         48.8352         164.061 
        0.99406         155.346         48.1692         162.832 
        1.00019         153.951         47.5171         161.465 
        1.00632         153.359         46.8778         160.463 
        1.01246         152.031         46.2495         159.252 
        1.01859         150.989         45.6338         158.658 
        1.02471          149.84         45.0303         158.088 
        1.03085         148.793         44.4357         156.906 
        1.03698         147.811         43.8532         155.633 
        1.04314         146.971         43.2788         154.981 
        1.04929         146.406         42.7162         154.334 
        1.05541         145.409         42.1659         153.473 
        1.06154         144.499         41.6241         152.645 
        1.06769         143.026         41.0911         151.767 
        1.07382         142.174         40.5693         150.807 
        1.07993         141.596         40.0578         149.853 
        1.08607         140.245         39.5532         149.088 
        1.09222         139.852         39.0568         148.033 
        1.09836         138.324         38.5696         147.157 
        1.10449         137.576         38.0914         146.328 
        1.11063         136.657         37.6209         145.219 
        1.11677         135.951         37.1585         144.588 
         1.1229         134.911         36.7049         144.127 
        1.12903         134.535         36.2585         143.076 
        1.13518         133.593         35.8192         142.354 
        1.14131         132.826         35.3876         141.451 
        1.14745          131.66         34.9633          140.75 
        1.15359         130.503         34.5461         139.984 
        1.15973         130.044         34.1355         139.397 
        1.16584         129.241         33.7335         138.565 
        1.17197          128.47         33.3375         137.752 
        1.17811         127.579         32.9467         137.049 
        1.18424         126.709         32.5633          136.36 
        1.19038         126.539         32.1851         135.842 
        1.19652         125.404          31.813          134.84 
        1.20267         124.535         31.4469         134.234 
        1.20881         123.779         31.0867         133.594 
        1.21495         123.373         30.7327         132.667 
        1.22108         122.383         30.3844         132.237 
         1.2272         121.485         30.0423         131.495 
        1.23334         121.036         29.7048         130.872 
        1.23949          120.44         29.3717         129.997 
        1.24562         119.319         29.0447          129.53 
        1.25174         118.462         28.7233         128.865 
        1.25789         118.509         28.4057         128.237 
        1.26402         117.485         28.0936         127.516 
        1.27014         116.866         27.7869         127.266 
        1.27628         115.683          27.484         126.688 
        1.28244         115.426          27.185         125.506 
        1.28858         114.561         26.8909         124.921 
        1.29471           113.9         26.6019         124.654 
        1.30084         113.198         26.3174         123.728 
        1.30697         113.142         26.0367           123.1 
        1.31312         112.074         25.7597         122.677 
        1.31925         111.438         25.4876         122.008 
        1.32537         110.748         25.2198         121.355 
        1.33151         110.559         24.9549         120.879 
        1.33765         109.408          24.694         120.351 
        1.34378         109.354         24.4374          119.61 
        1.34992         108.611         24.1843         119.182 
        1.35606         107.823         23.9343         118.525 
         1.3622         107.411         23.6883         118.024 
        1.36833         106.447         23.4464         117.238 
        1.37445         105.778          23.208         116.675 
        1.38059         105.439         22.9722         116.492 
        1.38675         104.546         22.7391          115.59 
        1.39288         104.344         22.5103         115.302 
        1.39901         103.229         22.2847         114.709 
        1.40515         103.096         22.0617         114.199 
         1.4113         102.516         21.8419         113.808 
        1.41742         101.868          21.626         113.212 
        1.42355         101.213         21.4126          112.41 
         1.4297         100.678         21.2015         111.909 
        1.43585         99.9815         20.9933         111.576 
        1.44198         99.4818         20.7887          111.21 
        1.44809         98.8918         20.5873         110.337 
        1.45423         98.3077         20.3878         109.863 
        1.46036         97.5407         20.1914         109.494 
        1.46649         97.3073         19.9975         109.158 
        1.47263         96.8073          19.806         108.715 
        1.47877         96.3295         19.6171         107.949 
        1.48491         95.6565         19.4304         107.671 
        1.49104         94.8955         19.2466         106.992 
        1.49718         94.6656          19.065         106.448 
        1.50333         94.1761         18.8855         106.095 
        1.50947         93.7512         18.7087          105.65 
         1.5156         93.2023         18.5344         105.208 
        1.52172         92.5768         18.3624         104.812 
        1.52787         91.9294         18.1922         104.234 
          1.534         91.7486         18.0244         103.854 
        1.54013         91.2336         17.8589         103.347 
        1.54627         90.4354         17.6952          102.87 
        1.55241         89.9216         17.5335         102.507 
        1.55855         89.6653         17.3741         101.884 
        1.56467         88.8059         17.2172         101.391 
         1.5708         88.6197         17.0617          101.13 
        1.57695         88.1421          16.908         100.772 
        1.58308         87.6267         16.7565         100.297 
        1.58922         87.2328         16.6068         99.8602 
        1.59535         86.8042         16.4589         99.4117 
         1.6015         86.5773         16.3127         98.9102 
        1.60764         86.0088         16.1684         98.5788 
        1.61376         85.3703         16.0262         98.3205 
        1.61989         84.6662         15.8856         97.7391 
        1.62604         84.4337         15.7464         97.2196 
        1.63218         84.1029          15.609         96.8404 
        1.63831         83.6576         15.4735         96.5315 
        1.64444         83.1734         15.3397          96.135 
        1.65059         82.7914          15.207         95.5567 
        1.65673         82.0374         15.0762         95.1922 
        1.66285         81.6931         14.9472         94.8906 
        1.66898         81.0918         14.8197         94.4671 
        1.67512         81.0816         14.6935         94.2181 
        1.68127         80.4784         14.5686         93.7541 
         1.6874         79.9936         14.4454         93.1371 
        1.69353         79.6742         14.3238         92.7555 
        1.69967         79.2906         14.2033         92.5636 
        1.70581         78.8236         14.0842         92.2303 
        1.71193         78.3425          13.967         91.7853 
        1.71806         77.8236         13.8509         91.4781 
        1.72421         77.5568         13.7358         90.9886 
        1.73035         77.2955         13.6223         90.6477 
        1.73649         76.7837           13.51         90.4597 
        1.74262         76.0879         13.3991         89.9009 
        1.74876         75.9043         13.2894         89.4556 
        1.75489         75.2783         13.1811         89.1715 
        1.76101         74.9229         13.0741         88.8212 
        1.76715         74.8921         12.9681         88.3356 
        1.77329         74.1053         12.8632         88.0108 
        1.77943         73.9631         12.7594         87.7058 
        1.78557         73.6737          12.657         87.2169 
        1.79171         73.1156         12.5556         86.8615 
        1.79785          72.791         12.4553         86.6314 
        1.80399         72.3569         12.3562         86.3303 
        1.81012         71.9784         12.2583         85.9126 
        1.81625         71.7141         12.1615         85.5003 
        1.82239         71.4156         12.0656         85.2211 
        1.82853         70.9298         11.9708          85.033 
        1.83466         70.5097         11.8771         84.6143 
        1.84078          70.113         11.7845         84.1313 
        1.84692         69.7854         11.6927         84.0233 
        1.85306         69.4713         11.6019         83.7032 
         1.8592         69.1784         11.5121         83.2294 
        1.86533         68.6177         11.4234         83.0014 
        1.87147         68.3594         11.3354         82.6212 
        1.87761         67.8905         11.2484         82.1745 
