# k  (h/Mpc)    P(k)  (Mpc/h)^3    P_linear(k)  (Mpc/h)^3     P_NL(k)  ShotnoiseSubtracted = false
     0.00783031         12613.6         12658.4         12642.5 
       0.013688         16478.4         16916.2           16812 
       0.019231         17968.9         18270.1         18090.7 
      0.0249154           17887         17943.7           17720 
      0.0312784         16224.8         16506.5         16233.8 
      0.0375637         14372.8         14764.3         14477.5 
      0.0433917         13073.1           13289         12969.7 
      0.0492413         11782.5         12108.6         11784.2 
      0.0555754         10919.1         11168.9         10847.7 
      0.0619321         9897.52         10468.6         10137.9 
       0.067871         9482.09         9902.22         9576.72 
      0.0738098          8982.3         9317.63            8908 
      0.0800417         8316.73         8630.83         8233.41 
      0.0862327         7564.86         7883.53         7576.49 
      0.0921407         6902.29         7161.25          6873.7 
      0.0982031         6338.84         6475.24         6292.24 
       0.104506         5694.31         5874.77         5783.87 
       0.110769          5280.6         5414.28         5294.58 
       0.116806         5062.25         5088.44         4971.62 
       0.122832         4770.68         4846.49         4755.62 
       0.129052          4545.9         4640.26         4557.09 
       0.135211         4431.58         4438.54         4350.72 
       0.141259          4142.5         4217.11         4173.65 
       0.147318          3861.6          3965.6         3956.94 
       0.153489         3660.92         3689.98         3646.14 
       0.159709          3519.1         3414.37         3438.65 
       0.165845         3216.73          3166.9         3292.14 
       0.171974         3129.62            2959          3107.9 
       0.178125         3034.23         2794.33         3016.58 
       0.184229         2804.53         2669.09         2877.52 
        0.19034         2773.31         2569.69         2784.04 
       0.196428         2705.75         2481.95         2675.27 
       0.202534         2560.43         2392.42          2600.3 
       0.208729         2511.61         2292.02         2477.94 
       0.214876         2414.28          2181.5         2416.48 
       0.220989         2301.11         2065.14         2339.37 
       0.227147         2242.62         1948.96         2255.67 
        0.23329         2157.78         1841.69         2189.41 
       0.239377         2145.43         1749.19         2110.04 
       0.245482         2052.14         1671.92         2024.71 
       0.251667         1978.76         1607.79         1985.06 
       0.257832         1952.07         1553.91         1929.15 
       0.263955         1872.48         1505.25         1880.32 
       0.270079         1834.46         1456.82         1831.02 
        0.27624         1758.62         1405.53         1778.52 
       0.282372         1743.81         1351.16         1744.93 
        0.28843         1713.12          1295.4          1704.3 
       0.294538          1640.9         1239.55         1658.84 
       0.300721          1613.8            1186         1612.23 
        0.30691         1575.88         1137.47         1591.41 
       0.313033         1521.41         1095.25          1546.8 
       0.319153         1507.75         1058.57         1506.68 
       0.325316          1490.3         1025.81         1488.75 
        0.33145         1462.38         995.756         1439.58 
       0.337538          1419.1         966.761          1419.7 
       0.343633         1388.44         937.488          1404.3 
       0.349808         1366.92         907.112         1380.84 
       0.355968         1339.15         876.338         1359.33 
       0.362074          1305.3         846.097         1332.47 
       0.368217         1301.71         816.771         1300.86 
       0.374374          1281.8         789.283         1280.09 
       0.380519          1241.7         764.087         1257.61 
       0.386598          1238.5         741.407         1240.72 
       0.392688         1207.85         720.581         1216.04 
        0.39888         1185.88         700.755         1201.85 
       0.405048         1165.27         681.823         1185.78 
       0.411186         1158.86         663.305         1162.93 
       0.417313         1158.81         644.867         1148.65 
       0.423458          1123.3         626.483          1129.4 
       0.429607         1094.62         608.315         1109.64 
       0.435692         1087.54         590.835         1090.46 
       0.441815         1067.81         574.032          1088.5 
       0.447964         1058.01         558.104         1073.03 
       0.454126         1043.67         543.109         1045.55 
       0.460267         1032.55         529.103         1045.19 
       0.466387         1017.83         515.891         1025.47 
        0.47254         998.721         503.132         1014.08 
       0.478662         988.847         490.794         1002.09 
       0.484765         980.312         478.762         990.393 
       0.490885         968.696         466.894         973.342 
       0.497035          953.09         455.172         965.585 
       0.503198          951.76         443.731         955.025 
       0.509342         935.078         432.719         939.259 
       0.515458         916.614         422.197         934.861 
       0.521598         916.214         412.085         926.376 
       0.527764         894.875         402.386         916.738 
       0.533884         886.963         393.188         906.831 
           0.54         880.105         384.346         897.719 
       0.546137         870.673         375.745         887.536 
       0.552299         863.834         367.322         875.573 
       0.558452         856.157         359.115         869.285 
       0.564573         849.332         351.151          861.15 
       0.570708           841.4         343.374         852.451 
       0.576825          824.76         335.833         841.216 
       0.582926         822.832         328.539         834.971 
       0.589034         814.079         321.476         822.816 
       0.595184          804.47          314.62         817.104 
       0.601379         792.015         307.967          810.81 
       0.607522         782.718         301.588         799.951 
       0.613639         781.644         295.426         796.843 
       0.619772         774.119         289.412         794.859 
       0.625918         764.835         283.534         785.229 
       0.632068         759.259         277.802         780.018 
       0.638161         748.849         272.272         766.711 
         0.6443         743.057         266.849         763.561 
       0.650464         737.713         261.558         753.553 
       0.656582         732.084         256.453         748.383 
       0.662703         721.905         251.488          743.73 
       0.668861          715.64         246.632           740.2 
       0.675024         710.848         241.908         736.133 
       0.681124         699.866         237.361         723.748 
       0.687237         699.897         232.927         718.712 
       0.693381         687.704         228.589          712.21 
       0.699536         688.228         224.357         707.441 
       0.705665         679.777         220.251          701.01 
       0.711789         677.468          216.25          695.05 
       0.717957         669.028         212.319         693.399 
        0.72409         663.315         208.507         687.582 
       0.730186          660.77         204.811          681.16 
       0.736317         652.901         201.184         674.949 
       0.742472         644.753         197.633          670.14 
       0.748622          642.28         194.173         664.695 
        0.75476         635.368         190.806         664.985 
       0.760888         631.969         187.527         657.365 
       0.767043         629.399         184.314         649.817 
       0.773185         625.038         181.185          646.14 
       0.779291         617.447         178.148          640.47 
       0.785407         612.948         175.177         636.807 
       0.791564         608.726         172.257         635.227 
       0.797719         600.026         169.405         628.598 
       0.803834         600.864         166.637         625.171 
       0.809972         593.036         163.921         622.201 
       0.816124         588.474          161.26         613.813 
       0.822261          585.02         158.666         610.523 
       0.828378         582.254         156.137         606.762 
       0.834502          573.38         153.662         604.946 
       0.840667         572.281         151.226         600.454 
       0.846816         567.102          148.85         596.112 
       0.852925         564.793          146.54         592.245 
       0.859047          559.64         144.276         586.745 
       0.865192         556.261         142.052         583.313 
       0.871341          549.63         139.875         580.501 
       0.877463         548.343         137.754         576.917 
       0.883569         542.333         135.683         572.586 
       0.889708         536.918         133.644         567.826 
       0.895864         532.027         131.643         564.869 
       0.902008          531.12         129.687         561.639 
       0.908149         526.334         127.773         556.585 
       0.914301         524.232         125.895         552.766 
       0.920448         517.626         124.056         550.221 
       0.926574         515.575         122.262          546.18 
       0.932687         513.643         120.507         542.938 
       0.938823         507.151         118.781          541.18 
       0.944975         504.198         117.085         537.231 
       0.951105         500.792         115.429         532.251 
       0.957225         493.742         113.808         531.148 
       0.963368         494.871         112.213         527.419 
       0.969511         487.189         110.649         523.675 
       0.975621         486.244         109.123         520.411 
       0.981748         482.889         107.623         516.669 
       0.987916         479.981         106.142         515.718 
        0.99406         475.402         104.694         511.699 
        1.00019         470.899         103.277         506.324 
        1.00632          469.18         101.887          503.81 
        1.01246         465.717         100.522         500.965 
        1.01859         461.219         99.1836         497.148 
        1.02471         459.361         97.8718         495.612 
        1.03085         456.081         96.5794         494.196 
        1.03698         453.955         95.3135         491.386 
        1.04314         449.646         94.0651         488.072 
        1.04929         448.052         92.8422          483.93 
        1.05541         441.677         91.6462         480.603 
        1.06154         440.711         90.4686         477.722 
        1.06769           436.5         89.3102         474.562 
        1.07382         433.289          88.176         472.179 
        1.07993         432.311         87.0644         469.725 
        1.08607         428.729         85.9675         466.363 
        1.09222         425.083         84.8886          463.32 
        1.09836          422.23         83.8297         462.287 
        1.10449         418.698         82.7904         459.446 
        1.11063         416.559         81.7677         455.369 
        1.11677         412.193         80.7628         453.967 
         1.1229         410.799         79.7768         451.093 
        1.12903         407.216         78.8066         448.531 
        1.13518         405.167         77.8519         445.768 
        1.14131         403.213         76.9137         443.207 
        1.14745         398.288         75.9916         440.678 
        1.15359          395.67         75.0847         438.823 
        1.15973         393.807         74.1923         436.092 
        1.16584         391.935         73.3186         433.751 
        1.17197         388.916         72.4579         431.258 
        1.17811         384.525         71.6085         428.915 
        1.18424         383.053         70.7753         427.147 
        1.19038         380.933         69.9532         424.553 
        1.19652         376.707         69.1445          422.05 
        1.20267         375.752         68.3487         419.279 
        1.20881         373.869         67.5658         416.942 
        1.21495          369.09         66.7965         414.475 
        1.22108         368.409         66.0394         412.205 
         1.2272         363.238          65.296         409.524 
        1.23334         362.433         64.5624         407.052 
        1.23949         359.588         63.8385         405.432 
        1.24562          359.24         63.1278         403.464 
        1.25174         355.226          62.429         401.414 
        1.25789         352.493         61.7388         399.255 
        1.26402         350.628         61.0604         397.449 
        1.27014         348.857         60.3939         394.225 
        1.27628         345.389         59.7355         393.392 
        1.28244         343.164         59.0857         391.718 
        1.28858          341.65         58.4465         388.917 
        1.29471         339.855         57.8182         386.288 
        1.30084         337.745         57.1999         384.245 
        1.30697         334.185         56.5898         382.669 
        1.31312         332.163         55.9878         380.783 
        1.31925          330.24         55.3965         378.213 
        1.32537         328.415         54.8144         375.929 
        1.33151         325.392         54.2387         374.679 
        1.33765         322.967         53.6716         372.782 
        1.34378         320.652         53.1139         370.249 
        1.34992         318.226         52.5638           367.8 
        1.35606         316.276         52.0204         366.045 
         1.3622          314.83         51.4857         364.664 
        1.36833         313.519         50.9599         363.142 
        1.37445         311.604         50.4417         360.403 
        1.38059         308.038         49.9292         359.339 
        1.38675         306.617         49.4227         357.922 
        1.39288         305.299         48.9253         354.712 
        1.39901         302.397          48.435          352.89 
        1.40515         300.896         47.9504          350.91 
         1.4113         298.542         47.4727         348.924 
        1.41742         295.732         47.0034         347.647 
        1.42355         295.504         46.5396         345.677 
         1.4297         292.995         46.0807         343.773 
        1.43585         289.477         45.6282         342.771 
        1.44198         288.817         45.1836         340.527 
        1.44809         287.209         44.7458         339.233 
        1.45423         284.826         44.3122         336.344 
        1.46036         283.426         43.8853         334.955 
        1.46649         281.736         43.4638         333.695 
        1.47263         278.703         43.0476         331.469 
        1.47877         277.634         42.6371         329.619 
        1.48491         275.261         42.2314         327.838 
        1.49104         273.234         41.8318         326.133 
        1.49718         271.784         41.4371          325.36 
        1.50333          269.51          41.047          323.91 
        1.50947         268.831         40.6627         322.042 
         1.5156         266.019         40.2839         320.064 
        1.52172          264.49           39.91         317.995 
        1.52787         262.606         39.5401         316.662 
          1.534         262.035         39.1754          315.39 
        1.54013         259.416         38.8157         313.703 
        1.54627         257.962         38.4599         312.211 
        1.55241         256.241         38.1085         311.013 
        1.55855         254.756         37.7621         309.578 
        1.56467         252.919         37.4209         307.321 
         1.5708         251.509         37.0831         305.569 
        1.57695         249.955         36.7489         304.317 
        1.58308         248.745         36.4196         302.623 
        1.58922         246.593         36.0942         301.176 
        1.59535          244.44          35.773         300.133 
         1.6015         243.351         35.4552         298.724 
        1.60764         241.741         35.1414         296.859 
        1.61376         239.637         34.8324         295.344 
        1.61989         238.284         34.5269         294.091 
        1.62604         236.456         34.2243         292.444 
        1.63218         235.074         33.9256         291.148 
        1.63831         234.265         33.6312         290.028 
        1.64444         232.047         33.3402         288.148 
        1.65059         231.319          33.052         286.891 
        1.65673         229.142         32.7675         285.726 
        1.66285             228         32.4872         284.098 
        1.66898         226.599         32.2101         282.306 
        1.67512         224.594         31.9357         281.375 
        1.68127         223.545         31.6643         280.038 
         1.6874         221.926         31.3967          278.53 
        1.69353         220.893         31.1323         277.633 
        1.69967         219.371         30.8704         275.985 
        1.70581         217.777         30.6116         274.579 
        1.71193         216.491         30.3568         273.511 
        1.71806         214.499         30.1044         271.879 
        1.72421         213.585         29.8544         270.624 
        1.73035         211.727         29.6075         269.255 
        1.73649         210.184         29.3635         267.751 
        1.74262         209.381         29.1224         267.003 
        1.74876         207.963         28.8839         265.666 
        1.75489         206.817         28.6486         264.183 
        1.76101         205.735         28.4161         263.209 
        1.76715         203.964         28.1858         262.105 
        1.77329         202.046         27.9577         260.865 
        1.77943         201.082         27.7322          259.55 
        1.78557         200.122         27.5095         258.189 
        1.79171         199.286         27.2891         257.029 
        1.79785         197.687         27.0712         255.863 
        1.80399         196.369         26.8558         254.532 
        1.81012         195.074         26.6429         253.659 
        1.81625         193.647         26.4325          252.52 
        1.82239         192.415         26.2241         250.988 
        1.82853         191.671          26.018         249.901 
        1.83466         190.011         25.8144         248.707 
        1.84078         188.869         25.6131         247.468 
        1.84692         187.907         25.4137         246.731 
        1.85306         186.281         25.2162         245.492 
         1.8592         185.477         25.0212         244.105 
        1.86533         183.686         24.8283         243.397 
        1.87147         182.981         24.6372         242.432 
        1.87761         181.767         24.4481         241.212 
