# k  (h/Mpc)    P(k)  (Mpc/h)^3    P_linear(k)  (Mpc/h)^3     P_NL(k)  ShotnoiseSubtracted = false
     0.00783031          4098.1         4117.61         4115.28 
       0.013688         5415.02         5504.26         5482.49 
       0.019231         5894.31         5945.58          5909.4 
      0.0249154         5838.08         5839.82          5804.9 
      0.0312784         5338.05         5372.36         5339.42 
      0.0375637         4752.98          4805.5         4772.58 
      0.0433917         4311.06         4325.39          4291.5 
      0.0492413         3903.26         3941.26         3907.57 
      0.0555754         3620.52         3635.45         3601.17 
      0.0619321         3325.19         3407.53          3371.8 
       0.067871         3176.87          3223.2         3186.79 
      0.0738098         2997.92         3032.93         2986.47 
      0.0800417          2783.5         2809.39         2764.09 
      0.0862327         2532.71         2566.15         2531.72 
      0.0921407         2302.17         2331.05         2298.82 
      0.0982031         2099.42         2107.75         2088.97 
       0.104506         1887.36          1912.3         1904.82 
       0.110769         1744.56         1762.41         1749.81 
       0.116806         1663.58         1656.35         1644.17 
       0.122832         1566.71         1577.59         1568.95 
       0.129052         1504.42         1510.46         1502.02 
       0.135211          1453.1          1444.8         1436.66 
       0.141259         1367.32         1372.72         1369.08 
       0.147318         1272.24         1290.86         1293.86 
       0.153489         1196.93         1201.14         1197.25 
       0.159709         1127.61         1111.43         1117.01 
       0.165845         1029.53         1030.87         1051.72 
       0.171974          992.62         963.198          985.18 
       0.178125         945.956         909.596         942.548 
       0.184229         886.398         868.829         901.715 
        0.19034         867.072         836.473         869.026 
       0.196428         840.222         807.911          833.97 
       0.202534         793.215         778.768         807.016 
       0.208729         776.099         746.087         771.734 
       0.214876         746.999         710.111         745.894 
       0.220989         696.356         672.234         712.663 
       0.227147         678.234         634.416         676.949 
        0.23329         649.857         599.501         651.026 
       0.239377         630.698         569.387         624.945 
       0.245482         599.095         544.237         596.173 
       0.251667         575.703         523.362         580.201 
       0.257832         569.515         505.823         561.845 
       0.263955         541.172         489.985         544.533 
       0.270079         524.887          474.22         527.775 
        0.27624          503.11         457.524         509.567 
       0.282372         490.823         439.824         493.737 
        0.28843          486.28         421.675         476.326 
       0.294538         462.623         403.494         462.114 
       0.300721          444.87         386.063         448.788 
        0.30691         437.439         370.267         435.703 
       0.313033          419.69         356.523         420.792 
       0.319153         412.397         344.581         410.828 
       0.325316          401.01         333.919         402.493 
        0.33145         391.672         324.135         388.958 
       0.337538         379.398         314.697         378.994 
       0.343633         368.059         305.168         372.229 
       0.349808         358.455          295.28         363.767 
       0.355968         350.427         285.262         356.018 
       0.362074          342.32         275.419         346.287 
       0.368217         336.725         265.872         334.991 
       0.374374          329.56         256.925         328.009 
       0.380519         316.259         248.723         319.683 
       0.386598         310.865          241.34         312.989 
       0.392688         303.927         234.561         306.912 
        0.39888         297.251         228.108          299.36 
       0.405048          291.94         221.945         295.119 
       0.411186         288.457         215.917         288.673 
       0.417313         282.281         209.915          280.57 
       0.423458         275.135         203.931         275.381 
       0.429607         270.002         198.017         269.792 
       0.435692         264.771         192.327         264.672 
       0.441815         259.288         186.857         261.716 
       0.447964         252.287         181.672         255.748 
       0.454126         248.115         176.791           249.5 
       0.460267          245.79         172.232         246.877 
       0.466387         241.072         167.931         241.785 
        0.47254         238.337         163.778         237.986 
       0.478662         230.996         159.762         233.532 
       0.484765          228.24         155.845         228.217 
       0.490885         224.652         151.982         225.541 
       0.497035         222.633         148.166         222.681 
       0.503198          218.62         144.442         218.664 
       0.509342         213.016         140.857         215.636 
       0.515458          211.08         137.432         213.747 
       0.521598          206.15         134.141         208.869 
       0.527764         203.978         130.984         204.601 
       0.533884         203.298         127.989         202.136 
           0.54         198.252         125.111         199.471 
       0.546137         193.828         122.311         197.378 
       0.552299         192.211          119.57         193.538 
       0.558452         188.836         116.898         190.603 
       0.564573         187.966         114.306         188.895 
       0.570708         183.305         111.774         186.101 
       0.576825         181.109         109.319         182.983 
       0.582926         179.243         106.945         180.512 
       0.589034           176.8         104.646          178.78 
       0.595184         175.183         102.414         176.083 
       0.601379         170.956         100.248         174.777 
       0.607522         168.722         98.1721         171.489 
       0.613639         167.276         96.1662         169.823 
       0.619772          165.14         94.2086         167.165 
       0.625918         163.746         92.2953          166.08 
       0.632068         160.558         90.4294         163.218 
       0.638161         158.247          88.629         162.159 
         0.6443         157.681          86.864         159.691 
       0.650464         154.898         85.1415         156.981 
       0.656582         154.173         83.4798         156.066 
       0.662703         152.433         81.8637         153.764 
       0.668861         149.419         80.2831         152.359 
       0.675024         149.403         78.7451         150.327 
       0.681124          147.01         77.2649         148.845 
       0.687237         144.412         75.8217         146.952 
       0.693381         143.962         74.4098           145.3 
       0.699536         142.123         73.0321          144.42 
       0.705665         140.009         71.6954           143.3 
       0.711789         138.332         70.3931         140.572 
       0.717957         136.977         69.1136         139.695 
        0.72409         136.203         67.8725         139.077 
       0.730186         135.176         66.6693           137.3 
       0.736317         132.818         65.4889         135.525 
       0.742472         131.501          64.333         134.325 
       0.748622         129.566         63.2068         132.825 
        0.75476         129.026         62.1108         131.544 
       0.760888         128.293         61.0433         130.051 
       0.767043         126.153         59.9974         129.444 
       0.773185         124.788         58.9788         128.515 
       0.779291         123.478         57.9902         127.197 
       0.785407         121.893         57.0233         125.579 
       0.791564         121.802         56.0726         124.535 
       0.797719         120.589         55.1443         123.678 
       0.803834         119.377         54.2431         122.143 
       0.809972         118.791          53.359          121.29 
       0.816124         117.431         52.4928         120.573 
       0.822261         115.913         51.6484         119.168 
       0.828378         115.657         50.8254         117.675 
       0.834502         113.794         50.0197           117.5 
       0.840667          113.33         49.2266         116.618 
       0.846816         112.216         48.4532         115.373 
       0.852925         111.269         47.7014         114.477 
       0.859047         110.606         46.9643          113.24 
       0.865192         109.097         46.2405         112.651 
       0.871341         108.034         45.5318         111.541 
       0.877463         107.488         44.8413         110.929 
       0.883569         107.104         44.1671         110.102 
       0.889708         106.197         43.5035         109.146 
       0.895864         105.158          42.852         108.392 
       0.902008          104.33         42.2154         107.465 
       0.908149         103.207         41.5923         106.653 
       0.914301         102.894         40.9809         106.148 
       0.920448          102.26         40.3825         105.163 
       0.926574         100.463         39.7984         103.907 
       0.932687         100.119         39.2272         103.502 
       0.938823         99.2753         38.6653           102.6 
       0.944975         98.2514         38.1132         101.855 
       0.951105          97.486         37.5741         101.337 
       0.957225         97.4911         37.0464         100.695 
       0.963368          96.354         36.5272         99.5567 
       0.969511         95.5105         36.0181         98.9795 
       0.975621         94.9021         35.5215         98.9548 
       0.981748         93.9842         35.0331         97.8574 
       0.987916         93.2929         34.5509         97.3849 
        0.99406         92.8859         34.0798         96.6702 
        1.00019         91.9041         33.6184         95.9633 
        1.00632         91.3769         33.1661         95.4133 
        1.01246         90.7055         32.7216         94.6246 
        1.01859         90.2946          32.286         94.0203 
        1.02471         89.2675          31.859          93.599 
        1.03085         88.7583         31.4383          92.879 
        1.03698         88.1799         31.0262         92.1817 
        1.04314          87.646         30.6198         91.5928 
        1.04929         87.0135         30.2217         91.2979 
        1.05541         86.4325         29.8324         90.8733 
        1.06154         85.9911         29.4491         90.0891 
        1.06769         84.9481          29.072         89.6126 
        1.07382         84.5677         28.7028         89.0415 
        1.07993         84.1377          28.341         88.3734 
        1.08607         83.4215         27.9839         87.8084 
        1.09222         83.1266         27.6327         87.2121 
        1.09836         82.3803          27.288         86.7938 
        1.10449          81.906         26.9497         86.1873 
        1.11063         81.1946         26.6168         85.5728 
        1.11677         81.0483         26.2897         85.1294 
         1.1229         80.1978         25.9687         84.8229 
        1.12903         80.0756         25.6529          84.216 
        1.13518         79.7524         25.3421         83.7022 
        1.14131         78.9367         25.0367         83.2969 
        1.14745         78.1373         24.7366         82.7798 
        1.15359         77.5346         24.4414          82.574 
        1.15973         77.3948         24.1509         81.9238 
        1.16584         76.8679         23.8665         81.4155 
        1.17197         76.0489         23.5863         80.9358 
        1.17811         75.7652         23.3098         80.3143 
        1.18424         74.9834         23.0386         79.9007 
        1.19038          74.875          22.771         79.8038 
        1.19652         74.5355         22.5077         79.0557 
        1.20267         73.9515         22.2487         78.8814 
        1.20881          73.422         21.9938         78.3089 
        1.21495         73.1545         21.7434         77.9859 
        1.22108         72.7279          21.497         77.5042 
         1.2272         72.2144          21.255         77.1983 
        1.23334         71.7768         21.0162          76.735 
        1.23949         71.3964         20.7805         76.2121 
        1.24562         70.8038         20.5492         75.8566 
        1.25174         70.4073         20.3217         75.5791 
        1.25789         70.4861         20.0971         75.1047 
        1.26402         69.8054         19.8762         74.6586 
        1.27014         69.3406         19.6593         74.3203 
        1.27628         68.7695         19.4449          73.941 
        1.28244         68.5658         19.2334          73.606 
        1.28858          68.124         19.0253         73.2225 
        1.29471         67.8651         18.8208         72.9324 
        1.30084         67.2861         18.6196         72.3496 
        1.30697         67.1255          18.421         71.9579 
        1.31312         66.5049          18.225         71.8344 
        1.31925         66.1179         18.0325          71.394 
        1.32537         65.8269          17.843         70.9991 
        1.33151         65.4471         17.6556         70.7114 
        1.33765         65.0843         17.4711         70.3912 
        1.34378         64.8923         17.2895         69.9886 
        1.34992         64.3999         17.1104         69.6734 
        1.35606         64.0059         16.9335         69.4583 
         1.3622          63.548         16.7595         69.0826 
        1.36833         63.2062         16.5883         68.6606 
        1.37445         62.8211         16.4197         68.3714 
        1.38059         62.6203         16.2528         68.2131 
        1.38675         61.9749          16.088          67.749 
        1.39288         61.9502          15.926         67.5522 
        1.39901         61.4752         15.7665         67.2037 
        1.40515          61.217         15.6087         66.8052 
         1.4113         61.1285         15.4532         66.5637 
        1.41742         60.7114         15.3004         66.3865 
        1.42355         60.1331         15.1494         65.8458 
         1.4297          59.828         15.0001         65.5392 
        1.43585         59.4076         14.8528         65.3719 
        1.44198         59.1227          14.708         65.1305 
        1.44809         58.8658         14.5655         64.6093 
        1.45423          58.635         14.4244           64.35 
        1.46036          58.283         14.2854         64.1208 
        1.46649         58.1118         14.1482         63.8849 
        1.47263         57.6562         14.0128         63.6518 
        1.47877         57.4345         13.8791          63.328 
        1.48491         57.2278          13.747         62.9427 
        1.49104         56.7662          13.617         62.6639 
        1.49718         56.4953         13.4885         62.3845 
        1.50333         56.3585         13.3615         62.2192 
        1.50947         55.8378         13.2364         62.0112 
         1.5156         55.6442         13.1131         61.7144 
        1.52172         55.2441         12.9914         61.4113 
        1.52787          54.992          12.871         61.1179 
          1.534         54.7842         12.7523         60.9125 
        1.54013         54.5154         12.6352         60.6007 
        1.54627         54.0668         12.5194         60.2784 
        1.55241         53.8616          12.405          60.074 
        1.55855         53.6648         12.2922         59.8652 
        1.56467         53.4197         12.1812         59.5486 
         1.5708         53.1601         12.0712         59.3788 
        1.57695         52.8716         11.9624           59.15 
        1.58308           52.43         11.8552         58.7921 
        1.58922         52.2073         11.7493         58.6224 
        1.59535         52.0474         11.6447         58.4423 
         1.6015          51.917         11.5413         58.1245 
        1.60764         51.6138         11.4392          57.851 
        1.61376         51.2313         11.3386          57.666 
        1.61989         50.9539         11.2391         57.3431 
        1.62604         50.7599         11.1406         57.1601 
        1.63218         50.4589         11.0434         57.0116 
        1.63831         50.3634         10.9475         56.7337 
        1.64444         49.9899         10.8528         56.4448 
        1.65059         49.7942          10.759         56.2561 
        1.65673         49.4372         10.6664         56.0057 
        1.66285         49.3718         10.5752         55.7872 
        1.66898           48.89          10.485         55.6855 
        1.67512         48.8259         10.3956         55.4672 
        1.68127         48.5456         10.3073         55.1542 
         1.6874         48.2903         10.2202         54.8572 
        1.69353         48.1106         10.1341          54.655 
        1.69967         47.9158         10.0489         54.4847 
        1.70581         47.4385         9.96462         54.3807 
        1.71193         47.2799         9.88168         54.2003 
        1.71806         47.1607         9.79951           53.77 
        1.72421         46.9334         9.71812          53.532 
        1.73035         46.6347         9.63776         53.4587 
        1.73649         46.3272         9.55833         53.3138 
        1.74262         46.0652         9.47986         52.9563 
        1.74876         45.8123         9.40223         52.7386 
        1.75489         45.7017         9.32564         52.6042 
        1.76101         45.5485         9.24993         52.3994 
        1.76715         45.3082         9.17496          52.196 
        1.77329         45.0038         9.10074         52.0012 
        1.77943          44.983         9.02731         51.8116 
        1.78557         44.6486         8.95481          51.623 
        1.79171         44.4794          8.8831         51.4033 
        1.79785         44.2021         8.81216         51.2333 
        1.80399         44.0196         8.74202         51.1263 
        1.81012         43.8445         8.67275         50.7853 
        1.81625         43.5079         8.60425         50.4881 
        1.82239         43.3303         8.53641         50.3984 
        1.82853         43.2036         8.46933         50.2724 
        1.83466         42.9566         8.40304         50.0752 
        1.84078         42.7098         8.33753         49.8833 
        1.84692          42.494         8.27262         49.7737 
        1.85306         42.2745         8.20833          49.575 
         1.8592         42.1398         8.14483         49.3342 
        1.86533         41.9463         8.08203         49.1886 
        1.87147         41.7387         8.01984         49.0071 
        1.87761         41.4912         7.95827         48.7919 
