# k  (h/Mpc)    P(k)  (Mpc/h)^3    P_linear(k)  (Mpc/h)^3     P_NL(k)  ShotnoiseSubtracted = false
     0.00783031         5129.49         5152.76         5149.54 
       0.013688            6766         6887.62          6858.6 
       0.019231         7367.37         7439.68         7391.05 
      0.0249154         7303.47         7307.23         7257.67 
      0.0312784         6670.19         6722.25          6672.3 
      0.0375637         5934.48         6012.93         5962.13 
      0.0433917         5385.81         5412.16         5358.55 
      0.0492413         4872.63         4931.51         4877.83 
      0.0555754         4520.27         4548.85         4494.61 
      0.0619321         4142.33         4263.66         4207.22 
       0.067871         3960.35         4033.01         3976.08 
      0.0738098         3739.08         3794.94         3722.59 
      0.0800417         3470.98         3515.23         3444.64 
      0.0862327         3157.48         3210.87         3156.96 
      0.0921407          2871.3         2916.71         2865.94 
      0.0982031         2621.16         2637.31         2606.99 
       0.104506         2355.42         2392.75         2379.67 
       0.110769         2178.22          2205.2         2184.55 
       0.116806         2079.79         2072.49         2052.54 
       0.122832         1957.52         1973.94         1959.35 
       0.129052         1878.35         1889.95         1875.84 
       0.135211         1817.12         1807.79         1793.99 
       0.141259         1707.86          1717.6         1710.96 
       0.147318         1588.18         1615.17          1618.1 
       0.153489         1496.11         1502.91         1495.82 
       0.159709         1413.97         1390.66         1397.84 
       0.165845         1290.13         1289.86         1319.71 
       0.171974         1247.31         1205.19         1237.27 
       0.178125         1191.68         1138.12         1186.63 
       0.184229          1113.4         1087.11         1134.98 
        0.19034         1091.06         1046.63          1094.3 
       0.196428         1058.52         1010.89          1049.6 
       0.202534         998.159         974.423          1016.4 
       0.208729         978.317         933.532         971.282 
       0.214876         941.601         888.517           940.9 
       0.220989         879.412         841.124         900.697 
       0.227147         857.667         793.805         857.109 
        0.23329         822.869         750.117         826.255 
       0.239377         802.106         712.438         793.985 
       0.245482         762.024         680.969         757.652 
       0.251667         732.952         654.849         738.642 
       0.257832           725.8         632.904         715.517 
       0.263955         689.508         613.087         693.851 
       0.270079         669.232         593.361         673.041 
        0.27624          641.55         572.471         650.373 
       0.282372         627.584         550.323         630.809 
        0.28843         622.447         527.615         609.261 
       0.294538         591.672         504.866         592.129 
       0.300721         571.101         483.057         575.701 
        0.30691         561.995         463.291          560.48 
       0.313033         539.105         446.095         541.691 
       0.319153          529.98         431.152         528.948 
       0.325316         517.843         417.811         519.032 
        0.33145         506.766         405.569         501.384 
       0.337538         490.152          393.76         489.341 
       0.343633           475.6         381.837         481.802 
       0.349808         463.856         369.465         471.411 
       0.355968         454.454         356.931         461.655 
       0.362074         442.857         344.614         449.701 
       0.368217         437.453         332.669         435.615 
       0.374374         428.539         321.474           426.9 
       0.380519         411.789         311.211         416.656 
       0.386598         405.826         301.974         408.773 
       0.392688          397.45         293.491         400.593 
        0.39888         387.772         285.416         391.859 
       0.405048         381.431         277.705         387.093 
       0.411186          378.13         270.163         377.861 
       0.417313         371.145         262.653         367.962 
       0.423458         361.301         255.166         361.618 
       0.429607         353.956         247.766         354.494 
       0.435692         347.164         240.646         347.981 
       0.441815          341.37         233.802         344.615 
       0.447964         332.708         227.315         337.319 
       0.454126         327.776         221.207         329.206 
       0.460267         323.939         215.503         326.369 
       0.466387         318.372         210.121         319.892 
        0.47254         314.507         204.925         315.202 
       0.478662         305.602           199.9         309.409 
       0.484765         302.343         194.999         302.547 
       0.490885         298.616         190.165         299.112 
       0.497035         294.873         185.391         295.648 
       0.503198          291.38         180.731         290.731 
       0.509342         283.716         176.246          287.04 
       0.515458          280.99          171.96          284.73 
       0.521598         274.821         167.841          278.68 
       0.527764         271.724         163.891         273.614 
       0.533884         271.325         160.145         270.508 
           0.54         265.263         156.544         267.052 
       0.546137         259.466          153.04          264.28 
       0.552299          258.14          149.61         259.598 
       0.558452         253.776         146.267         256.123 
       0.564573         252.044         143.023         253.939 
       0.570708         246.965         139.856         250.571 
       0.576825         243.505         136.784         246.165 
       0.582926         240.984         133.813         243.151 
       0.589034         238.039         130.937          240.85 
       0.595184         236.323         128.144         237.102 
       0.601379         231.168         125.434         235.964 
       0.607522         227.847         122.836         232.176 
       0.613639          226.01         120.327         229.818 
       0.619772         223.881         117.877         226.683 
       0.625918         221.957         115.483         225.105 
       0.632068         217.304         113.148         221.344 
       0.638161         214.791         110.896         220.151 
         0.6443         214.098         108.687         217.268 
       0.650464           210.4         106.532         213.599 
       0.656582         209.162         104.453          212.23 
       0.662703         207.194         102.431         209.764 
       0.668861         203.347         100.453         207.757 
       0.675024          203.26         98.5286         205.115 
       0.681124         200.228         96.6767         203.387 
       0.687237         197.395         94.8708         200.912 
       0.693381         196.446         93.1042         198.865 
       0.699536         193.888         91.3803         197.451 
       0.705665         191.358         89.7078         196.309 
       0.711789         189.307         88.0783         192.916 
       0.717957         187.436         86.4774         191.555 
        0.72409         186.373         84.9245         190.844 
       0.730186         185.534         83.4191         188.693 
       0.736317         182.428          81.942         186.399 
       0.742472         180.309         80.4958         184.805 
       0.748622         177.729         79.0866         182.826 
        0.75476         177.866         77.7152         181.226 
       0.760888         176.316         76.3795         179.152 
       0.767043         173.668         75.0709         178.331 
       0.773185         171.797         73.7964         177.235 
       0.779291         169.985         72.5594         175.473 
       0.785407         168.346         71.3496         173.374 
       0.791564         167.613         70.1601         172.209 
       0.797719         165.798         68.9985         171.105 
       0.803834         164.985         67.8709         168.991 
       0.809972         164.228         66.7646         167.877 
       0.816124         162.127         65.6809         166.963 
       0.822261         160.229         64.6243         165.286 
       0.828378         160.131         63.5945         163.261 
       0.834502         157.276         62.5865         162.916 
       0.840667          156.83         61.5941         162.028 
       0.846816         155.498         60.6263         160.172 
       0.852925         153.977         59.6857         158.848 
       0.859047         152.716         58.7634         157.504 
       0.865192         151.456         57.8578         156.741 
       0.871341         149.786          56.971         155.184 
       0.877463         148.956          56.107         154.531 
       0.883569         148.585         55.2634         153.237 
       0.889708         147.422         54.4331         152.198 
       0.895864         145.897         53.6179         151.249 
       0.902008         144.815         52.8214         149.763 
       0.908149         143.001         52.0417         148.681 
       0.914301         143.079         51.2767         148.094 
       0.920448         142.024         50.5281         146.887 
       0.926574         139.893         49.7971         145.135 
       0.932687         139.486         49.0824         144.353 
       0.938823         138.304         48.3794         143.485 
       0.944975         136.784         47.6886         142.633 
       0.951105         135.912          47.014          141.63 
       0.957225         135.919         46.3538         140.858 
       0.963368         134.243         45.7042         139.237 
       0.969511         133.042         45.0671         138.547 
       0.975621         132.211         44.4458         138.798 
       0.981748         131.086         43.8347         137.126 
       0.987916         130.205         43.2314          136.61 
        0.99406         129.687         42.6418          135.53 
        1.00019         128.317         42.0645         134.439 
        1.00632         127.762         41.4986         133.706 
        1.01246         126.726         40.9424         132.652 
        1.01859          126.04         40.3974         132.015 
        1.02471         124.945         39.8631         131.514 
        1.03085         123.992         39.3367         130.514 
        1.03698         123.273         38.8211         129.464 
        1.04314          122.46         38.3126         128.873 
        1.04929         121.974         37.8145         128.421 
        1.05541         121.138         37.3274         127.731 
        1.06154         120.377         36.8478         126.919 
        1.06769         119.143         36.3759         126.213 
        1.07382         118.349          35.914         125.393 
        1.07993         117.929         35.4612         124.577 
        1.08607         116.823         35.0145         123.841 
        1.09222         116.529          34.575         122.892 
        1.09836         115.234         34.1438         122.268 
        1.10449         114.694         33.7204         121.591 
        1.11063         113.807         33.3039         120.638 
        1.11677         113.266         32.8946         120.058 
         1.1229          112.38          32.493         119.768 
        1.12903           112.1         32.0978         118.836 
        1.13518         111.437          31.709          118.23 
        1.14131         110.677         31.3268         117.527 
        1.14745         109.638         30.9513         116.912 
        1.15359         108.701         30.5819         116.388 
        1.15973         108.421         30.2185         115.753 
        1.16584         107.682         29.8626         115.078 
        1.17197         106.875          29.512         114.443 
        1.17811         106.262         29.1661         113.675 
        1.18424         105.418         28.8267         113.136 
        1.19038         105.382         28.4918         112.825 
        1.19652         104.583         28.1625         111.873 
        1.20267         103.744         27.8384         111.464 
        1.20881         103.084         27.5195         110.814 
        1.21495         102.704         27.2061         110.198 
        1.22108         101.976         26.8978         109.733 
         1.2272         101.201          26.595         109.194 
        1.23334         100.752         26.2962         108.598 
        1.23949         100.217         26.0013         107.885 
        1.24562          99.339         25.7119         107.491 
        1.25174         98.7355         25.4273         107.002 
        1.25789         98.8572         25.1462         106.428 
        1.26402         97.8717         24.8698         105.811 
        1.27014         97.3535         24.5984         105.469 
        1.27628         96.4697         24.3302          104.98 
        1.28244         96.1521         24.0655         104.168 
        1.28858         95.5776         23.8052         103.692 
        1.29471         95.0676         23.5493         103.437 
        1.30084         94.3499         23.2975         102.582 
        1.30697          94.334          23.049         102.061 
        1.31312         93.4059         22.8038         101.858 
        1.31925         92.9326         22.5629          101.25 
        1.32537          92.354         22.3258         100.663 
        1.33151         92.1155         22.0914         100.289 
        1.33765         91.3165         21.8604         99.8386 
        1.34378         91.1596         21.6332         99.2484 
        1.34992          90.496         21.4092         98.8724 
        1.35606         89.8845         21.1879         98.4072 
         1.3622         89.4218         20.9701         97.9433 
        1.36833         88.7672         20.7559         97.2485 
        1.37445         88.1249         20.5449         96.8823 
        1.38059         87.9007         20.3361         96.7428 
        1.38675         87.0761         20.1298         95.9467 
        1.39288         87.0139         19.9272         95.7153 
        1.39901         86.1657         19.7275          95.219 
        1.40515         85.9278         19.5302          94.777 
         1.4113         85.5572         19.3356         94.4615 
        1.41742         85.0824         19.1444         94.0018 
        1.42355          84.392         18.9555         93.3102 
         1.4297          83.969         18.7686         92.9025 
        1.43585          83.415         18.5843         92.6606 
        1.44198         82.9656         18.4032          92.375 
        1.44809         82.5199         18.2249         91.5716 
        1.45423          82.056         18.0483          91.239 
        1.46036         81.4727         17.8744         90.9603 
        1.46649         81.4006         17.7028         90.6615 
        1.47263         80.8347         17.5333         90.2964 
        1.47877         80.4685         17.3661         89.6955 
        1.48491         80.0348         17.2008         89.3751 
        1.49104         79.3983          17.038         88.8093 
        1.49718         79.0445         16.8773         88.4289 
        1.50333         78.7442         16.7184         88.1401 
        1.50947          78.244         16.5619          87.795 
         1.5156         77.8793         16.4076         87.4399 
        1.52172         77.3572         16.2553         87.0696 
        1.52787         76.8698         16.1046         86.6411 
          1.534         76.6657         15.9561         86.3318 
        1.54013         76.2536         15.8096         85.9214 
        1.54627         75.6119         15.6647         85.4994 
        1.55241         75.1886         15.5216         85.1611 
        1.55855         75.0091         15.3805         84.7283 
        1.56467         74.3662         15.2415         84.2957 
         1.5708         74.1565         15.1039         84.0981 
        1.57695         73.7516         14.9678         83.8453 
        1.58308         73.2599         14.8337         83.4074 
        1.58922         72.9413         14.7011         83.0597 
        1.59535         72.6609         14.5703         82.7124 
         1.6015         72.5077         14.4409         82.2856 
        1.60764          72.036         14.3131          81.974 
        1.61376         71.5164         14.1872         81.7494 
        1.61989         70.9634         14.0628         81.2862 
        1.62604         70.7432         13.9395          80.877 
        1.63218         70.4294         13.8179         80.5766 
        1.63831         70.1674          13.698         80.2942 
        1.64444         69.6667         13.5794         79.9507 
        1.65059         69.4573          13.462         79.5688 
        1.65673         68.8057         13.3462         79.2156 
        1.66285         68.6532          13.232         78.9286 
        1.66898         67.9811         13.1191         78.7077 
        1.67512           67.99         13.0074         78.4695 
        1.68127          67.508         12.8968         78.0376 
         1.6874         67.1096         12.7878         77.5431 
        1.69353         66.8694         12.6802          77.253 
        1.69967         66.5586         12.5735         77.0904 
        1.70581         66.1222         12.4681         76.8916 
        1.71193         65.7709         12.3643         76.5586 
        1.71806         65.4449         12.2615         76.1026 
        1.72421         65.1678         12.1597         75.7182 
        1.73035         64.8555         12.0591         75.5699 
        1.73649         64.4731         11.9597         75.4339 
        1.74262         63.9559         11.8615         74.8568 
        1.74876          63.702         11.7644         74.4977 
        1.75489         63.3147         11.6686          74.318 
        1.76101         63.0053         11.5738         74.0242 
        1.76715         62.9883           11.48         73.6644 
        1.77329         62.3234         11.3872         73.3933 
        1.77943          62.281         11.2953         73.1353 
        1.78557         61.9857         11.2046         72.7864 
        1.79171         61.5635         11.1148         72.4752 
        1.79785         61.2584         11.0261         72.2655 
        1.80399         60.9182         10.9383         72.0743 
        1.81012         60.6413         10.8516         71.6359 
        1.81625         60.2954         10.7659         71.2519 
        1.82239         60.0298         10.6811         71.1138 
        1.82853         59.8079         10.5971         70.9721 
        1.83466         59.3906         10.5142          70.617 
        1.84078         59.0589         10.4322         70.2202 
        1.84692         58.7421          10.351         70.1188 
        1.85306         58.4766         10.2706         69.8761 
         1.8592          58.302         10.1911         69.5133 
        1.86533         57.9138         10.1125          69.326 
        1.87147         57.6467         10.0347         69.0517 
        1.87761         57.2541         9.95767         68.6925 
