# k  (h/Mpc)    Pcb(k)  (Mpc/h)^3    Pcb_linear(k) (Mpc/h)^3    Pcb_NL(k) (Mpc/h)^3   ShotnoiseSubtracted = false
     0.00783031         14015.8           14064         14044.5 
       0.013688         18284.9         18794.1         18671.8 
       0.019231         19942.1           20298         20087.1 
      0.0249154         19861.7         19935.2         19667.5 
      0.0312784         17997.7         18338.4         18007.4 
      0.0375637         15933.8         16402.8         16054.2 
      0.0433917         14495.9         14763.7         14374.7 
      0.0492413         13058.9         13452.3         13056.9 
      0.0555754         12097.8         12408.3         12017.7 
      0.0619321         10951.3         11630.3         11228.9 
       0.067871         10492.3           11001         10606.6 
      0.0738098         9945.62         10351.6         9855.61 
      0.0800417         9203.87         9588.56         9108.33 
      0.0862327         8373.23         8758.33          8387.3 
      0.0921407         7644.47          7955.9         7609.59 
      0.0982031         7026.94         7193.76         6972.59 
       0.104506         6313.81         6526.66         6416.55 
       0.110769         5857.61         6015.07         5872.86 
       0.116806         5617.05         5653.07         5514.26 
       0.122832          5297.1         5384.27         5275.95 
       0.129052         5041.04         5155.15         5057.05 
       0.135211         4918.99         4931.06         4826.32 
       0.141259         4595.69         4685.04         4635.07 
       0.147318         4288.95         4405.63         4394.99 
       0.153489         4069.08         4099.43         4049.47 
       0.159709         3920.19         3793.24         3823.77 
       0.165845         3586.98          3518.3         3667.43 
       0.171974            3489         3287.34         3466.57 
       0.178125         3389.29          3104.4         3369.24 
       0.184229         3131.22         2965.26         3212.81 
        0.19034         3099.61         2854.83            3110 
       0.196428         3026.54         2757.34         2991.15 
       0.202534         2868.69         2657.88          2908.6 
       0.208729         2811.55         2546.35         2772.19 
       0.214876         2703.35         2423.56          2703.6 
       0.220989         2585.12         2294.29          2621.6 
       0.227147         2518.47         2165.22         2533.12 
        0.23329          2423.4         2046.05            2459 
       0.239377         2413.34         1943.28         2370.76 
       0.245482         2311.88         1857.44         2277.42 
       0.251667         2229.59         1786.19          2233.5 
       0.257832          2197.5         1726.33         2172.32 
       0.263955         2112.01         1672.28         2119.57 
       0.270079         2072.77         1618.48          2064.5 
        0.27624         1986.94          1561.5          2006.2 
       0.282372         1973.48         1501.08         1973.17 
        0.28843         1933.87         1439.14          1930.6 
       0.294538         1857.43         1377.09         1878.18 
       0.300721         1830.51          1317.6         1825.64 
        0.30691         1783.93         1263.69          1804.3 
       0.313033         1726.11         1216.79         1755.19 
       0.319153         1712.46         1176.02         1708.97 
       0.325316          1692.4         1139.64         1690.12 
        0.33145         1660.38         1106.25         1634.99 
       0.337538         1613.76         1074.03         1614.34 
       0.343633         1580.57         1041.51         1596.66 
       0.349808         1558.73         1007.77         1571.22 
       0.355968         1524.82         973.576         1547.86 
       0.362074         1490.51         939.982          1518.3 
       0.368217         1486.02         907.401         1484.21 
       0.374374          1461.9         876.862         1460.59 
       0.380519         1418.76         848.874         1437.02 
       0.386598         1417.55         823.672         1416.66 
       0.392688         1380.64         800.537         1391.35 
        0.39888         1359.68         778.512         1374.82 
       0.405048          1334.7         757.479         1355.31 
       0.411186         1325.72         736.907         1331.63 
       0.417313          1326.6         716.422         1317.36 
       0.423458         1287.41         695.997         1293.81 
       0.429607         1256.12         675.814         1273.01 
       0.435692         1248.23         656.395         1250.22 
       0.441815         1225.41         637.726         1249.68 
       0.447964         1216.74         620.031         1233.52 
       0.454126         1200.41         603.375         1201.32 
       0.460267         1188.03         587.812         1201.51 
       0.466387         1170.81         573.134         1179.09 
        0.47254         1149.07          558.96         1165.62 
       0.478662         1139.05         545.253         1153.37 
       0.484765         1129.19         531.885         1141.78 
       0.490885         1115.82           518.7         1121.24 
       0.497035         1097.88         505.678         1112.94 
       0.503198         1097.31         492.967         1101.57 
       0.509342         1077.36         480.734         1082.56 
       0.515458          1056.7         469.045         1077.43 
       0.521598         1059.46          457.81         1068.91 
       0.527764         1033.45         447.035          1058.7 
       0.533884         1023.57         436.817         1047.86 
           0.54         1016.46         426.993         1038.08 
       0.546137          1006.8         417.437         1026.95 
       0.552299         997.214         408.081         1013.37 
       0.558452         989.869         398.962         1006.15 
       0.564573         983.921         390.115         996.148 
       0.570708         972.868         381.475          985.25 
       0.576825          954.59         373.098         973.453 
       0.582926         952.257         364.993         967.067 
       0.589034         943.494         357.148         953.763 
       0.595184         931.341         349.531         946.986 
       0.601379         917.119         342.139         939.832 
       0.607522         907.645         335.053         926.813 
       0.613639         906.095         328.206          923.39 
       0.619772         895.303         321.525         920.739 
       0.625918          887.92         314.996         910.472 
       0.632068         880.117         308.627         904.907 
       0.638161         867.561         302.483         889.323 
         0.6443         861.145         296.459          885.17 
       0.650464          855.76          290.58         875.512 
       0.656582         849.801         284.909         869.153 
       0.662703          836.95         279.393         862.832 
       0.668861         829.625         273.999          859.45 
       0.675024         824.591          268.75         855.827 
       0.681124         811.524         263.698         841.282 
       0.687237         812.301         258.773         835.923 
       0.693381         797.031         253.954         827.672 
       0.699536         799.604         249.252         822.259 
       0.705665         788.602          244.69         814.917 
       0.711789         785.366         240.245         808.037 
       0.717957         777.132         235.878         806.379 
        0.72409         770.374         231.643         800.276 
       0.730186         766.297         227.536         791.827 
       0.736317         758.245         223.508         785.236 
       0.742472         748.456         219.563         780.321 
       0.748622          746.05         215.719         773.399 
        0.75476         737.109         211.978          773.35 
       0.760888         733.274         208.335         765.718 
       0.767043         730.506         204.766         755.908 
       0.773185         725.338         201.289          751.62 
       0.779291         717.008         197.915         744.999 
       0.785407         711.271         194.615         740.644 
       0.791564         706.523         191.371         739.798 
       0.797719          695.99         188.202         732.257 
       0.803834          696.23         185.127         727.643 
       0.809972         687.889         182.109         724.482 
       0.816124         683.452         179.153         715.709 
       0.822261         678.844         176.271         711.286 
       0.828378         676.357         173.462         706.929 
       0.834502         665.576         170.713         704.753 
       0.840667         663.977         168.006         699.949 
       0.846816         659.483         165.366         694.861 
       0.852925         654.898         162.801         690.067 
       0.859047         649.146         160.285         683.444 
       0.865192         645.115         157.815         680.096 
       0.871341          638.68         155.396         676.398 
       0.877463         637.652         153.039         672.545 
       0.883569         630.595         150.738         667.069 
       0.889708         623.467         148.473         661.652 
       0.895864          617.98          146.25         657.913 
       0.902008         616.723         144.077         654.242 
       0.908149         610.806         141.951         648.234 
       0.914301         608.297         139.864         643.859 
       0.920448         601.191         137.822         641.758 
       0.926574         598.056         135.828         637.111 
       0.932687         595.518         133.879         633.004 
       0.938823         588.943         131.961         630.241 
       0.944975         584.937         130.077         626.373 
       0.951105         581.151         128.237         620.487 
       0.957225         573.329         126.436         619.201 
       0.963368         574.189         124.664         614.678 
       0.969511         566.713         122.926         610.329 
       0.975621         564.109         121.232         606.695 
       0.981748         560.005         119.565         602.277 
       0.987916         557.048         117.919         601.024 
        0.99406         551.649         116.311         596.266 
        1.00019         546.871         114.737         590.469 
        1.00632         543.202         113.193         587.418 
        1.01246         539.846         111.676         584.472 
        1.01859         535.314         110.189         579.744 
        1.02471         533.626         108.732         577.472 
        1.03085         528.035         107.296         576.334 
        1.03698         526.849          105.89         573.202 
        1.04314         520.263         104.503         569.156 
        1.04929         519.207         103.144         564.174 
        1.05541         512.279         101.815         560.107 
        1.06154         510.696         100.507         556.716 
        1.06769         506.457         99.2201         553.062 
        1.07382         501.351         97.9601         550.272 
        1.07993         501.507         96.7251         547.402 
        1.08607         497.041         95.5065         543.748 
        1.09222         493.012         94.3079         539.997 
        1.09836         488.388         93.1315         538.823 
        1.10449         484.026         91.9768         536.154 
        1.11063         482.501         90.8407         530.909 
        1.11677         477.719         89.7243         529.329 
         1.1229         475.022         88.6289         525.709 
        1.12903          470.56          87.551         522.388 
        1.13518         469.456         86.4903         519.217 
        1.14131         466.191          85.448         516.758 
        1.14745         461.169         84.4237         513.199 
        1.15359         458.412         83.4161         511.376 
        1.15973         455.761         82.4248         508.266 
        1.16584          453.56         81.4541         505.501 
        1.17197         450.139         80.4979         502.566 
        1.17811         444.668         79.5542          499.52 
        1.18424         443.209         78.6286         497.234 
        1.19038         440.606         77.7152         494.426 
        1.19652         435.856         76.8168         491.022 
        1.20267         434.308         75.9328         488.495 
        1.20881         431.851          75.063          485.24 
        1.21495         426.318         74.2083         482.858 
        1.22108         426.378         73.3672          480.07 
         1.2272         420.619         72.5413         477.226 
        1.23334          419.53         71.7263         474.123 
        1.23949         415.197          70.922         471.754 
        1.24562          414.94         70.1325         469.603 
        1.25174          410.98         69.3562         467.407 
        1.25789         407.778         68.5894         464.848 
        1.26402         405.167         67.8357         462.633 
        1.27014          402.84         67.0953         458.941 
        1.27628          398.91         66.3638          457.72 
        1.28244         396.445         65.6418         455.661 
        1.28858         394.423         64.9317         452.636 
        1.29471         392.739         64.2338         449.965 
        1.30084         389.862         63.5468         446.986 
        1.30697         385.956          62.869         445.068 
        1.31312         383.737         62.2002         442.967 
        1.31925         380.912         61.5433         440.136 
        1.32537         379.111         60.8966         437.754 
        1.33151         375.451          60.257         436.225 
        1.33765         372.703         59.6271         434.042 
        1.34378         370.404         59.0075         430.633 
        1.34992         367.412         58.3963         427.987 
        1.35606         364.873         57.7926         426.088 
         1.3622         363.238         57.1986         424.557 
        1.36833         361.789         56.6144         422.573 
        1.37445         359.337         56.0388          419.72 
        1.38059         355.303         55.4694         418.032 
        1.38675          353.59         54.9067         416.324 
        1.39288          351.45         54.3541         413.201 
        1.39901         348.844         53.8094         410.804 
        1.40515         347.081          53.271         408.351 
         1.4113         344.542         52.7403         406.078 
        1.41742         341.325         52.2189         404.537 
        1.42355         340.319         51.7036         402.567 
         1.4297         338.299         51.1938         400.018 
        1.43585         333.633         50.6911         398.524 
        1.44198         333.422         50.1972         396.473 
        1.44809         331.122         49.7108         394.539 
        1.45423         328.085         49.2292         391.234 
        1.46036         326.746         48.7548         389.723 
        1.46649         324.542         48.2866         388.138 
        1.47263         321.217         47.8242         385.407 
        1.47877         320.353         47.3682         383.368 
        1.48491         317.062         46.9174         381.226 
        1.49104         314.563         46.4735         379.265 
        1.49718         312.776          46.035         378.761 
        1.50333         311.035         45.6015         376.543 
        1.50947         309.678         45.1746         374.158 
         1.5156         305.993         44.7538         372.244 
        1.52172         304.548         44.3384         370.046 
        1.52787         302.275         43.9275         368.276 
          1.534         301.426         43.5223         366.562 
        1.54013         298.749         43.1227         364.673 
        1.54627         296.548         42.7274         363.075 
        1.55241         295.253         42.3371         361.719 
        1.55855          292.52         41.9522         360.042 
        1.56467         290.754         41.5732         357.404 
         1.5708         289.091         41.1978         355.289 
        1.57695         287.417         40.8266         353.595 
        1.58308         286.113         40.4608         351.649 
        1.58922         283.718         40.0993         350.244 
        1.59535         280.766         39.7423         348.885 
         1.6015         279.782         39.3893         347.459 
        1.60764         277.984         39.0408          345.48 
        1.61376         275.971         38.6974         343.371 
        1.61989         274.374          38.358         341.947 
        1.62604         272.312         38.0219         339.876 
        1.63218         270.491           37.69         338.242 
        1.63831         269.009          37.363         337.013 
        1.64444         267.089         37.0397         334.838 
        1.65059          265.82         36.7195         333.459 
        1.65673         263.672         36.4034         332.092 
        1.66285         262.013          36.092         330.118 
        1.66898         260.452         35.7842         328.002 
        1.67512         257.938         35.4793         326.967 
        1.68127         256.615         35.1778         325.593 
         1.6874         255.001         34.8805         323.874 
        1.69353         254.463         34.5868          322.55 
        1.69967         252.261         34.2958         320.718 
        1.70581         249.806         34.0083         319.055 
        1.71193         248.946         33.7252         317.705 
        1.71806         246.746         33.4448         316.055 
        1.72421         245.471          33.167         314.361 
        1.73035         243.422         32.8928         312.631 
        1.73649         241.924         32.6217         311.054 
        1.74262         240.688         32.3539         309.973 
        1.74876         238.828         32.0889         308.419 
        1.75489         237.609         31.8275         306.866 
        1.76101         236.083         31.5691         305.756 
        1.76715         234.286         31.3133         304.362 
        1.77329         232.253           31.06         302.961 
        1.77943         230.986         30.8094         301.516 
        1.78557         229.902         30.5619         299.852 
        1.79171         228.498         30.3172         298.408 
        1.79785         226.523         30.0751          297.03 
        1.80399         225.591         29.8357         295.503 
        1.81012         223.806         29.5993         294.408 
        1.81625          222.46         29.3655         293.105 
        1.82239         220.767         29.1339         291.473 
        1.82853          219.91          28.905         290.249 
        1.83466         218.165         28.6788         288.904 
        1.84078         216.676         28.4552         287.473 
        1.84692         215.523         28.2337         286.469 
        1.85306         213.823         28.0142         285.102 
         1.8592         212.896         27.7975          283.55 
        1.86533         210.855         27.5832         282.424 
        1.87147         210.273         27.3709          281.14 
