# k  (h/Mpc)    P(k)  (Mpc/h)^3    P_linear(k)  (Mpc/h)^3     P_NL(k)  ShotnoiseSubtracted = false
     0.00783031         13927.4         13989.1         13969.7 
       0.013688         18169.6         18694.1         18572.4 
       0.019231         19816.3         20189.9         19980.1 
      0.0249154         19736.5         19829.1         19562.8 
      0.0312784         17884.2         18240.7         17911.5 
      0.0375637         15833.3         16315.5         15968.7 
      0.0433917         14404.5         14685.1         14298.2 
      0.0492413         12976.6         13380.7         12987.4 
      0.0555754         12021.6         12342.3         11953.8 
      0.0619321         10882.2         11568.4         11169.1 
       0.067871         10426.2         10942.5         10550.2 
      0.0738098         9882.91         10296.5         9803.14 
      0.0800417         9145.83         9537.51         9059.84 
      0.0862327         8320.43          8711.7         8342.64 
      0.0921407         7596.26         7913.54         7569.08 
      0.0982031         6982.63         7155.46         6935.47 
       0.104506            6274         6491.91         6382.39 
       0.110769         5820.68         5983.05         5841.59 
       0.116806         5581.63         5622.98          5484.9 
       0.122832          5263.7         5355.61         5247.86 
       0.129052         5009.25         5127.71         5030.13 
       0.135211         4887.97          4904.8         4800.62 
       0.141259         4566.71          4660.1          4610.4 
       0.147318         4261.91         4382.18         4371.59 
       0.153489         4043.42          4077.6         4027.91 
       0.159709         3895.47         3773.04         3803.41 
       0.165845         3564.36         3499.57          3647.9 
       0.171974            3467         3269.84         3448.11 
       0.178125         3367.92         3087.87          3351.3 
       0.184229         3111.47         2949.47         3195.71 
        0.19034         3080.07         2839.63         3093.44 
       0.196428         3007.46         2742.67         2975.22 
       0.202534         2850.61         2643.73         2893.11 
       0.208729         2793.82         2532.79         2757.43 
       0.214876          2686.3         2410.66         2689.21 
       0.220989         2568.81         2282.07         2607.64 
       0.227147         2502.59         2153.69         2519.63 
        0.23329         2408.12         2035.16          2445.9 
       0.239377         2398.12         1932.93         2358.14 
       0.245482         2297.31         1847.55          2265.3 
       0.251667         2215.53         1776.68         2221.62 
       0.257832         2183.64         1717.14         2160.76 
       0.263955         2098.69         1663.38         2108.28 
       0.270079          2059.7         1609.86         2053.51 
        0.27624         1974.41         1553.18         1995.52 
       0.282372         1961.03         1493.09         1962.67 
        0.28843         1921.67         1431.48         1920.32 
       0.294538         1845.72         1369.76         1868.18 
       0.300721         1818.97         1310.59         1815.92 
        0.30691         1772.68         1256.96         1794.69 
       0.313033         1715.22         1210.31         1745.84 
       0.319153         1701.66         1169.76         1699.87 
       0.325316         1681.73         1133.57         1681.13 
        0.33145         1649.91         1100.36         1626.28 
       0.337538         1603.58         1068.32         1605.75 
       0.343633          1570.6         1035.97         1588.16 
       0.349808          1548.9          1002.4         1562.85 
       0.355968         1515.21         968.394         1539.62 
       0.362074         1481.11         934.977         1510.21 
       0.368217         1476.65         902.569         1476.31 
       0.374374         1452.68         872.195         1452.82 
       0.380519         1409.81         844.352         1429.37 
       0.386598         1408.61         819.289         1409.12 
       0.392688         1371.94         796.275         1383.95 
        0.39888         1351.11         774.367          1367.5 
       0.405048         1326.29         753.446         1348.09 
       0.411186         1317.36         732.983         1324.54 
       0.417313         1318.24         712.608         1310.34 
       0.423458         1279.29         692.293         1286.93 
       0.429607         1248.19         672.216         1266.24 
       0.435692         1240.36           652.9         1243.56 
       0.441815         1217.69         634.332         1243.03 
       0.447964         1209.07          616.73         1226.96 
       0.454126         1192.84          600.16         1194.92 
       0.460267         1180.54         584.684         1195.12 
       0.466387         1163.43         570.083         1172.82 
        0.47254         1141.82         555.984         1159.42 
       0.478662         1131.86          542.35         1147.22 
       0.484765         1122.07         529.054          1135.7 
       0.490885         1108.79         515.939         1115.27 
       0.497035         1090.95         502.986         1107.01 
       0.503198         1090.39         490.343          1095.7 
       0.509342         1070.57         478.174          1076.8 
       0.515458         1050.04         466.548         1071.69 
       0.521598         1052.78         455.372         1063.22 
       0.527764         1026.93         444.656         1053.06 
       0.533884         1017.11         434.491         1042.28 
           0.54         1010.06          424.72         1032.56 
       0.546137         1000.45         415.216         1021.48 
       0.552299         990.926         405.908         1007.97 
       0.558452         983.627         396.838         1000.79 
       0.564573         977.716         388.038         990.845 
       0.570708         966.733         379.445         980.005 
       0.576825         948.571         371.111          968.27 
       0.582926         946.252         363.051          961.92 
       0.589034         937.544         355.246         948.684 
       0.595184         925.468          347.67         941.944 
       0.601379         911.336         340.318         934.829 
       0.607522         901.921         333.269         921.878 
       0.613639         900.381         326.459         918.475 
       0.619772         889.657         319.814         915.837 
       0.625918         882.321         313.319         905.624 
       0.632068         874.567         306.984          900.09 
       0.638161          862.09         300.873         884.589 
         0.6443         855.715         294.881         880.457 
       0.650464         850.364         289.033         870.851 
       0.656582         844.442         283.392         864.526 
       0.662703         831.672         277.906         858.239 
       0.668861         824.393          272.54         854.874 
       0.675024         819.392         267.319         851.271 
       0.681124         806.406         262.294         836.803 
       0.687237         807.179         257.395         831.473 
       0.693381         792.005         252.602         823.266 
       0.699536         794.561         247.925         817.882 
       0.705665         783.629         243.387         810.579 
       0.711789         780.414         238.966         803.735 
       0.717957         772.231         234.623         802.086 
        0.72409         765.516          230.41         796.015 
       0.730186         761.465         226.325         787.612 
       0.736317         753.463         222.318         781.056 
       0.742472         743.736         218.394         776.167 
       0.748622         741.346         214.571         769.281 
        0.75476         732.461          210.85         769.233 
       0.760888          728.65         207.226         761.642 
       0.767043         725.899         203.675         751.884 
       0.773185         720.764         200.218         747.619 
       0.779291         712.486         196.862         741.033 
       0.785407         706.785         193.579         736.701 
       0.791564         702.068         190.352         735.859 
       0.797719         691.601         187.201         728.358 
       0.803834          691.84         184.141         723.769 
       0.809972         683.551          181.14         720.625 
       0.816124         679.142         178.199         711.899 
       0.822261         674.563         175.333           707.5 
       0.828378         672.092         172.539         703.166 
       0.834502         661.379         169.804         701.002 
       0.840667          659.79         167.112         696.223 
       0.846816         655.324         164.486         691.162 
       0.852925         650.769         161.934         686.394 
       0.859047         645.053         159.432         679.806 
       0.865192         641.047         156.975         676.475 
       0.871341         634.652         154.568         672.797 
       0.877463         633.631         152.224         668.965 
       0.883569         626.619         149.936         663.518 
       0.889708         619.535         147.683          658.13 
       0.895864         614.083         145.471         654.411 
       0.902008         612.834          143.31         650.759 
       0.908149         606.954         141.195         644.783 
       0.914301         604.461         139.119         640.432 
       0.920448           597.4         137.088         638.341 
       0.926574         594.285         135.105         633.719 
       0.932687         591.763         133.166         629.634 
       0.938823         585.229         131.258         626.886 
       0.944975         581.248         129.384         623.038 
       0.951105         577.486         127.554         617.184 
       0.957225         569.714         125.763         615.904 
       0.963368         570.569             124         611.406 
       0.969511         563.139         122.272          607.08 
       0.975621         560.552         120.586         603.466 
       0.981748         556.474         118.928         599.071 
       0.987916         553.535         117.291         597.824 
        0.99406         548.171         115.692         593.091 
        1.00019         543.423         114.126         587.326 
        1.00632         539.777          112.59         584.291 
        1.01246         536.442         111.081         581.361 
        1.01859         531.939         109.602         576.657 
        1.02471         530.261         108.153         574.398 
        1.03085         524.705         106.725         573.266 
        1.03698         523.527         105.326          570.15 
        1.04314         516.982         103.946         566.126 
        1.04929         515.933         102.595          561.17 
        1.05541         509.048         101.273         557.125 
        1.06154         507.475          99.972         553.752 
        1.06769         503.263         98.6919         550.117 
        1.07382          498.19         97.4386         547.342 
        1.07993         498.345         96.2101         544.488 
        1.08607         493.907          94.998         540.853 
        1.09222         489.903         93.8058         537.122 
        1.09836         485.308         92.6357         535.955 
        1.10449         480.974         91.4872           533.3 
        1.11063         479.458         90.3571         528.083 
        1.11677         474.707         89.2467         526.511 
         1.1229         472.027         88.1571          522.91 
        1.12903         467.593         87.0849         519.607 
        1.13518         466.495         86.0299         516.453 
        1.14131         463.251         84.9932         514.007 
        1.14745         458.261         83.9742         510.467 
        1.15359         455.521          82.972         508.653 
        1.15973         452.887          81.986          505.56 
        1.16584           450.7         81.0205          502.81 
        1.17197           447.3         80.0693          499.89 
        1.17811         441.864         79.1307         496.861 
        1.18424         440.414           78.21         494.587 
        1.19038         437.828         77.3015         491.794 
        1.19652         433.108         76.4078         488.408 
        1.20267         431.569         75.5285         485.894 
        1.20881         429.128         74.6633         482.657 
        1.21495          423.63         73.8132         480.287 
        1.22108         423.689         72.9766         477.514 
         1.2272         417.967         72.1551         474.686 
        1.23334         416.884         71.3445         471.599 
        1.23949         412.579         70.5445         469.242 
        1.24562         412.323         69.7591         467.103 
        1.25174         408.389          68.987         464.918 
        1.25789         405.206         68.2243         462.373 
        1.26402         402.612         67.4746          460.17 
        1.27014           400.3         66.7381         456.498 
        1.27628         396.395         66.0105         455.283 
        1.28244         393.945         65.2924         453.235 
        1.28858         391.936          64.586         450.226 
        1.29471         390.263         63.8918          447.57 
        1.30084         387.403         63.2085         444.606 
        1.30697         383.522         62.5343         442.698 
        1.31312         381.317         61.8691         440.609 
        1.31925          378.51         61.2157         437.792 
        1.32537          376.72         60.5724         435.424 
        1.33151         373.083         59.9362         433.903 
        1.33765         370.352         59.3097         431.731 
        1.34378         368.069         58.6934          428.34 
        1.34992         365.096         58.0855         425.709 
        1.35606         362.572          57.485          423.82 
         1.3622         360.947         56.8941         422.296 
        1.36833         359.508          56.313         420.324 
        1.37445         357.071         55.7404         417.486 
        1.38059         353.063         55.1741         415.807 
        1.38675         351.361         54.6144         414.108 
        1.39288         349.234         54.0647         411.002 
        1.39901         346.644          53.523         408.617 
        1.40515         344.892         52.9875         406.177 
         1.4113          342.37         52.4595         403.917 
        1.41742         339.172         51.9409         402.384 
        1.42355         338.173         51.4284         400.424 
         1.4297         336.166         50.9213         397.888 
        1.43585          331.53         50.4213         396.402 
        1.44198          331.32           49.93         394.362 
        1.44809         329.034         49.4462         392.438 
        1.45423         326.016         48.9671         389.151 
        1.46036         324.686         48.4953         387.648 
        1.46649         322.495         48.0295         386.071 
        1.47263         319.191         47.5696         383.355 
        1.47877         318.333          47.116         381.327 
        1.48491         315.063         46.6676         379.197 
        1.49104          312.58          46.226         377.246 
        1.49718         310.803         45.7899         376.744 
        1.50333         309.073         45.3588         374.538 
        1.50947         307.726         44.9341         372.166 
         1.5156         304.064         44.5155         370.262 
        1.52172         302.627         44.1024         368.076 
        1.52787         300.369         43.6936         366.315 
          1.534         299.525         43.2906          364.61 
        1.54013         296.865         42.8931         362.732 
        1.54627         294.678         42.4999         361.142 
        1.55241         293.391         42.1117         359.794 
        1.55855         290.675         41.7288         358.125 
        1.56467         288.921         41.3518         355.501 
         1.5708         287.268         40.9785         353.397 
        1.57695         285.605         40.6092         351.713 
        1.58308         284.308         40.2454         349.777 
        1.58922         281.929         39.8858          348.38 
        1.59535         278.995         39.5308         347.027 
         1.6015         278.018         39.1796          345.61 
        1.60764         276.231         38.8329         343.641 
        1.61376         274.231         38.4914         341.543 
        1.61989         272.644         38.1538         340.127 
        1.62604         270.595         37.8195         338.066 
        1.63218         268.785         37.4894         336.441 
        1.63831         267.312          37.164         335.219 
        1.64444         265.405         36.8425         333.056 
        1.65059         264.144          36.524         331.684 
        1.65673         262.009         36.2096         330.324 
        1.66285         260.361         35.8999         328.361 
        1.66898          258.81         35.5937         326.256 
        1.67512         256.311         35.2904         325.226 
        1.68127         254.997         34.9905          323.86 
         1.6874         253.393         34.6948         322.149 
        1.69353         252.858         34.4026         320.833 
        1.69967         250.671         34.1132          319.01 
        1.70581         248.231         33.8273         317.357 
        1.71193         247.376         33.5457         316.014 
        1.71806          245.19         33.2668         314.373 
        1.72421         243.923         32.9905         312.688 
        1.73035         241.887         32.7176         310.967 
        1.73649         240.399          32.448         309.398 
        1.74262          239.17         32.1816         308.323 
        1.74876         237.322         31.9181         306.777 
        1.75489         236.111         31.6581         305.232 
        1.76101         234.595         31.4011         304.128 
        1.76715         232.809         31.1466         302.741 
        1.77329         230.789         30.8946         301.348 
        1.77943          229.53         30.6453         299.911 
        1.78557         228.452         30.3992         298.256 
        1.79171         227.057         30.1558         296.819 
        1.79785         225.095          29.915         295.449 
        1.80399         224.169         29.6769          293.93 
        1.81012         222.395         29.4417          292.84 
        1.81625         221.057         29.2092         291.544 
        1.82239         219.375         28.9788         289.922 
        1.82853         218.523         28.7511         288.704 
        1.83466         216.789         28.5261         287.366 
        1.84078          215.31         28.3037         285.943 
        1.84692         214.164         28.0834         284.944 
        1.85306         212.475         27.8651         283.584 
         1.8592         211.554         27.6495         282.041 
        1.86533         209.525         27.4364         280.921 
        1.87147         208.947         27.2252         279.644 
        1.87761         207.213         27.0162          278.43 
