# k  (h/Mpc)    P(k)  (Mpc/h)^3    P_linear(k)  (Mpc/h)^3     P_NL(k)  ShotnoiseSubtracted = false
     0.00783031         10117.4         10155.9         10145.4 
       0.013688         13254.7         13572.8           13498 
       0.019231         14448.4         14659.5         14531.4 
      0.0249154         14366.6         14397.8           14245 
      0.0312784         13058.3         13244.8           13065 
      0.0375637         11582.5         11846.9         11658.6 
      0.0433917         10529.8         10663.2         10455.1 
      0.0492413         9500.04         9716.06         9505.04 
      0.0555754         8808.99         8962.08         8752.11 
      0.0619321         8008.22         8400.16         8183.29 
       0.067871         7669.84          7945.7         7731.29 
      0.0738098         7257.39         7476.62         7206.31 
      0.0800417          6726.3         6925.54         6662.42 
      0.0862327         6116.99          6325.9         6122.89 
      0.0921407         5574.82         5746.33         5555.14 
      0.0982031         5110.57         5195.86         5075.49 
       0.104506         4590.09         4714.04         4655.07 
       0.110769         4252.77         4344.54         4263.56 
       0.116806         4074.01         4083.08         4004.31 
       0.122832         3835.36         3888.93         3828.17 
       0.129052         3663.64         3723.44         3666.81 
       0.135211         3564.28         3561.59         3503.12 
       0.141259         3336.09          3383.9         3353.78 
       0.147318         3104.54         3182.09         3178.24 
       0.153489         2938.21         2960.92         2930.04 
       0.159709         2811.12         2739.77            2756 
       0.165845         2565.91         2541.19          2628.5 
       0.171974          2495.7         2374.37         2475.64 
       0.178125         2409.42         2242.24         2395.46 
       0.184229         2231.26         2141.74         2286.94 
        0.19034         2201.28         2061.98         2210.24 
       0.196428         2144.25         1991.57          2121.1 
       0.202534         2023.64         1919.73         2059.62 
       0.208729         1987.53         1839.17         1963.17 
       0.214876         1910.58         1750.49         1912.94 
       0.220989         1808.55         1657.12         1845.69 
       0.227147          1764.3         1563.89         1772.25 
        0.23329         1697.04         1477.82          1718.7 
       0.239377         1679.92         1403.59         1655.35 
       0.245482         1602.49         1341.59         1585.02 
       0.251667         1544.57         1290.13         1552.46 
       0.257832         1526.65          1246.9         1506.69 
       0.263955         1458.75         1207.85         1465.78 
       0.270079         1423.99         1168.99         1426.35 
        0.27624         1365.71         1127.83         1383.75 
       0.282372         1349.07          1084.2         1351.46 
        0.28843         1331.44         1039.46          1315.1 
       0.294538         1269.68         994.645          1280.9 
       0.300721         1242.76         951.678         1245.32 
        0.30691         1218.22         912.737         1225.36 
       0.313033         1171.94         878.859         1188.86 
       0.319153         1158.44         849.419         1159.09 
       0.325316         1144.13         823.137         1143.06 
        0.33145         1123.02         799.019         1104.58 
       0.337538         1086.71         775.753         1086.37 
       0.343633         1060.53         752.263          1074.5 
       0.349808         1040.63         727.889            1055 
       0.355968         1021.76         703.195         1037.02 
       0.362074         992.248         678.929         1014.84 
       0.368217          988.95         655.397         988.153 
       0.374374         974.303          633.34         971.715 
       0.380519         940.839         613.122         952.541 
       0.386598         934.879         594.923         940.109 
       0.392688         915.005         578.212          919.04 
        0.39888         893.667         562.303         907.787 
       0.405048         879.434         547.112         897.174 
       0.411186         875.987         532.253         876.743 
       0.417313         872.586         517.457         862.428 
       0.423458         845.385         502.705         849.743 
       0.429607         823.001         488.127         832.874 
       0.435692         815.618         474.101         819.068 
       0.441815         801.962         460.617         815.215 
       0.447964         790.867         447.836         801.855 
       0.454126         780.897         435.804         782.476 
       0.460267         770.477         424.565         780.694 
       0.466387          760.15         413.963         765.846 
        0.47254         746.475         403.725         757.608 
       0.478662         735.883         393.825         746.318 
       0.484765         729.753          384.17         734.812 
       0.490885         721.566         374.647         723.934 
       0.497035         709.097         365.241         717.508 
       0.503198         708.035         356.061         708.153 
       0.509342         694.557         347.224         698.364 
       0.515458         681.633         338.782         694.639 
       0.521598         676.432         330.667         685.459 
       0.527764         663.013         322.885         677.352 
       0.533884         659.182         315.504         669.748 
           0.54         652.239         308.409         661.881 
       0.546137         642.505         301.507         654.114 
       0.552299         640.173         294.748         645.508 
       0.558452         632.337         288.162           640.3 
       0.564573         625.326         281.772         634.832 
       0.570708         620.835         275.532         629.295 
       0.576825         608.669         269.481         619.303 
       0.582926         605.944         263.628         613.404 
       0.589034         598.262          257.96         604.734 
       0.595184         592.773         252.459         599.638 
       0.601379         583.641          247.12         595.189 
       0.607522         575.308         242.002         588.129 
       0.613639          573.65         237.057         584.531 
       0.619772         570.359         232.231         582.986 
       0.625918         560.966         227.515         575.434 
       0.632068         556.881         222.915         569.764 
       0.638161         550.545         218.477         562.112 
         0.6443         545.898         214.126         559.352 
       0.650464         540.466          209.88         550.586 
       0.656582         535.926         205.784         546.322 
       0.662703         530.498           201.8         544.331 
       0.668861         524.773         197.904         540.257 
       0.675024           520.6         194.113         535.877 
       0.681124         514.335         190.464         527.621 
       0.687237         511.992         186.906         523.431 
       0.693381         505.112         183.426         519.359 
       0.699536         502.258          180.03         516.035 
       0.705665         497.227         176.735         511.363 
       0.711789          496.23         173.524         506.996 
       0.717957         488.438          170.37         504.561 
        0.72409          484.37         167.311         500.473 
       0.730186         485.305         164.345          496.45 
       0.736317         477.309         161.435         491.225 
       0.742472         472.151         158.586         487.039 
       0.748622         468.679          155.81         483.283 
        0.75476         465.668         153.108         483.098 
       0.760888         462.293         150.476         477.136 
       0.767043         459.239         147.898         473.351 
       0.773185          456.64         145.387         470.025 
       0.779291         450.116          142.95         465.821 
       0.785407         447.909         140.567         463.182 
       0.791564         444.051         138.223         460.579 
       0.797719         437.792         135.935         456.434 
       0.803834         440.316         133.713         454.073 
       0.809972         433.622         131.534         451.102 
       0.816124         429.358         129.399         445.232 
       0.822261         425.926         127.317          443.13 
       0.828378         424.523         125.288         440.076 
       0.834502         418.116         123.302         438.249 
       0.840667         418.043         121.347         434.942 
       0.846816         411.909         119.441         432.094 
       0.852925         411.746         117.588         429.072 
       0.859047         407.803         115.771         425.864 
       0.865192          406.34         113.986         423.093 
       0.871341          400.63         112.239         420.603 
       0.877463         397.471         110.537         417.939 
       0.883569         394.768         108.875         415.366 
       0.889708         391.428         107.239         411.812 
       0.895864          388.63         105.633         409.611 
       0.902008         386.756         104.064         406.989 
       0.908149         383.645         102.528         403.285 
       0.914301         381.611         101.021         401.154 
       0.920448         378.431          99.546         397.894 
       0.926574         376.308          98.106          395.51 
       0.932687         373.553         96.6979         392.602 
       0.938823         369.715         95.3128         392.021 
       0.944975         368.161          93.952         389.275 
       0.951105         365.221          92.623         385.962 
       0.957225         360.461         91.3222         384.166 
       0.963368         360.926         90.0424          381.37 
       0.969511          354.52         88.7873         378.688 
       0.975621         354.998         87.5632         377.278 
       0.981748         352.213         86.3593         374.565 
       0.987916         349.944         85.1707         373.155 
        0.99406         346.851         84.0092         370.762 
        1.00019         343.687         82.8719         366.972 
        1.00632         343.689          81.757         364.923 
        1.01246         340.708         80.6611         362.684 
        1.01859         336.356         79.5874         360.453 
        1.02471         334.314         78.5347         359.243 
        1.03085         333.809         77.4977         357.579 
        1.03698         330.904         76.4819         355.662 
        1.04314         330.082         75.4801         353.083 
        1.04929         327.307         74.4989         350.446 
        1.05541         323.391         73.5392         348.352 
        1.06154         322.122         72.5943         346.386 
        1.06769          318.84         71.6647          344.37 
        1.07382         318.417         70.7546         342.217 
        1.07993         315.259         69.8626         340.634 
        1.08607         312.939         68.9824         338.334 
        1.09222         311.245         68.1167         336.227 
        1.09836         309.725         67.2671          335.33 
        1.10449         307.428          66.433         333.022 
        1.11063         304.355         65.6124         330.785 
        1.11677         302.343         64.8061         329.051 
         1.1229         300.914         64.0149         327.534 
        1.12903         299.358         63.2364         325.864 
        1.13518         296.798         62.4703         323.712 
        1.14131         296.118         61.7174         322.011 
        1.14745         291.795         60.9776         320.199 
        1.15359         289.903         60.2498         318.409 
        1.15973         289.015         59.5338         316.571 
        1.16584         287.654         58.8327         314.125 
        1.17197          285.21          58.142         312.955 
        1.17811         282.673         57.4604         311.743 
        1.18424         281.032         56.7919         310.187 
        1.19038         279.615         56.1321         308.436 
        1.19652         276.393         55.4832         306.974 
        1.20267         276.249         54.8447         304.352 
        1.20881         273.869         54.2165         303.449 
        1.21495         272.671         53.5992         301.168 
        1.22108          270.65         52.9917         299.567 
         1.2272         267.666         52.3951         297.319 
        1.23334         266.713         51.8065         296.086 
        1.23949         265.678         51.2256         295.396 
        1.24562         263.742         50.6553         293.489 
        1.25174         261.727         50.0946         292.218 
        1.25789          259.51         49.5408         290.584 
        1.26402         259.182         48.9964         288.878 
        1.27014         257.576         48.4616         287.463 
        1.27628         254.632         47.9332         286.616 
        1.28244         253.849         47.4118         284.927 
        1.28858          251.98         46.8989         283.115 
        1.29471         250.804         46.3948         281.113 
        1.30084          249.15         45.8986         279.821 
        1.30697          246.62          45.409         278.829 
        1.31312         245.191          44.926          277.09 
        1.31925         243.885         44.4515         275.206 
        1.32537         242.934         43.9844         274.083 
        1.33151         240.772         43.5225         272.883 
        1.33765         239.147         43.0675          271.22 
        1.34378         237.578         42.6199         269.953 
        1.34992         235.981         42.1785         268.135 
        1.35606         234.865         41.7425         266.652 
         1.3622         233.367         41.3134         265.497 
        1.36833         231.297         40.8915         264.488 
        1.37445         230.707         40.4757          262.46 
        1.38059         228.735         40.0645         261.696 
        1.38675         227.167          39.658         260.522 
        1.39288         226.003         39.2589          258.11 
        1.39901         224.322         38.8655         257.416 
        1.40515         223.223         38.4766         256.309 
         1.4113         221.396         38.0933         254.606 
        1.41742         219.554         37.7167         253.443 
        1.42355         220.015         37.3445          252.44 
         1.4297         217.563         36.9763         251.071 
        1.43585          216.01         36.6132         249.978 
        1.44198         214.279         36.2564         248.463 
        1.44809         213.302         35.9051         247.348 
        1.45423         212.233         35.5573         245.741 
        1.46036         210.756         35.2146         244.544 
        1.46649         209.663         34.8765         243.807 
        1.47263         208.398         34.5425         242.878 
        1.47877         207.003         34.2131         241.177 
        1.48491         205.034         33.8875         239.935 
        1.49104         203.413         33.5669         238.985 
        1.49718         202.431         33.2502         237.599 
        1.50333         201.069         32.9371         236.639 
        1.50947         200.303         32.6287         235.636 
         1.5156         198.946         32.3248         234.224 
        1.52172         197.615         32.0248         232.773 
        1.52787         196.481          31.728         231.869 
          1.534          195.48         31.4353         230.749 
        1.54013         194.163         31.1467         229.641 
        1.54627         193.085         30.8612         228.678 
        1.55241         191.783         30.5792         227.517 
        1.55855         191.039         30.3012         226.231 
        1.56467         189.248         30.0275         225.099 
         1.5708         187.913         29.7564         224.165 
        1.57695         187.102         29.4882         223.145 
        1.58308         185.708          29.224         221.987 
        1.58922         184.745         28.9629         220.896 
        1.59535         183.036         28.7051           219.9 
         1.6015         182.086         28.4501         218.658 
        1.60764          181.25         28.1984         217.464 
        1.61376         179.645         27.9504         216.713 
        1.61989         178.684         27.7052         215.872 
        1.62604          177.34         27.4624          214.75 
        1.63218         176.664         27.2228         213.751 
        1.63831         175.744         26.9865         212.784 
        1.64444         174.329          26.753         211.521 
        1.65059          173.53         26.5217         210.718 
        1.65673         172.064         26.2935         209.725 
        1.66285         171.342         26.0685         208.567 
        1.66898         170.157         25.8462          207.59 
        1.67512         169.109          25.626         206.696 
        1.68127         167.953         25.4082         205.784 
         1.6874         167.043         25.1935         204.968 
        1.69353         166.234         24.9813         204.217 
        1.69967         164.844         24.7712         202.958 
        1.70581         164.311         24.5635         201.889 
        1.71193          162.73         24.3591         201.029 
        1.71806         161.754         24.1565         199.818 
        1.72421          161.05         23.9559         199.081 
        1.73035          159.88         23.7578         198.231 
        1.73649         158.644          23.562         197.117 
        1.74262         157.972         23.3686         196.536 
        1.74876         157.044         23.1772          195.66 
        1.75489         156.031         22.9884         194.593 
        1.76101         154.831         22.8018         193.716 
        1.76715         153.915          22.617         192.849 
        1.77329           153.2          22.434         191.855 
        1.77943         151.871          22.253         190.857 
        1.78557         151.399         22.0743         190.017 
        1.79171         150.377         21.8975         189.319 
        1.79785         149.385         21.7226         188.526 
        1.80399         148.414         21.5497         187.505 
        1.81012         147.107          21.379         186.649 
        1.81625         146.864         21.2101         185.934 
        1.82239          145.47         21.0429         185.156 
        1.82853         144.951         20.8775         184.272 
        1.83466         143.785         20.7141         183.284 
        1.84078          143.14         20.5526         182.392 
        1.84692         142.563         20.3926         181.799 
        1.85306         141.172         20.2341         180.944 
         1.8592         140.637         20.0776         180.054 
        1.86533           139.3         19.9228         179.537 
        1.87147         138.872         19.7695          178.76 
        1.87761         137.656         19.6177         177.816 
