# k  (h/Mpc)    Pcb(k)  (Mpc/h)^3    Pcb_linear(k) (Mpc/h)^3    Pcb_NL(k) (Mpc/h)^3   ShotnoiseSubtracted = false
     0.00783031         825.845         830.798         830.222 
       0.013688         1099.93         1110.96          1107.4 
       0.019231         1194.97         1200.21         1194.62 
      0.0249154         1178.18         1178.96         1174.83 
      0.0312784         1082.41         1084.64         1082.37 
      0.0375637         967.049         970.227         968.525 
      0.0433917         874.118         873.311         872.228 
      0.0492413         794.249         795.765         794.856 
      0.0555754         735.152         734.028          732.92 
      0.0619321         682.447         688.015         686.807 
       0.067871         648.871         650.801         649.285 
      0.0738098         611.128         612.386         610.305 
      0.0800417         567.151         567.253         565.264 
      0.0862327         516.963         518.141           516.7 
      0.0921407         469.415         470.673         469.503 
      0.0982031         426.064         425.587           425.1 
       0.104506          384.49         386.122         386.202 
       0.110769         354.689         355.858         355.697 
       0.116806         335.553         334.443         334.205 
       0.122832         317.699         318.541         318.424 
       0.129052         305.073         304.987         304.807 
       0.135211         292.736          291.73         291.536 
       0.141259         276.913         277.176         277.157 
       0.147318         259.028         260.645         260.994 
       0.153489         242.171          242.53         242.572 
       0.159709         225.196         224.416         224.928 
       0.165845         207.055          208.15         209.432 
       0.171974          196.18         194.486         195.768 
       0.178125         185.433         183.663          185.46 
       0.184229         175.972         175.432         177.274 
        0.19034         170.689         168.898         170.681 
       0.196428         164.656         163.131         164.514 
       0.202534         157.055         157.247         158.713 
       0.208729         151.818         150.648         152.048 
       0.214876         145.527         143.384         145.312 
       0.220989         136.053         135.736         137.876 
       0.227147         130.571           128.1         130.288 
        0.23329         123.941          121.05         123.731 
       0.239377         118.308         114.969         117.932 
       0.245482         112.774         109.891         112.632 
       0.251667         108.017         105.676         108.668 
       0.257832         105.512         102.135         105.076 
       0.263955         101.329         98.9368         101.745 
       0.270079         98.1059         95.7536         98.4557 
        0.27624         94.1138         92.3824         94.9572 
       0.282372         90.8229         88.8083         91.5456 
        0.28843         88.4092         85.1437         87.9576 
       0.294538         84.4735         81.4727         84.4786 
       0.300721         80.4928         77.9533         81.2082 
        0.30691         78.1768         74.7635         78.0889 
       0.313033         75.1226         71.9887         75.2613 
       0.319153         73.5618          69.577         73.0429 
       0.325316         70.3292         67.4243              71 
        0.33145         68.2909         65.4488         68.8274 
       0.337538         66.5193         63.5429         66.8303 
       0.343633         64.7074         61.6189         64.9313 
       0.349808         62.6048         59.6226         63.0317 
       0.355968         60.5145         57.5996         61.3211 
       0.362074         59.0211         55.6121         59.2426 
       0.368217         57.1242         53.6845         57.1066 
       0.374374         55.8237         51.8777         55.5247 
       0.380519         53.4963         50.2219         53.7952 
       0.386598         51.9264         48.7309         52.3785 
       0.392688         50.4613         47.3622         51.0332 
        0.39888         49.4347         46.0591         49.6459 
       0.405048          48.255         44.8147         48.3183 
       0.411186          46.958         43.5976          47.357 
       0.417313         45.7056         42.3857         45.9773 
       0.423458         44.3291         41.1773         44.8433 
       0.429607         43.5061         39.9832          43.582 
       0.435692         42.5809         38.8344         42.5425 
       0.441815         41.0419         37.7298         41.6154 
       0.447964         39.8045         36.6829         40.4636 
       0.454126         39.1013         35.6975          39.427 
       0.460267         38.6076         34.7768         38.5955 
       0.466387         37.4888         33.9084         37.6185 
        0.47254         36.8555         33.0698         36.8267 
       0.478662          35.814         32.2589         35.9694 
       0.484765         35.0397          31.468         35.1696 
       0.490885         34.0739         30.6879         34.5628 
       0.497035         33.3552         29.9175         33.8217 
       0.503198         32.6268         29.1655          32.886 
       0.509342         31.7637         28.4417         32.2473 
       0.515458         31.3092         27.7501         31.6972 
       0.521598         30.5861         27.0854         30.8172 
       0.527764         30.1581          26.448         30.1259 
       0.533884           29.31         25.8434          29.541 
           0.54         28.7577         25.2623         28.9294 
       0.546137         27.9337         24.6969         28.4406 
       0.552299         27.4696         24.1433         27.7483 
       0.558452         26.9148         23.6038         27.2094 
       0.564573         26.5479         23.0804         26.8377 
       0.570708          25.917         22.5693          26.291 
       0.576825         25.4821         22.0736         25.7708 
       0.582926           24.98         21.5942          25.329 
       0.589034         24.5232           21.13         24.9066 
       0.595184         24.1851         20.6793         24.2893 
       0.601379         23.5396          20.242         23.9807 
       0.607522         23.1632         19.8228         23.4961 
       0.613639          22.682         19.4177         23.0633 
       0.619772         22.3566         19.0224         22.7218 
       0.625918         21.8822         18.6361         22.3015 
       0.632068         21.6555         18.2594         21.8739 
       0.638161         21.2041         17.8958         21.4902 
         0.6443         20.8339         17.5394         21.0947 
       0.650464         20.3284         17.1916         20.8263 
       0.656582         20.1888         16.8561         20.4617 
       0.662703         19.9072         16.5298         20.1006 
       0.668861         19.3756         16.2106         19.8324 
       0.675024         19.1031         15.9001         19.4402 
       0.681124         19.0133         15.6012         19.1348 
       0.687237         18.6116         15.3098         18.7702 
       0.693381         18.1563         15.0247         18.4729 
       0.699536         18.0637         14.7465         18.1968 
       0.705665         17.7259         14.4766         18.0126 
       0.711789         17.3755         14.2137         17.6882 
       0.717957         17.0266         13.9553         17.3825 
        0.72409         16.8763         13.7047         17.1523 
       0.730186         16.7388         13.4618          16.858 
       0.736317          16.385         13.2234         16.6036 
       0.742472         16.1753           12.99         16.4633 
       0.748622         15.9243         12.7626         16.1753 
        0.75476         15.5301         12.5413         15.9017 
       0.760888         15.4275         12.3258         15.7002 
       0.767043         15.1216         12.1146         15.5141 
       0.773185         14.9428         11.9089         15.3032 
       0.779291         14.8559         11.7093         15.0961 
       0.785407         14.5599         11.5141         14.8636 
       0.791564         14.3997         11.3221         14.6706 
       0.797719         14.1184         11.1347         14.4218 
       0.803834         14.0079         10.9527         14.2299 
       0.809972         13.7505         10.7742         14.1164 
       0.816124         13.5867         10.5993         13.8697 
       0.822261         13.4187         10.4288         13.6837 
       0.828378         13.2242         10.2626         13.5131 
       0.834502           13.08         10.0999         13.3469 
       0.840667         12.9489         9.93977         13.1623 
       0.846816         12.6893         9.78359         13.0235 
       0.852925         12.5687          9.6318         12.8887 
       0.859047         12.4125         9.48296         12.7088 
       0.865192         12.2377         9.33682         12.5412 
       0.871341         12.0577         9.19371         12.4084 
       0.877463         11.9277         9.05429         12.2278 
       0.883569         11.8127         8.91815         12.1073 
       0.889708         11.6322         8.78416         11.9538 
       0.895864         11.4871         8.65261          11.791 
       0.902008         11.3265         8.52407         11.6725 
       0.908149         11.1836         8.39825         11.5341 
       0.914301          11.101          8.2748         11.4169 
       0.920448         10.9368         8.15398         11.2367 
       0.926574         10.8717         8.03603         11.1311 
       0.932687         10.6927         7.92069         10.9452 
       0.938823          10.539         7.80724         10.8786 
       0.944975         10.4502         7.69577         10.7299 
       0.951105         10.2943          7.5869         10.5923 
       0.957225         10.2264         7.48036         10.5322 
       0.963368         10.1063         7.37553         10.3878 
       0.969511         9.98735         7.27272         10.2889 
       0.975621         9.86417         7.17245         10.1313 
       0.981748         9.70473         7.07384          10.034 
       0.987916         9.62627         6.97648         9.95172 
        0.99406         9.56546         6.88134         9.84394 
        1.00019         9.45887         6.78818         9.76037 
        1.00632         9.36259         6.69685         9.64205 
        1.01246         9.23992         6.60709         9.55713 
        1.01859         9.13189         6.51914          9.4312 
        1.02471         9.00345         6.43292          9.3117 
        1.03085         8.96886         6.34797         9.22529 
        1.03698         8.86542         6.26476          9.1462 
        1.04314         8.77372         6.18271         9.04484 
        1.04929         8.64124         6.10233          8.9611 
        1.05541         8.57657         6.02372         8.88166 
        1.06154          8.4989         5.94632         8.79108 
        1.06769         8.45749         5.87018         8.71658 
        1.07382         8.30597         5.79563         8.62791 
        1.07993         8.21365         5.72257         8.53941 
        1.08607         8.17136         5.65047          8.4421 
        1.09222         8.05603         5.57956         8.35543 
        1.09836         8.04387         5.50996         8.27453 
        1.10449         7.87441         5.44165         8.20069 
        1.11063         7.84648         5.37443         8.12031 
        1.11677         7.77228         5.30838         8.05248 
         1.1229         7.69658         5.24357         7.98645 
        1.12903         7.64079          5.1798         7.92307 
        1.13518         7.52021         5.11705         7.85121 
        1.14131         7.45624         5.05538         7.75907 
        1.14745         7.36647         4.99478         7.66748 
        1.15359         7.31364         4.93517         7.62143 
        1.15973         7.23938         4.87651         7.55346 
        1.16584         7.18019         4.81909         7.50345 
        1.17197         7.10582         4.76251         7.41962 
        1.17811         7.03684         4.70668         7.34924 
        1.18424         6.97484         4.65192         7.28492 
        1.19038         6.91716         4.59788         7.22373 
        1.19652         6.86751         4.54473         7.17686 
        1.20267         6.80461         4.49243         7.08348 
        1.20881         6.73388         4.44097         7.04399 
        1.21495         6.67593          4.3904         6.98825 
        1.22108         6.62486         4.34064         6.92929 
         1.2272         6.54376         4.29178         6.85023 
        1.23334         6.53228         4.24356         6.80395 
        1.23949         6.45081         4.19598         6.76429 
        1.24562         6.39509         4.14926         6.70329 
        1.25174         6.35184         4.10334         6.63358 
        1.25789         6.26209         4.05797         6.57965 
        1.26402         6.22402         4.01338         6.51342 
        1.27014         6.17863         3.96957         6.47619 
        1.27628          6.1085          3.9263         6.43826 
        1.28244         6.08239         3.88358         6.37903 
        1.28858         6.03974         3.84157         6.32069 
        1.29471         5.95365         3.80028         6.26896 
        1.30084         5.90722         3.75964         6.23237 
        1.30697         5.87418         3.71954          6.1798 
        1.31312         5.82479         3.67997          6.1337 
        1.31925         5.77462          3.6411         6.09142 
        1.32537         5.73691         3.60284         6.04522 
        1.33151         5.67968           3.565         5.99773 
        1.33765         5.63661         3.52773         5.94194 
        1.34378         5.60762         3.49107          5.9107 
        1.34992         5.55726         3.45492         5.86182 
        1.35606          5.5138          3.4192         5.79834 
         1.3622         5.47042         3.38405         5.76425 
        1.36833         5.41568         3.34949         5.74222 
        1.37445         5.36716         3.31544         5.69223 
        1.38059         5.33402         3.28175         5.64738 
        1.38675         5.28955         3.24846         5.59832 
        1.39288         5.26059         3.21577         5.56807 
        1.39901         5.20164         3.18354         5.53133 
        1.40515         5.16802         3.15169         5.48446 
         1.4113         5.13358         3.12029         5.44669 
        1.41742         5.08926         3.08944         5.41655 
        1.42355         5.04858         3.05895         5.35825 
         1.4297         5.02331         3.02879         5.33933 
        1.43585         4.98326         2.99905         5.30978 
        1.44198          4.9436         2.96983         5.25007 
        1.44809           4.917         2.94105         5.23242 
        1.45423         4.87792         2.91256         5.18333 
        1.46036         4.84347         2.88449           5.149 
        1.46649         4.79295         2.85679          5.1241 
        1.47263         4.77772         2.82944         5.08915 
        1.47877         4.74049         2.80245         5.04748 
        1.48491         4.70407         2.77578         5.01597 
        1.49104         4.66908         2.74952         4.97866 
        1.49718         4.64104         2.72358         4.94942 
        1.50333         4.60388         2.69794         4.91975 
        1.50947         4.56259         2.67268         4.88564 
         1.5156         4.54371         2.64778          4.8541 
        1.52172         4.51323          2.6232          4.8248 
        1.52787         4.48086         2.59889         4.78592 
          1.534         4.44898         2.57492         4.75385 
        1.54013         4.41468         2.55128         4.72506 
        1.54627         4.38665         2.52789          4.6961 
        1.55241         4.35033          2.5048         4.66527 
        1.55855         4.33055         2.48203          4.6285 
        1.56467         4.29944          2.4596         4.60974 
         1.5708         4.26826          2.4374         4.57894 
        1.57695         4.22839         2.41543         4.54638 
        1.58308         4.20093         2.39379         4.52905 
        1.58922         4.19009          2.3724         4.49924 
        1.59535          4.1531         2.35129         4.46776 
         1.6015         4.11848          2.3304         4.43716 
        1.60764          4.1001         2.30978         4.41517 
        1.61376         4.06977         2.28947         4.39571 
        1.61989         4.03717         2.26938         4.36381 
        1.62604         4.01288          2.2495         4.33658 
        1.63218         3.99504         2.22987         4.31371 
        1.63831         3.97591         2.21052         4.28686 
        1.64444         3.94322         2.19139         4.25703 
        1.65059         3.92397         2.17244         4.23331 
        1.65673         3.89041         2.15375         4.21068 
        1.66285         3.86627         2.13532          4.1854 
        1.66898         3.84326         2.11711         4.15847 
        1.67512         3.81307         2.09907         4.13578 
        1.68127          3.7863         2.08123         4.11766 
         1.6874          3.7806         2.06364         4.09551 
        1.69353         3.73584         2.04627         4.06339 
        1.69967         3.72216         2.02905         4.03817 
        1.70581         3.70418         2.01204         4.02312 
        1.71193         3.67006          1.9953         4.00688 
        1.71806         3.65084          1.9787         3.97663 
        1.72421          3.6315         1.96227         3.95133 
        1.73035         3.60487         1.94604         3.93079 
        1.73649         3.59076         1.93001         3.90867 
        1.74262         3.56705         1.91416         3.88457 
        1.74876         3.54397         1.89849          3.8678 
        1.75489         3.52632         1.88302         3.84829 
        1.76101         3.49861         1.86773         3.81999 
        1.76715         3.48706          1.8526          3.7968 
        1.77329         3.45916         1.83761         3.77999 
        1.77943         3.44017         1.82278         3.76225 
        1.78557         3.41962         1.80814         3.74013 
        1.79171         3.40687         1.79366         3.71931 
        1.79785         3.38154         1.77934         3.69971 
        1.80399          3.3613         1.76518         3.67943 
        1.81012         3.33895         1.75119         3.66213 
        1.81625         3.31905         1.73736         3.64319 
        1.82239         3.30265         1.72366         3.62483 
        1.82853         3.28194         1.71012         3.61429 
        1.83466         3.25606         1.69673         3.59815 
        1.84078         3.24152          1.6835          3.5728 
        1.84692         3.22411          1.6704         3.54747 
        1.85306         3.20822         1.65742         3.52866 
         1.8592         3.19068         1.64459         3.51394 
        1.86533         3.17031         1.63191         3.49794 
        1.87147         3.15501         1.61936         3.48264 
