# k  (h/Mpc)    P(k)  (Mpc/h)^3    P_linear(k)  (Mpc/h)^3     P_NL(k)  ShotnoiseSubtracted = false
     0.00783031         11920.3         11963.4         11949.1 
       0.013688         15584.4         15987.7         15892.1 
       0.019231         16992.6         17267.4           17103 
      0.0249154         16910.2           16959         16756.2 
      0.0312784         15347.2         15600.7         15355.5 
      0.0375637           13600         13954.1         13696.5 
      0.0433917         12368.7         12559.8         12273.5 
      0.0492413         11150.6         11444.2         11153.4 
      0.0555754         10335.3         10556.1         10267.7 
      0.0619321         9375.45         9894.18         9597.11 
       0.067871         8981.45         9358.89         9066.17 
      0.0738098         8505.33         8806.37         8437.84 
      0.0800417          7877.3         8157.27         7799.35 
      0.0862327         7164.68         7450.97         7174.51 
      0.0921407         6535.08         6768.33         6508.98 
      0.0982031         5998.66         6119.95          5955.3 
       0.104506         5388.33         5552.43         5470.84 
       0.110769         4995.64         5117.21         5008.59 
       0.116806         4788.27         4809.25         4703.32 
       0.122832         4511.04         4580.57         4498.33 
       0.129052         4301.42         4385.65         4309.99 
       0.135211         4191.04         4195.01          4115.6 
       0.141259         3918.92         3985.72         3945.82 
       0.147318          3651.2         3748.02          3740.6 
       0.153489         3459.97         3487.52          3447.1 
       0.159709         3321.85         3227.03         3248.68 
       0.165845            3035         2993.14         3107.16 
       0.171974         2952.92         2796.65         2931.38 
       0.178125         2859.76         2641.01         2843.02 
       0.184229         2644.29         2522.65         2712.52 
        0.19034         2613.31          2428.7         2623.66 
       0.196428         2548.55         2345.77         2520.12 
       0.202534         2409.72         2261.15         2448.88 
       0.208729         2364.76         2166.26         2333.62 
       0.214876         2272.99          2061.8         2275.47 
       0.220989         2162.48         1951.83         2200.88 
       0.227147         2108.05         1842.02         2119.75 
        0.23329          2028.2         1740.65         2057.19 
       0.239377         2014.51         1653.21         1982.25 
       0.245482          1925.4         1580.19         1900.96 
       0.251667         1856.37         1519.58         1863.34 
       0.257832         1832.32         1468.65         1810.13 
       0.263955         1755.74         1422.67         1763.36 
       0.270079         1718.41         1376.89         1716.88 
        0.27624         1647.57         1328.42         1667.17 
       0.282372         1632.07         1277.02         1633.58 
        0.28843         1605.47         1224.33         1593.98 
       0.294538         1535.73         1171.54         1551.83 
       0.300721         1508.51         1120.93         1508.26 
        0.30691          1474.7         1075.06         1487.66 
       0.313033         1422.19         1035.16         1445.27 
       0.319153          1408.5         1000.49         1408.13 
       0.325316         1392.11         969.529         1390.66 
        0.33145         1366.17         941.122         1344.47 
       0.337538         1324.68         913.718         1324.99 
       0.343633         1295.24         886.051         1310.64 
       0.349808         1273.98         857.341         1288.23 
       0.355968            1249         828.255         1267.66 
       0.362074         1215.87         799.674          1242.1 
       0.368217         1212.53         771.957         1211.78 
       0.374374         1194.42         745.978         1192.31 
       0.380519         1155.94         722.164         1170.57 
       0.386598         1151.81         700.728         1155.16 
       0.392688         1124.31         681.045         1131.13 
        0.39888         1102.16         662.307         1117.95 
       0.405048          1083.5         644.414         1103.51 
       0.411186          1078.2         626.912         1081.19 
       0.417313         1077.37         609.485         1066.83 
       0.423458         1043.98          592.11         1049.64 
       0.429607         1016.75         574.938         1030.49 
       0.435692         1009.84         558.418         1012.98 
       0.441815         991.777         542.536         1010.36 
       0.447964         981.485         527.482          995.35 
       0.454126           968.3          513.31         970.205 
       0.460267          957.47         500.073         969.478 
       0.466387          944.06         487.585         951.127 
        0.47254         926.343         475.527         940.718 
       0.478662          916.37         463.866          928.85 
       0.484765          908.53         452.494         917.123 
       0.490885         897.818         441.277         901.837 
       0.497035         883.203         430.198         894.401 
       0.503198         881.731         419.385         884.165 
       0.509342         866.295         408.977         870.109 
       0.515458         849.225         399.033         865.974 
       0.521598          847.27         389.475         857.322 
       0.527764         828.241         380.309         848.057 
       0.533884         821.455         371.615         838.723 
           0.54         814.606         363.258         829.905 
       0.546137         805.076         355.129         820.292 
       0.552299         799.689         347.168          809.26 
       0.558452         791.884         339.411         803.357 
       0.564573         784.717         331.885         796.079 
       0.570708         778.152         324.534         788.401 
       0.576825          762.58         317.407         777.433 
       0.582926         760.582         310.513         771.221 
       0.589034         751.965         303.838         759.873 
       0.595184           743.6         297.358         754.536 
       0.601379         732.122          291.07         748.693 
       0.607522         722.976         285.041          738.93 
       0.613639         721.853         279.217         735.792 
       0.619772         715.827         273.533         734.067 
       0.625918         705.911         267.978         724.844 
       0.632068         701.189          262.56         719.619 
       0.638161         691.894         257.333         707.757 
         0.6443         686.334         252.208         704.878 
       0.650464         680.981         247.207         694.964 
       0.656582         675.669         242.382         690.153 
       0.662703         666.859          237.69         686.357 
       0.668861         660.901           233.1         682.678 
       0.675024         656.192         228.635         678.408 
       0.681124         646.478         224.337         667.176 
       0.687237         645.909         220.147         662.331 
       0.693381         635.224         216.047         656.654 
       0.699536         634.665         212.047         652.274 
       0.705665         627.428         208.166         646.292 
       0.711789         625.637         204.385         640.808 
       0.717957         617.061          200.67         638.975 
        0.72409         611.849         197.067         633.522 
       0.730186         610.336         193.573         627.942 
       0.736317         602.391         190.146         621.946 
       0.742472          595.16          186.79          617.22 
       0.748622         592.456          183.52         612.372 
        0.75476         586.599         180.337         612.672 
       0.760888          583.33         177.238         605.306 
       0.767043         580.668         174.201         598.941 
       0.773185         576.789         171.244         595.416 
       0.779291         569.529         168.373         590.182 
       0.785407         565.636         165.566         586.874 
       0.791564         561.611         162.806         584.899 
       0.797719          553.73          160.11         578.854 
       0.803834         554.978         157.494         575.908 
       0.809972         547.383         154.927         572.937 
       0.816124         542.826         152.412         564.996 
       0.822261         539.603          149.96         562.205 
       0.828378         536.894          147.57         558.673 
       0.834502         528.866         145.231         556.898 
       0.840667         528.184         142.929         552.659 
       0.846816         522.448         140.683         548.743 
       0.852925         521.083           138.5          545.22 
       0.859047         516.334          136.36         540.391 
       0.865192         513.354         134.258         537.023 
       0.871341         506.784         132.201         534.431 
       0.877463         505.048         130.196         531.027 
       0.883569         499.812         128.238         527.265 
       0.889708         495.095         126.311         522.862 
       0.895864         490.827          124.42         520.193 
       0.902008         489.672         122.572          517.15 
       0.908149         485.486         120.762         512.466 
       0.914301         483.441         118.987         509.054 
       0.920448         477.616          117.25         506.262 
       0.926574         475.675         115.554         502.647 
       0.932687         473.604         113.895         499.631 
       0.938823         467.599         112.264         498.308 
       0.944975         465.269         110.661         494.503 
       0.951105         461.967         109.096         489.997 
       0.957225         455.296         107.564         488.824 
       0.963368         456.446         106.056          485.43 
       0.969511         448.869         104.578         481.919 
       0.975621         448.697         103.136         479.099 
       0.981748         445.503         101.718         475.678 
       0.987916          442.64         100.318         474.655 
        0.99406          438.55         98.9499         471.087 
        1.00019         434.229         97.6104         466.038 
        1.00632         433.354         96.2971         463.769 
        1.01246         429.899         95.0064         461.027 
        1.01859         425.339         93.7417         457.634 
        1.02471         423.329         92.5019         456.314 
        1.03085         421.151         91.2804         454.789 
        1.03698         418.544         90.0839         452.199 
        1.04314         415.568          88.904         449.129 
        1.04929         413.355         87.7482         445.434 
        1.05541          407.54         86.6179         442.489 
        1.06154         406.675         85.5049         439.884 
        1.06769         402.645           84.41         437.002 
        1.07382         400.449         83.3381         434.727 
        1.07993         398.646         82.2874         432.536 
        1.08607          395.53         81.2507         429.366 
        1.09222         392.316          80.231         426.664 
        1.09836         390.051         79.2302         425.647 
        1.10449         387.057         78.2479         422.847 
        1.11063          384.36         77.2813         419.381 
        1.11677         380.392         76.3316         417.896 
         1.1229         379.434         75.3997         415.454 
        1.12903          376.36         74.4827         413.201 
        1.13518         373.936         73.5804         410.583 
        1.14131         372.531         72.6936         408.204 
        1.14745         367.604         71.8222         405.991 
        1.15359         365.172          70.965         404.085 
        1.15973         363.726         70.1216         401.654 
        1.16584         361.898         69.2959         399.288 
        1.17197         359.015         68.4824         397.153 
        1.17811         355.256         67.6796         395.189 
        1.18424         353.631         66.8921         393.531 
        1.19038         351.733          66.115         391.154 
        1.19652         347.816         65.3507         388.974 
        1.20267         347.131         64.5986          386.14 
        1.20881          345.18         63.8587         384.269 
        1.21495         341.404         63.1316         381.818 
        1.22108         340.148          62.416         379.704 
         1.2272         335.491         61.7134         377.139 
        1.23334         334.693         61.0201         375.033 
        1.23949         332.534         60.3359         373.745 
        1.24562         331.721         59.6641         371.835 
        1.25174         328.106         59.0037         369.878 
        1.25789         325.681         58.3514         367.925 
        1.26402         324.312         57.7102         366.223 
        1.27014           322.6         57.0803         363.406 
        1.27628         319.307          56.458         362.643 
        1.28244          317.43         55.8438          361.06 
        1.28858         315.802         55.2397         358.468 
        1.29471         314.131         54.6459         355.867 
        1.30084         312.275         54.0615         354.196 
        1.30697         309.003         53.4849         352.845 
        1.31312         306.974         52.9159         351.009 
        1.31925         305.488          52.357          348.57 
        1.32537         303.732         51.8069         346.486 
        1.33151         300.987         51.2628         345.289 
        1.33765         298.784         50.7268           343.5 
        1.34378         296.656         50.1997         341.423 
        1.34992           294.3         49.6798         339.072 
        1.35606         292.817         49.1662         337.384 
         1.3622         291.319         48.6608         336.071 
        1.36833           289.8         48.1639         334.759 
        1.37445         288.169         47.6741         332.089 
        1.38059         285.095         47.1898         331.213 
        1.38675         283.628         46.7111         329.938 
        1.39288          282.56         46.2409         326.759 
        1.39901         279.725         45.7776         325.321 
        1.40515         278.351         45.3195         323.615 
         1.4113         276.136          44.868         321.679 
        1.41742         273.565         44.4244         320.447 
        1.42355         273.719         43.9861         318.678 
         1.4297         271.038         43.5524         317.007 
        1.43585         268.108         43.1247         316.072 
        1.44198         267.205         42.7045          313.88 
        1.44809         265.833         42.2907         312.806 
        1.45423          263.78          41.881         310.163 
        1.46036         262.315         41.4774         308.801 
        1.46649         260.944         41.0791         307.745 
        1.47263         258.226         40.6857         305.881 
        1.47877         256.996         40.2977         304.026 
        1.48491         254.922         39.9142         302.436 
        1.49104         253.161         39.5366          300.95 
        1.49718         251.757         39.1636         299.953 
        1.50333         249.482         38.7948         298.744 
        1.50947          248.88         38.4316          297.17 
         1.5156         246.621         38.0736         295.263 
        1.52172         245.055         37.7202         293.279 
        1.52787         243.348         37.3706         292.148 
          1.534         242.852         37.0259         290.995 
        1.54013         240.421          36.686         289.395 
        1.54627          239.26         36.3497         288.019 
        1.55241         237.437         36.0176         286.877 
        1.55855         236.382         35.6902         285.479 
        1.56467         234.525         35.3677         283.541 
         1.5708         233.162         35.0484         281.999 
        1.57695         231.692         34.7326         280.866 
        1.58308         230.394         34.4214          279.36 
        1.58922         228.525         34.1139         277.931 
        1.59535         226.625         33.8102         276.943 
         1.6015         225.607         33.5099         275.531 
        1.60764         224.131         33.2133         273.788 
        1.61376         222.077         32.9212         272.551 
        1.61989         220.738         32.6325         271.399 
        1.62604         219.169         32.3465         269.952 
        1.63218         217.963         32.0642          268.79 
        1.63831         217.398          31.786         267.712 
        1.64444          215.22         31.5109         266.022 
        1.65059         214.484         31.2385         264.875 
        1.65673         212.442         30.9697         263.744 
        1.66285         211.476         30.7047         262.247 
        1.66898         210.188         30.4428          260.68 
        1.67512         208.357         30.1835         259.743 
        1.68127         207.448          29.927         258.485 
         1.6874         205.956          29.674         257.174 
        1.69353         204.808         29.4242         256.395 
        1.69967         203.402         29.1766         254.849 
        1.70581         202.275         28.9321         253.523 
        1.71193         200.781         28.6912         252.519 
        1.71806         199.186         28.4527         250.986 
        1.72421         198.276         28.2164         249.933 
        1.73035         196.573          27.983         248.728 
        1.73649         195.171         27.7524          247.29 
        1.74262         194.376         27.5246         246.621 
        1.74876         193.183         27.2992         245.429 
        1.75489         192.043         27.0768         244.043 
        1.76101         190.884          26.857         243.088 
        1.76715         189.392         26.6393         242.085 
        1.77329         187.728         26.4238         240.906 
        1.77943          186.79         26.2106         239.654 
        1.78557         185.949         26.0001         238.456 
        1.79171         185.026         25.7919         237.422 
        1.79785         183.664         25.5859         236.356 
        1.80399         182.399         25.3823         235.143 
        1.81012         181.214         25.1811           234.3 
        1.81625         179.972         24.9823         233.258 
        1.82239         178.727         24.7853         231.894 
        1.82853         178.041         24.5905         230.852 
        1.83466         176.501          24.398          229.72 
        1.84078          175.55         24.2078         228.589 
        1.84692         174.579         24.0194         227.908 
        1.85306         173.137         23.8327         226.762 
         1.8592          172.41         23.6483         225.511 
        1.86533          170.73          23.466         224.919 
        1.87147         170.018         23.2854         224.067 
        1.87761         168.992         23.1067           222.9 
