# k  (h/Mpc)    Pcb(k)  (Mpc/h)^3    Pcb_linear(k) (Mpc/h)^3    Pcb_NL(k) (Mpc/h)^3   ShotnoiseSubtracted = false
     0.00783031         12693.7         12738.7         12722.7 
       0.013688           16583         17023.6         16918.7 
       0.019231         18082.9           18386         18205.5 
      0.0249154         18000.5         18057.6         17832.5 
      0.0312784         16327.8         16611.2         16336.8 
      0.0375637           14464           14858         14569.4 
      0.0433917         13156.1         13373.3           13052 
      0.0492413         11857.3         12185.4           11859 
      0.0555754         10988.4         11239.8         10916.5 
      0.0619321         9960.33           10535         10202.2 
       0.067871         9542.26         9965.06         9637.49 
      0.0738098          9039.3         9376.75         8964.53 
      0.0800417         8369.51         8685.61         8285.65 
      0.0862327         7612.87         7933.56         7624.57 
      0.0921407         6946.09          7206.7         6917.32 
      0.0982031         6379.06         6516.33         6332.17 
       0.104506         5730.45         5912.05         5820.58 
       0.110769         5314.11         5448.64         5328.18 
       0.116806         5094.38         5120.74         5003.17 
       0.122832         4800.95         4877.25          4785.8 
       0.129052         4574.75          4669.7            4586 
       0.135211          4459.7         4466.71         4378.33 
       0.141259         4168.79         4243.86         4200.13 
       0.147318         3886.11         3990.76         3982.05 
       0.153489         3684.15          3713.4         3669.28 
       0.159709         3541.43         3436.04         3460.47 
       0.165845         3237.14         3186.99         3313.03 
       0.171974         3149.48         2977.78         3127.62 
       0.178125         3053.48         2812.07         3035.72 
       0.184229         2822.32         2686.03         2895.78 
        0.19034         2790.91            2586         2801.71 
       0.196428         2722.92         2497.69         2692.25 
       0.202534         2576.68          2407.6          2616.8 
       0.208729         2527.55         2306.57         2493.66 
       0.214876          2429.6         2195.34         2431.82 
       0.220989         2315.72         2078.24         2354.21 
       0.227147         2256.85         1961.33         2269.98 
        0.23329         2171.48         1853.38         2203.31 
       0.239377         2159.05         1760.28         2123.43 
       0.245482         2065.16         1682.53         2037.56 
       0.251667         1991.32         1617.99         1997.65 
       0.257832         1964.46         1563.77         1941.39 
       0.263955         1884.37         1514.81         1892.25 
       0.270079          1846.1         1466.07         1842.64 
        0.27624         1769.78         1414.45          1789.8 
       0.282372         1754.88         1359.73         1756.01 
        0.28843         1723.99         1303.62         1715.11 
       0.294538         1651.31         1247.42         1669.36 
       0.300721         1624.05         1193.53         1622.47 
        0.30691         1585.88         1144.69         1601.51 
       0.313033         1531.06         1102.21         1556.62 
       0.319153         1517.32         1065.28         1516.24 
       0.325316         1499.75         1032.32          1498.2 
        0.33145         1471.66         1002.08         1448.72 
       0.337538          1428.1         972.895         1428.71 
       0.343633         1397.26         943.437         1413.21 
       0.349808          1375.6         912.871          1389.6 
       0.355968         1347.64         881.898         1367.96 
       0.362074         1313.58         851.467         1340.93 
       0.368217         1309.98         821.954         1309.11 
       0.374374         1289.94         794.291         1288.21 
       0.380519         1249.58         768.938          1265.6 
       0.386598         1246.36          746.11         1248.59 
       0.392688         1215.51         725.154         1223.76 
        0.39888          1193.4         705.202         1209.48 
       0.405048         1172.66          686.15         1193.31 
       0.411186         1166.22         667.515         1170.31 
       0.417313         1166.17         648.959         1155.94 
       0.423458         1130.43         630.458         1136.56 
       0.429607         1101.56         612.176         1116.68 
       0.435692         1094.44         594.585         1097.38 
       0.441815         1074.59         577.674         1095.41 
       0.447964         1064.72         561.645         1079.84 
       0.454126          1050.3         546.557         1052.18 
       0.460267          1039.1          532.46         1051.82 
       0.466387         1024.29         519.164         1031.98 
        0.47254         1005.06         506.325         1020.52 
       0.478662         995.122         493.909         1008.45 
       0.484765         986.533           481.8         996.677 
       0.490885         974.843         469.856         979.518 
       0.497035         959.138          458.06         971.713 
       0.503198         957.799         446.547         961.084 
       0.509342         941.011         435.465         945.221 
       0.515458          922.43         424.876         940.793 
       0.521598         922.028           414.7         932.255 
       0.527764         900.553          404.94         922.555 
       0.533884         892.592         395.683         912.585 
           0.54          885.69         386.785         903.416 
       0.546137         876.198         378.129         893.167 
       0.552299         869.315         369.653         881.131 
       0.558452          861.59         361.394         874.801 
       0.564573         854.722          353.38         866.615 
       0.570708         846.739         345.553          857.86 
       0.576825         829.993         337.965         846.555 
       0.582926         828.054         330.623         840.269 
       0.589034         819.245         323.517         828.038 
       0.595184         809.575         316.617          822.29 
       0.601379         797.041         309.921         815.955 
       0.607522         787.685         303.502         805.028 
       0.613639         786.605         297.301         801.899 
       0.619772         779.032         291.248         799.903 
       0.625918         769.688         285.334         790.213 
       0.632068         764.077         279.565         784.968 
       0.638161         753.601         273.999         771.577 
         0.6443         747.772         268.543         768.406 
       0.650464         742.394         263.218         758.335 
       0.656582          736.73          258.08         753.133 
       0.662703         726.486         253.084         748.449 
       0.668861         720.182         248.198         744.897 
       0.675024         715.359         243.443         740.804 
       0.681124         704.307         238.867         728.341 
       0.687237         704.339         234.405         723.272 
       0.693381         692.068          230.04         716.729 
       0.699536         692.595         225.781         711.931 
       0.705665         684.091         221.648         705.458 
       0.711789         681.768         217.622         699.461 
       0.717957         673.273         213.667         697.799 
        0.72409         667.525          209.83         691.945 
       0.730186         664.963          206.11         685.483 
       0.736317         657.044         202.461         679.232 
       0.742472         648.845         198.887         674.393 
       0.748622         646.356         195.406         668.914 
        0.75476           639.4         192.017         669.205 
       0.760888          635.98         188.717         661.536 
       0.767043         633.393         185.484         653.941 
       0.773185         629.005         182.335          650.24 
       0.779291         621.365         179.278         644.534 
       0.785407         616.838         176.289         640.848 
       0.791564         612.589          173.35         639.258 
       0.797719         603.834          170.48         632.587 
       0.803834         604.677         167.694         629.138 
       0.809972         596.799         164.961          626.15 
       0.816124         592.208         162.283         617.708 
       0.822261         588.732         159.673         614.397 
       0.828378         585.949         157.128         610.613 
       0.834502         577.018         154.637         608.785 
       0.840667         575.913         152.186         604.265 
       0.846816         570.701         149.794         599.895 
       0.852925         568.378          147.47         596.003 
       0.859047         563.192         145.191         590.468 
       0.865192         559.791         142.954         587.015 
       0.871341         553.118         140.763         584.185 
       0.877463         551.823         138.628         580.578 
       0.883569         545.774         136.544          576.22 
       0.889708         540.325         134.492         571.429 
       0.895864         535.403         132.478         568.453 
       0.902008          534.49          130.51         565.203 
       0.908149         529.674         128.584         560.117 
       0.914301         527.559         126.694         556.273 
       0.920448         520.911         124.844         553.712 
       0.926574         518.847         123.038         549.646 
       0.932687         516.903         121.272         546.383 
       0.938823          510.37         119.535         544.614 
       0.944975         507.398         117.828          540.64 
       0.951105          503.97         116.161         535.629 
       0.957225         496.875          114.53         534.519 
       0.963368         498.012         112.925         530.765 
       0.969511         490.281         111.351         526.998 
       0.975621          489.33         109.816         523.713 
       0.981748         485.953         108.306         519.948 
       0.987916         483.027         106.815         518.991 
        0.99406         478.419         105.359         514.947 
        1.00019         473.887         103.932         509.537 
        1.00632         472.157         102.534         507.007 
        1.01246         468.672          101.16         504.144 
        1.01859         464.146          99.813         500.303 
        1.02471         462.276         98.4929         498.757 
        1.03085         458.975         97.1923         497.332 
        1.03698         456.835         95.9183         494.504 
        1.04314         452.499          94.662         491.169 
        1.04929         450.895         93.4314         487.001 
        1.05541          444.48         92.2278         483.653 
        1.06154         443.507         91.0428         480.754 
        1.06769          439.27         89.8769         477.574 
        1.07382         436.039         88.7356         475.175 
        1.07993         435.055         87.6169         472.706 
        1.08607          431.45          86.513         469.322 
        1.09222         427.781         85.4273          466.26 
        1.09836         424.909         84.3617          465.22 
        1.10449         421.355         83.3157         462.362 
        1.11063         419.203         82.2866         458.258 
        1.11677         414.809         81.2753         456.848 
         1.1229         413.406         80.2831         453.955 
        1.12903           409.8         79.3067         451.377 
        1.13518         407.738         78.3459         448.597 
        1.14131         405.772         77.4017         446.019 
        1.14745         400.816         76.4738         443.475 
        1.15359         398.181         75.5612         441.608 
        1.15973         396.306         74.6631          438.86 
        1.16584         394.422         73.7839         436.504 
        1.17197         391.384         72.9177         433.995 
        1.17811         386.965         72.0629         431.637 
        1.18424         385.484         71.2245         429.858 
        1.19038         383.351         70.3971         427.247 
        1.19652         379.098         69.5833         424.729 
        1.20267         378.136         68.7825          421.94 
        1.20881         376.241         67.9946         419.588 
        1.21495         371.433         67.2204         417.105 
        1.22108         370.747         66.4585         414.821 
         1.2272         365.543         65.7104         412.123 
        1.23334         364.733         64.9721         409.635 
        1.23949          361.87         64.2436         408.005 
        1.24562         361.519         63.5284         406.024 
        1.25174          357.48         62.8252         403.961 
        1.25789          354.73         62.1306         401.789 
        1.26402         352.853         61.4479         399.972 
        1.27014         351.071         60.7772         396.726 
        1.27628         347.581         60.1145         395.888 
        1.28244         345.342         59.4606         394.203 
        1.28858         343.818         58.8174         391.385 
        1.29471         342.012         58.1851         388.739 
        1.30084         339.888         57.5629         386.683 
        1.30697         336.306         56.9489         385.098 
        1.31312         334.271          56.343         383.199 
        1.31925         332.335          55.748         380.613 
        1.32537         330.499         55.1622         378.315 
        1.33151         327.457         54.5829         377.057 
        1.33765         325.017         54.0122         375.147 
        1.34378         322.687          53.451         372.599 
        1.34992         320.245         52.8974         370.134 
        1.35606         318.283         52.3505         368.368 
         1.3622         316.828         51.8124         366.978 
        1.36833         315.509         51.2833         365.446 
        1.37445         313.582         50.7618         362.691 
        1.38059         309.993         50.2461          361.62 
        1.38675         308.563         49.7364         360.193 
        1.39288         307.237         49.2358         356.963 
        1.39901         304.316         48.7424         355.129 
        1.40515         302.805         48.2547         353.137 
         1.4113         300.437          47.774         351.138 
        1.41742         297.608         47.3016         349.853 
        1.42355          297.38         46.8349         347.871 
         1.4297         294.854         46.3731         345.954 
        1.43585         291.314         45.9177         344.946 
        1.44198         290.649         45.4703         342.688 
        1.44809         289.031         45.0297         341.386 
        1.45423         286.633         44.5934         338.479 
        1.46036         285.224         44.1638          337.08 
        1.46649         283.524         43.7396         335.813 
        1.47263         280.471         43.3208         333.573 
        1.47877         279.395         42.9077          331.71 
        1.48491         277.008         42.4993         329.918 
        1.49104         274.968         42.0972         328.203 
        1.49718         273.508         41.7001         327.425 
        1.50333          271.22         41.3074         325.965 
        1.50947         270.537         40.9207         324.086 
         1.5156         267.707         40.5395         322.095 
        1.52172         266.168         40.1632         320.013 
        1.52787         264.273          39.791         318.671 
          1.534         263.698          39.424         317.392 
        1.54013         261.062          39.062         315.694 
        1.54627         259.599         38.7039         314.192 
        1.55241         257.867         38.3503         312.986 
        1.55855         256.372         38.0017         311.543 
        1.56467         254.524         37.6584         309.272 
         1.5708         253.105         37.3184         307.508 
        1.57695         251.541         36.9821         306.248 
        1.58308         250.323         36.6508         304.544 
        1.58922         248.157         36.3233         303.087 
        1.59535         245.991              36         302.038 
         1.6015         244.895         35.6802          300.62 
        1.60764         243.275         35.3644         298.743 
        1.61376         241.158         35.0534         297.219 
        1.61989         239.796          34.746         295.957 
        1.62604         237.956         34.4415         294.299 
        1.63218         236.565         34.1409         292.996 
        1.63831         235.752         33.8446         291.869 
        1.64444         233.519         33.5518         289.976 
        1.65059         232.787         33.2617         288.712 
        1.65673         230.596         32.9755         287.539 
        1.66285         229.447         32.6934         285.901 
        1.66898         228.037         32.4145         284.098 
        1.67512         226.019         32.1384         283.161 
        1.68127         224.964         31.8652         281.815 
         1.6874         223.334         31.5959         280.298 
        1.69353         222.295         31.3299         279.395 
        1.69967         220.764         31.0663         277.737 
        1.70581         219.159         30.8059         276.321 
        1.71193         217.865         30.5495         275.247 
        1.71806          215.86         30.2954         273.604 
        1.72421          214.94         30.0438         272.342 
        1.73035         213.071         29.7954         270.964 
        1.73649         211.518         29.5498          269.45 
        1.74262          210.71         29.3072         268.697 
        1.74876         209.282         29.0672         267.352 
        1.75489          208.13         28.8304          265.86 
        1.76101          207.04         28.5964         264.879 
        1.76715         205.258         28.3646         263.768 
        1.77329         203.328         28.1352         262.521 
        1.77943         202.358         27.9082         261.197 
        1.78557         201.392          27.684         259.828 
        1.79171         200.551         27.4623          258.66 
        1.79785         198.942          27.243         257.487 
        1.80399         197.616         27.0262         256.147 
        1.81012         196.311          26.812         255.269 
        1.81625         194.876         26.6003         254.122 
        1.82239         193.636         26.3905         252.581 
        1.82853         192.887         26.1831         251.487 
        1.83466         191.217         25.9782         250.286 
        1.84078         190.068         25.7757         249.038 
        1.84692         189.099          25.575         248.297 
        1.85306         187.463         25.3763          247.05 
         1.8592         186.654         25.1799         245.654 
        1.86533         184.852         24.9858         244.942 
        1.87147         184.142         24.7935          243.97 
