# k  (h/Mpc)    Pcb(k)  (Mpc/h)^3    Pcb_linear(k) (Mpc/h)^3    Pcb_NL(k) (Mpc/h)^3   ShotnoiseSubtracted = false
     0.00783031         3452.47         3469.48         3467.61 
       0.013688         4567.58         4638.06         4620.47 
       0.019231         4970.57         5010.03         4980.99 
      0.0249154         4919.97         4920.96         4894.09 
      0.0312784         4502.18         4527.09         4503.14 
      0.0375637         4010.94         4049.43          4025.9 
      0.0433917         3636.38         3644.87         3621.23 
      0.0492413         3294.22         3321.18         3297.84 
      0.0555754          3055.1         3063.49         3039.59 
      0.0619321         2810.42         2871.43         2846.48 
       0.067871         2683.52          2716.1         2690.43 
      0.0738098         2531.53         2555.77         2522.87 
      0.0800417         2350.67          2367.4         2335.35 
      0.0862327          2139.3         2162.43         2138.18 
      0.0921407         1944.06         1964.32         1941.77 
      0.0982031         1771.53         1776.15          1763.3 
       0.104506         1593.21         1611.45         1606.73 
       0.110769         1472.19         1485.14         1476.69 
       0.116806         1402.41         1395.76         1387.58 
       0.122832         1321.51          1329.4         1323.75 
       0.129052         1269.42         1272.83         1267.26 
       0.135211         1224.77          1217.5         1212.18 
       0.141259         1153.42         1156.76         1154.59 
       0.147318         1073.83         1087.77         1090.55 
       0.153489         1009.31         1012.17         1009.85 
       0.159709         948.735         936.573         941.127 
       0.165845         866.794         868.691         884.417 
       0.171974         833.847         811.664         828.032 
       0.178125         793.301         766.496         790.838 
       0.184229         744.958         732.142         756.612 
        0.19034         727.785         704.876          729.01 
       0.196428         704.653         680.807          699.97 
       0.202534         665.984          656.25         676.997 
       0.208729         650.616         628.711         647.699 
       0.214876         626.131         598.395         624.918 
       0.220989         583.217         566.477           596.3 
       0.227147         567.265         534.608         565.777 
        0.23329           542.9         505.186         543.098 
       0.239377         525.308          479.81         520.878 
       0.245482         499.056         458.615         496.874 
       0.251667         479.237         441.024         482.918 
       0.257832         473.528         426.245         467.531 
       0.263955          450.29         412.899         452.982 
       0.270079         436.586         399.615         438.833 
        0.27624         418.444         385.546         423.494 
       0.282372         407.429         370.629         410.056 
        0.28843         403.086         355.336         395.329 
       0.294538         383.764         340.015         382.968 
       0.300721         368.137         325.327         371.494 
        0.30691         361.625         312.015          359.99 
       0.313033         347.008         300.435         347.519 
       0.319153         340.955          290.37         339.161 
       0.325316         330.332         281.386         331.879 
        0.33145         322.153         273.141         320.851 
       0.337538         312.449         265.188         312.319 
       0.343633         303.187         257.158          306.15 
       0.349808         294.961         248.826         298.911 
       0.355968         287.844         240.384         292.426 
       0.362074         281.594         232.089         284.107 
       0.368217         276.123         224.045         274.566 
       0.374374         270.192         216.505         268.683 
       0.380519         259.027         209.594         261.579 
       0.386598         254.096         203.372         255.776 
       0.392688         248.103         197.659         250.782 
        0.39888         243.068         192.221         244.246 
       0.405048         238.433         187.028         240.315 
       0.411186         234.938         181.949         235.449 
       0.417313         229.514         176.891         228.592 
       0.423458         223.835         171.848         224.182 
       0.429607         219.874         166.864         219.408 
       0.435692          215.68          162.07         215.148 
       0.441815         210.404          157.46         212.479 
       0.447964         204.609         153.091         207.382 
       0.454126          201.02         148.978         202.281 
       0.460267         199.411         145.136         199.854 
       0.466387         195.263         141.512         195.586 
        0.47254         193.097         138.012         192.417 
       0.478662         186.926         134.628         188.726 
       0.484765         184.475         131.327         184.393 
       0.490885         181.043         128.072         182.156 
       0.497035         179.701         124.856         179.667 
       0.503198         175.805         121.718         176.151 
       0.509342         171.437         118.698         173.585 
       0.515458         169.824         115.811         171.952 
       0.521598         165.789         113.037         167.808 
       0.527764         164.077         110.377         164.152 
       0.533884         163.116         107.854          162.05 
           0.54         158.986         105.428         159.824 
       0.546137         155.308         103.069         158.094 
       0.552299         153.686         100.759         154.868 
       0.558452         150.944         98.5073         152.331 
       0.564573         150.373         96.3229          150.87 
       0.570708         146.246         94.1896         148.531 
       0.576825         144.675         92.1211         146.113 
       0.582926         143.157         90.1201             144 
       0.589034         141.022         88.1829         142.536 
       0.595184          139.49         86.3023         140.381 
       0.601379          135.99         84.4771          139.05 
       0.607522         134.317         82.7275         136.238 
       0.613639         133.112         81.0371         134.885 
       0.619772         131.146         79.3874         132.708 
       0.625918         129.803         77.7752         131.825 
       0.632068         127.687         76.2028         129.452 
       0.638161         125.568         74.6857         128.428 
         0.6443         124.959         73.1983          126.33 
       0.650464         122.653         71.7469          124.27 
       0.656582         122.105         70.3466         123.479 
       0.662703         120.654         68.9847         121.464 
       0.668861         118.177         67.6528         120.344 
       0.675024         118.026         66.3567         118.696 
       0.681124         116.186         65.1095         117.331 
       0.687237         113.941         63.8932         115.816 
       0.693381          113.49         62.7035         114.433 
       0.699536         112.187         61.5425          113.78 
       0.705665         110.392         60.4161           112.7 
       0.711789         108.993         59.3187         110.496 
       0.717957         107.817         58.2405          109.84 
        0.72409           107.1         57.1947         109.214 
       0.730186         106.254         56.1808         107.724 
       0.736317         104.381          55.186         106.296 
       0.742472         103.394          54.212         105.315 
       0.748622         101.867         53.2629         104.059 
        0.75476         100.955         52.3394         103.061 
       0.760888         100.576         51.4398         101.911 
       0.767043         98.8282         50.5585         101.355 
       0.773185         97.8723         49.7001         100.498 
       0.779291         96.7784         48.8671         99.4657 
       0.785407         95.3975         48.0523         98.1738 
       0.791564          95.454         47.2511         97.2248 
       0.797719         94.4168         46.4689         96.5212 
       0.803834         93.3328         45.7094         95.3681 
       0.809972         92.6704         44.9644         94.6336 
       0.816124         91.6998         44.2345         93.9403 
       0.822261         90.4992          43.523         92.7568 
       0.828378         90.1986         42.8294         91.6232 
       0.834502         88.8934         42.1505         91.4973 
       0.840667          88.416         41.4822         90.5787 
       0.846816         87.3163         40.8304         89.7105 
       0.852925         86.7983         40.1969         89.1172 
       0.859047          86.269         39.5758         87.9792 
       0.865192         84.9271         38.9659         87.4309 
       0.871341          84.128         38.3686         86.6418 
       0.877463         83.6762         37.7868         86.0238 
       0.883569         83.3217         37.2186         85.4615 
       0.889708         82.5448         36.6594         84.5722 
       0.895864         81.7235         36.1104         83.9403 
       0.902008         80.9779          35.574          83.269 
       0.908149         80.3064         35.0489         82.6342 
       0.914301         79.8479         34.5337         82.1866 
       0.920448         79.3243         34.0295         81.3451 
       0.926574         77.8945         33.5372         80.4237 
       0.932687         77.5868         33.0559         80.1108 
       0.938823         76.9043         32.5824         79.3232 
       0.944975         76.1778         32.1172          78.641 
       0.951105          75.514         31.6628         78.3217 
       0.957225         75.4168         31.2182         77.7097 
       0.963368         74.5705         30.7807         76.9046 
       0.969511         73.9648         30.3516         76.4056 
       0.975621         73.4284         29.9332         76.1957 
       0.981748         72.6691         29.5216         75.4606 
       0.987916         72.1633         29.1153         74.9571 
        0.99406         71.7056         28.7183         74.4764 
        1.00019         71.0721         28.3295         73.9309 
        1.00632         70.5971         27.9483         73.4661 
        1.01246         70.0791         27.5737          72.871 
        1.01859         69.6454         27.2067         72.3485 
        1.02471         68.8407         26.8468         71.9586 
        1.03085         68.5932         26.4923          71.415 
        1.03698         68.0509         26.1451         70.8742 
        1.04314         67.6792         25.8026         70.3064 
        1.04929         67.0108         25.4672         70.0666 
        1.05541         66.6191         25.1391         69.7744 
        1.06154         66.3418         24.8161         69.0532 
        1.06769         65.4083         24.4983         68.6659 
        1.07382         65.2368         24.1872         68.2887 
        1.07993         64.7459         23.8823         67.6933 
        1.08607         64.2591         23.5814         67.2618 
        1.09222         63.9549         23.2855         66.9128 
        1.09836         63.4292          22.995         66.5167 
        1.10449         63.0659         22.7099         65.9667 
        1.11063         62.5259         22.4294         65.6053 
        1.11677         62.4904         22.1538         65.2235 
         1.1229         61.7754         21.8833         64.8426 
        1.12903         61.6188         21.6171         64.4359 
        1.13518         61.3731         21.3553         63.9543 
        1.14131         60.6945         21.0979         63.6915 
        1.14745         60.0713          20.845         63.2837 
        1.15359         59.6386         20.5962            63.1 
        1.15973          59.434         20.3514         62.6156 
        1.16584         59.0779         20.1118         62.2073 
        1.17197         58.3917         19.8757         61.7843 
        1.17811         58.1872         19.6427         61.2911 
        1.18424         57.5481         19.4141         61.0022 
        1.19038         57.4024         19.1886         60.8983 
        1.19652         57.1597         18.9668         60.3239 
        1.20267         56.7788         18.7485         60.1755 
        1.20881          56.393         18.5337         59.7552 
        1.21495         56.1057         18.3227         59.5314 
        1.22108         55.8663          18.115         59.0617 
         1.2272         55.5018         17.9111         58.8438 
        1.23334         55.1238         17.7099         58.5183 
        1.23949         54.7887         17.5113         58.0729 
        1.24562         54.3004         17.3163         57.7949 
        1.25174         54.0301         17.1247         57.5584 
        1.25789         54.0121         16.9354         57.1729 
        1.26402         53.5665         16.7493         56.8554 
        1.27014         53.1668         16.5664         56.5779 
        1.27628           52.73         16.3858         56.2423 
        1.28244         52.6139         16.2076         56.0925 
        1.28858         52.1903         16.0322         55.7177 
        1.29471         52.0168         15.8599         55.4545 
        1.30084         51.5653         15.6903         55.0967 
        1.30697          51.374         15.5229          54.754 
        1.31312         50.9449         15.3578         54.5919 
        1.31925         50.6381         15.1956         54.2933 
        1.32537         50.4135         15.0359         54.0313 
        1.33151          50.085          14.878         53.7697 
        1.33765         49.8961         14.7225         53.5258 
        1.34378          49.667         14.5695         53.2279 
        1.34992          49.341         14.4186         52.9714 
        1.35606         49.0707         14.2695         52.8009 
         1.3622         48.6589         14.1229         52.5363 
        1.36833         48.4147         13.9786         52.2553 
        1.37445         48.1678         13.8365         51.9464 
        1.38059          47.927         13.6959         51.7568 
        1.38675         47.4734          13.557         51.5186 
        1.39288         47.4418         13.4205         51.3112 
        1.39901          47.089          13.286         51.0627 
        1.40515         46.8927         13.1531         50.7518 
         1.4113         46.8362         13.0221         50.5386 
        1.41742         46.5197         12.8933         50.4046 
        1.42355         46.0767         12.7661         49.9721 
         1.4297         45.8225         12.6402         49.7529 
        1.43585         45.5132         12.5161         49.6351 
        1.44198         45.3497         12.3941         49.3897 
        1.44809         45.1371         12.2741         49.0982 
        1.45423         44.9575         12.1551         48.8418 
        1.46036         44.6812          12.038         48.6276 
        1.46649          44.462         11.9224         48.4391 
        1.47263         44.1535         11.8082         48.2745 
        1.47877         44.0306         11.6956         48.1019 
        1.48491           43.86         11.5843         47.7419 
        1.49104          43.511         11.4747         47.5842 
        1.49718         43.3215         11.3665         47.3599 
        1.50333         43.2187         11.2594         47.2169 
        1.50947         42.8568          11.154         47.0683 
         1.5156         42.6909         11.0501         46.8216 
        1.52172          42.342         10.9476         46.5485 
        1.52787         42.1567         10.8461         46.3407 
          1.534         41.9994         10.7461           46.19 
        1.54013         41.8025         10.6474         45.9294 
        1.54627         41.4674         10.5498         45.6936 
        1.55241         41.3632         10.4534         45.5679 
        1.55855         41.1426         10.3584          45.418 
        1.56467         41.0487         10.2648         45.1864 
         1.5708         40.7957         10.1721         45.0199 
        1.57695         40.5557         10.0805         44.8037 
        1.58308         40.2271         9.99014         44.5589 
        1.58922         40.0342         9.90088         44.4709 
        1.59535         39.9241         9.81275         44.3346 
         1.6015         39.7622         9.72558         44.0709 
        1.60764         39.6026         9.63952         43.8484 
        1.61376         39.3368         9.55475         43.7062 
        1.61989         39.0792         9.47094         43.4796 
        1.62604         38.9529         9.38795         43.4019 
        1.63218          38.729         9.30602         43.2876 
        1.63831         38.6396         9.22526         43.0203 
        1.64444         38.3968         9.14543         42.8178 
        1.65059          38.196         9.06637          42.673 
        1.65673         38.0227         8.98834         42.5075 
        1.66285         37.8661         8.91145         42.3489 
        1.66898         37.6409         8.83544         42.2202 
        1.67512         37.5408         8.76017          42.034 
        1.68127         37.2999         8.68572         41.8336 
         1.6874         37.1435         8.61231         41.6384 
        1.69353         36.9894         8.53979         41.4459 
        1.69967         36.7946         8.46795         41.3003 
        1.70581         36.4811         8.39697         41.2117 
        1.71193         36.2893         8.32707         41.0807 
        1.71806         36.2462         8.25783         40.8099 
        1.72421         36.1322         8.18925         40.6462 
        1.73035         35.8772         8.12153         40.5404 
        1.73649         35.6549         8.05459         40.3874 
        1.74262         35.4778         7.98847         40.1881 
        1.74876         35.2806         7.92305         40.0374 
        1.75489         35.1933         7.85851         39.9086 
        1.76101         35.0776         7.79471         39.7547 
        1.76715         34.8725         7.73154         39.5953 
        1.77329         34.6931         7.66899         39.4314 
        1.77943         34.6026         7.60712         39.2972 
        1.78557         34.4034         7.54602         39.1963 
        1.79171         34.2301         7.48559          39.032 
        1.79785         34.0462         7.42581         38.8743 
        1.80399          33.945         7.36671         38.7874 
        1.81012         33.7979         7.30833         38.5659 
        1.81625         33.5504         7.25061         38.3619 
        1.82239          33.446         7.19344         38.2745 
        1.82853         33.2976         7.13691         38.1626 
        1.83466          33.132         7.08105         38.0293 
        1.84078         32.9609         7.02585         37.9083 
        1.84692         32.8438         6.97116         37.8066 
        1.85306         32.6509         6.91698         37.6314 
         1.8592         32.5387         6.86346         37.4431 
        1.86533          32.329         6.81055         37.3383 
        1.87147         32.2049         6.75814         37.2195 
