# k  (h/Mpc)    Pcb(k)  (Mpc/h)^3    Pcb_linear(k) (Mpc/h)^3    Pcb_NL(k) (Mpc/h)^3   ShotnoiseSubtracted = false
     0.00783031         12347.1         12391.3         12376.1 
       0.013688         16136.3         16559.5         16458.9 
       0.019231           17595         17884.8         17711.9 
      0.0249154         17512.3         17565.3         17350.8 
      0.0312784         15889.3         16158.5           15898 
      0.0375637         14077.9           14453         14179.2 
      0.0433917         12804.1         13008.8         12704.2 
      0.0492413         11541.6         11853.3         11543.9 
      0.0555754         10696.8         10933.5         10626.8 
      0.0619321         9699.61         10247.9          9932.1 
       0.067871         9292.26         9693.47         9382.46 
      0.0738098         8801.08          9121.2         8729.74 
      0.0800417         8150.07         8448.89         8068.89 
      0.0862327         7413.01         7717.34         7423.79 
      0.0921407         6762.67         7010.29         6735.14 
      0.0982031         6209.11         6338.74         6163.83 
       0.104506         5577.56         5750.93         5664.15 
       0.110769         5171.71         5300.15         5185.25 
       0.116806         4957.47         4981.18         4869.08 
       0.122832         4671.18         4744.33         4657.21 
       0.129052          4452.6         4542.44          4462.5 
       0.135211         4339.49         4344.98         4260.82 
       0.141259         4057.06         4128.21         4086.23 
       0.147318         3780.92            3882          3873.9 
       0.153489         3583.68          3612.2         3569.76 
       0.159709         3442.77          3342.4         3365.47 
       0.165845         3146.21         3100.14          3220.5 
       0.171974         3061.09         2896.63          3039.3 
       0.178125         2966.19         2735.43         2948.87 
       0.184229         2742.13         2612.83         2813.21 
        0.19034         2710.82         2515.52         2721.45 
       0.196428         2644.23         2429.63         2614.57 
       0.202534         2501.19         2341.99         2540.99 
       0.208729         2454.02         2243.71         2421.39 
       0.214876         2358.83         2135.51         2361.22 
       0.220989         2246.25         2021.61         2284.86 
       0.227147         2189.41         1907.87         2201.89 
        0.23329         2106.54         1802.87         2137.07 
       0.239377         2093.45         1712.31         2059.41 
       0.245482         2001.63         1636.67         1975.55 
       0.251667         1929.97          1573.9         1936.66 
       0.257832         1904.44         1521.15         1881.74 
       0.263955         1825.84         1473.53         1833.62 
       0.270079          1787.9         1426.12         1785.42 
        0.27624         1714.08         1375.91         1733.99 
       0.282372         1698.83         1322.68         1700.15 
        0.28843         1670.03          1268.1         1659.76 
       0.294538         1598.54         1213.42         1615.69 
       0.300721          1571.2            1161          1570.3 
        0.30691         1535.13          1113.5         1549.45 
       0.313033         1481.26         1072.17         1505.67 
       0.319153          1467.5         1036.25         1466.79 
       0.325316         1450.48         1004.19         1448.98 
        0.33145         1423.38         974.767         1400.98 
       0.337538         1380.71         946.381         1381.16 
       0.343633         1350.47         917.726          1366.2 
       0.349808         1328.93         887.993         1343.12 
       0.355968          1302.4         857.864         1321.93 
       0.362074         1268.65         828.262         1295.55 
       0.368217         1265.18         799.554         1264.38 
       0.374374         1246.07         772.644         1244.13 
       0.380519         1206.51         747.983         1221.87 
       0.386598         1202.82         725.777         1205.63 
       0.392688         1173.54         705.391         1181.09 
        0.39888         1151.31         685.984         1167.33 
       0.405048         1131.56         667.451         1151.98 
       0.411186         1125.69         649.324         1129.24 
       0.417313         1125.28         631.274         1114.83 
       0.423458         1090.58         613.276          1096.5 
       0.429607         1062.42         595.492         1076.91 
       0.435692         1055.41         578.381         1058.45 
       0.441815         1036.37         561.931         1056.14 
       0.447964         1026.25         546.339         1040.79 
       0.454126         1012.39         531.662         1014.31 
       0.460267         1001.37         517.949         1013.77 
       0.466387         987.208         505.016         994.608 
        0.47254         968.662         492.526         983.645 
       0.478662         958.686         480.449         971.633 
       0.484765         950.443          468.67         959.842 
       0.490885         939.205         457.051         943.566 
       0.497035         924.009         445.577         935.915 
       0.503198         922.574         434.377         925.452 
       0.509342         906.447         423.598         910.441 
       0.515458         888.541         413.297         906.154 
       0.521598         887.346         403.398         897.543 
       0.527764         867.037         393.904         888.022 
       0.533884          859.63           384.9         878.329 
           0.54         852.738         376.244         869.306 
       0.546137         843.205         367.824         859.331 
       0.552299         837.059         359.579         847.754 
       0.558452         829.259         351.545         841.626 
       0.564573         822.199         343.749         833.878 
       0.570708         814.933         336.136         825.644 
       0.576825         798.696         328.754         814.468 
       0.582926         796.747         321.613         808.199 
       0.589034          787.99           314.7          796.35 
       0.595184         778.949         307.988         790.807 
       0.601379         766.901         301.475         784.693 
       0.607522         757.613         295.231         774.315 
       0.613639         756.527         289.198         771.186 
       0.619772         749.731         283.311         769.328 
       0.625918         740.024         277.558          759.83 
       0.632068         734.876         271.946         754.593 
       0.638161         724.954         266.532         741.903 
         0.6443         719.239         261.224         738.887 
       0.650464          713.86         256.044         728.836 
       0.656582         708.348         251.047         723.831 
       0.662703         698.787         246.187          719.58 
       0.668861         692.656         241.434         715.957 
       0.675024         687.873         236.808         711.755 
       0.681124          677.44         232.357         699.866 
       0.687237         677.186         228.017         694.889 
       0.693381         665.674         223.771         688.768 
       0.699536          665.65         219.628         684.158 
       0.705665         657.774         215.608          677.91 
       0.711789         655.715         211.692         672.149 
       0.717957         647.137         207.844         670.409 
        0.72409         641.642         204.112          664.72 
       0.730186         639.587         200.493         658.697 
       0.736317         631.637         196.943         652.549 
       0.742472         623.892         193.467         647.744 
       0.748622         621.303          190.08         642.577 
        0.75476         614.871         186.784         642.888 
       0.760888         611.526         183.574         635.321 
       0.767043         608.908         180.429         628.323 
       0.773185         604.759         177.366         624.711 
       0.779291         597.283         174.393         619.225 
       0.785407          593.06         171.485         615.719 
       0.791564         588.917         168.626         613.927 
       0.797719         580.587         165.834         607.535 
       0.803834         581.622         163.124         604.342 
       0.809972         573.859         160.465         601.358 
       0.816124         569.264          157.86         593.113 
       0.822261         565.936         155.321         590.064 
       0.828378         563.152         152.846         586.399 
       0.834502          554.66         150.423         584.602 
       0.840667         553.761         148.038         580.198 
       0.846816         548.267         145.712         576.039 
       0.852925          546.44         143.451         572.331 
       0.859047         541.454         141.235         567.128 
       0.865192         538.242         139.058         563.693 
       0.871341         531.579         136.927         560.993 
       0.877463          530.09          134.85          557.47 
       0.883569         524.406         132.823           553.4 
       0.889708         519.319         130.827         548.788 
       0.895864         514.689         128.868         545.969 
       0.902008         513.676         126.953         542.812 
       0.908149         509.168         125.079         537.917 
       0.914301         507.091         123.241         534.265 
       0.920448         500.796         121.441         531.579 
       0.926574         498.817         119.685         527.717 
       0.932687         496.835         117.967         524.588 
       0.938823         490.499         116.277         523.044 
       0.944975         487.849         114.617         519.119 
       0.951105         484.476         112.996         514.347 
       0.957225          477.56         111.409         513.217 
       0.963368         478.724         109.847          509.64 
       0.969511         471.014         108.316         505.987 
       0.975621         470.476         106.823         502.907 
       0.981748         467.195         105.354         499.303 
       0.987916         464.288         103.904         498.327 
        0.99406          459.92         102.487         494.501 
        1.00019         455.468           101.1         489.242 
        1.00632         454.183         99.7397         486.844 
        1.01246         450.697         98.4028         484.025 
        1.01859         446.138         97.0929         480.398 
        1.02471         444.189         95.8087         478.974 
        1.03085         441.461         94.5436         477.489 
        1.03698          439.06         93.3043         474.767 
        1.04314         435.405         92.0822         471.563 
        1.04929          433.49         90.8851         467.616 
        1.05541          427.33         89.7144         464.462 
        1.06154         426.427         88.5616         461.702 
        1.06769         422.276         87.4276         458.656 
        1.07382         419.571         86.3173         456.321 
        1.07993         418.161         85.2291          453.98 
        1.08607         414.794         84.1553         450.684 
        1.09222          411.32         83.0992         447.798 
        1.09836         408.781         82.0626         446.766 
        1.10449          405.49         81.0452         443.915 
        1.11063         403.063         80.0441         440.122 
        1.11677         398.836         79.0604          438.68 
         1.1229         397.689         78.0952         436.003 
        1.12903         394.331         77.1454         433.586 
        1.13518         392.064         76.2108          430.88 
        1.14131         390.391         75.2924         428.377 
        1.14745         385.426         74.3897         426.009 
        1.15359         382.874         73.5019         424.113 
        1.15973         381.213         72.6284         421.513 
        1.16584         379.353         71.7731         419.159 
        1.17197         376.385         70.9305          416.82 
        1.17811         372.286          70.099         414.652 
        1.18424         370.728         69.2834         412.939 
        1.19038         368.709         68.4786         410.429 
        1.19652         364.609         67.6869         408.084 
        1.20267         363.775          66.908         405.253 
        1.20881         361.878         66.1416         403.137 
        1.21495         357.536         65.3885         400.658 
        1.22108         356.565         64.6474         398.457 
         1.2272         351.598         63.9196         395.813 
        1.23334         350.799         63.2015         393.508 
        1.23949         348.299         62.4928         392.049 
        1.24562         347.744         61.7971         390.102 
        1.25174         343.853         61.1131         388.072 
        1.25789         341.277         60.4374         386.007 
        1.26402         339.631         59.7733         384.254 
        1.27014         337.903         59.1209         381.196 
        1.27628         334.505         58.4763         380.405 
        1.28244         332.414         57.8402         378.774 
        1.28858         330.851         57.2144         376.049 
        1.29471         329.093         56.5995         373.411 
        1.30084         327.111         55.9942         371.556 
        1.30697         323.678         55.3969         370.082 
        1.31312         321.631         54.8076         368.213 
        1.31925         319.935         54.2287         365.689 
        1.32537         318.119         53.6589         363.475 
        1.33151         315.216         53.0953         362.251 
        1.33765         312.878         52.5403           360.4 
        1.34378         310.631         51.9943         358.084 
        1.34992         308.226         51.4558         355.666 
        1.35606         306.504         50.9238         353.932 
         1.3622         305.027         50.4004         352.579 
        1.36833         303.623         49.8857         351.155 
        1.37445         301.832         49.3784         348.424 
        1.38059         298.469         48.8768         347.462 
        1.38675         297.022         48.3809         346.107 
        1.39288         295.859          47.894         342.881 
        1.39901         292.941         47.4141         341.238 
        1.40515         291.498         46.9397         339.382 
         1.4113         289.189          46.472         337.412 
        1.41742         286.475         46.0126         336.154 
        1.42355          286.45         45.5585         334.259 
         1.4297         283.821         45.1093         332.468 
        1.43585         280.584         44.6664         331.508 
        1.44198         279.797         44.2311         329.259 
        1.44809         278.306         43.8026         328.084 
        1.45423         276.072         43.3782         325.291 
        1.46036         274.626         42.9602         323.907 
        1.46649          273.09         42.5476         322.741 
        1.47263         270.171         42.1402         320.673 
        1.47877         269.025         41.7383         318.811 
        1.48491         266.809         41.3411         317.122 
        1.49104         264.903           40.95         315.509 
        1.49718         263.473         40.5636         314.618 
        1.50333         261.151         40.1817         313.292 
        1.50947         260.518         39.8055         311.561 
         1.5156         257.982         39.4347         309.597 
        1.52172         256.413         39.0687         307.553 
        1.52787         254.604         38.7066         306.316 
          1.534         254.079         38.3496         305.109 
        1.54013         251.508         37.9975          303.45 
        1.54627         250.225         37.6492         301.998 
        1.55241         248.411         37.3052         300.828 
        1.55855         247.162         36.9661         299.408 
        1.56467         245.295         36.6321         297.283 
         1.5708         243.913         36.3014         295.623 
        1.57695          242.37         35.9742         294.434 
        1.58308         241.118         35.6519         292.819 
        1.58922         239.077         35.3334         291.366 
        1.59535         237.067         35.0189         290.355 
         1.6015         235.989         34.7078         288.933 
        1.60764         234.428         34.4007         287.107 
        1.61376         232.324         34.0981         285.726 
        1.61989         230.971          33.799         284.515 
        1.62604         229.259         33.5029         282.961 
        1.63218         227.954         33.2105         281.726 
        1.63831         227.297         32.9223          280.62 
        1.64444         225.055         32.6374         278.825 
        1.65059         224.323         32.3553         277.614 
        1.65673         222.198         32.0768          276.46 
        1.66285         221.142         31.8024         274.889 
        1.66898         219.784         31.5311         273.195 
        1.67512         217.859         31.2625         272.258 
        1.68127         216.892         30.9968         270.945 
         1.6874         215.308         30.7348         269.521 
        1.69353         214.187         30.4761         268.688 
        1.69967         212.735         30.2197         267.079 
        1.70581         211.377         29.9663         265.705 
        1.71193         209.961         29.7169         264.666 
        1.71806         208.148         29.4698         263.066 
        1.72421         207.245         29.2251          261.91 
        1.73035         205.443         28.9834         260.618 
        1.73649         203.946         28.7445         259.133 
        1.74262         203.162         28.5085         258.428 
        1.74876         201.852         28.2751         257.154 
        1.75489         200.695         28.0447         255.704 
        1.76101         199.593         27.8171         254.734 
        1.76715         197.929         27.5916         253.678 
        1.77329         196.107         27.3684         252.461 
        1.77943         195.172         27.1476          251.17 
        1.78557          194.26         26.9296         249.883 
        1.79171         193.403         26.7139         248.779 
        1.79785         191.894         26.5006         247.655 
        1.80399          190.58         26.2897         246.377 
        1.81012         189.353         26.0813         245.518 
        1.81625         187.979         25.8753         244.416 
        1.82239         186.761         25.6713         242.949 
        1.82853         186.038         25.4696         241.879 
        1.83466         184.415         25.2702         240.711 
        1.84078         183.363         25.0732         239.517 
        1.84692         182.409          24.878         238.809 
        1.85306         180.861         24.6847         237.607 
         1.8592         180.073         24.4937         236.277 
        1.86533         178.339         24.3049         235.629 
        1.87147         177.601         24.1178         234.721 
