# k  (h/Mpc)    Pcb(k)  (Mpc/h)^3    Pcb_linear(k) (Mpc/h)^3    Pcb_NL(k) (Mpc/h)^3   ShotnoiseSubtracted = false
     0.00783031         368.743         371.097         370.787 
       0.013688         492.158         496.316         494.772 
       0.019231         534.356         536.216         533.847 
      0.0249154         526.124         526.735         525.072 
      0.0312784         483.896         484.606         483.851 
      0.0375637         432.681         433.492         433.048 
      0.0433917         390.653         390.193         390.062 
      0.0492413         355.293         355.547          355.49 
      0.0555754         328.531         327.964         327.816 
      0.0619321         305.873         307.407         307.209 
       0.067871         290.326          290.78          290.44 
      0.0738098         273.314         273.616         273.113 
      0.0800417         253.514         253.451         252.979 
      0.0862327         231.236         231.508         231.175 
      0.0921407         209.972         210.299         210.072 
      0.0982031         190.354         190.154         190.097 
       0.104506         172.048         172.522         172.599 
       0.110769         158.643         158.999         159.029 
       0.116806         149.723         149.431         149.411 
       0.122832         142.015         142.326         142.313 
       0.129052         136.257          136.27         136.221 
       0.135211         130.561         130.347         130.275 
       0.141259         123.672         123.844         123.805 
       0.147318         115.892         116.458         116.501 
       0.153489         108.172         108.364          108.36 
       0.159709         100.351         100.271         100.375 
       0.165845         92.5189         93.0031         93.2741 
       0.171974         87.2143         86.8978         87.1703 
       0.178125         82.3612         82.0621         82.4377 
       0.184229         78.3514         78.3842         78.7646 
        0.19034         75.8171         75.4651          75.826 
       0.196428         73.1074         72.8882         73.1577 
       0.202534         69.9745         70.2591         70.5401 
       0.208729         67.4117         67.3108         67.5788 
       0.214876         64.4737         64.0651         64.4427 
       0.220989         60.4894         60.6479         61.0743 
       0.227147         57.7239          57.236         57.6747 
        0.23329         54.6689         54.0861         54.6293 
       0.239377         52.0373         51.3692         51.9746 
       0.245482         49.6718         49.1001         49.6595 
       0.251667         47.5939         47.2168          47.826 
       0.257832         46.2875         45.6346         46.2306 
       0.263955          44.614         44.2057         44.7693 
       0.270079         43.1759         42.7835         43.3214 
        0.27624         41.4713         41.2772         41.7872 
       0.282372         39.9456         39.6803         40.2279 
        0.28843         38.6464         38.0429         38.6105 
       0.294538         36.9457         36.4026         37.0096 
       0.300721         35.2214         34.8301         35.4891 
        0.30691         34.0475         33.4049         34.0777 
       0.313033         32.7353         32.1651         32.8286 
       0.319153          31.941         31.0875         31.7931 
       0.325316         30.5855         30.1257         30.8526 
        0.33145         29.6998          29.243         29.9277 
       0.337538         28.9116         28.3915         29.0549 
       0.343633         28.1066         27.5318         28.1939 
       0.349808         27.1692         26.6398         27.3239 
       0.355968         26.2302          25.736         26.4964 
       0.362074         25.4777         24.8479         25.5832 
       0.368217         24.6142         23.9867         24.6732 
       0.374374         23.9848         23.1794          23.919 
       0.380519         23.0447         22.4395         23.1601 
       0.386598         22.3378         21.7734         22.5153 
       0.392688         21.6926         21.1618         21.9021 
        0.39888         21.1913         20.5796         21.3073 
       0.405048         20.6556         20.0236         20.7209 
       0.411186         20.0781         19.4798         20.2406 
       0.417313         19.5458         18.9383         19.6676 
       0.423458         18.9255         18.3983         19.1425 
       0.429607         18.5157         17.8648         18.5903 
       0.435692         18.0557         17.3515         18.1046 
       0.441815          17.456          16.858         17.6509 
       0.447964         16.9145         16.3902         17.1607 
       0.454126         16.5808         15.9499         16.7098 
       0.460267         16.2869         15.5385         16.3164 
       0.466387         15.8235         15.1505         15.9001 
        0.47254         15.4993         14.7758         15.5334 
       0.478662         15.0896         14.4135         15.1594 
       0.484765         14.7429         14.0601         14.8108 
       0.490885         14.3431         13.7116         14.5062 
       0.497035         13.9662         13.3674          14.167 
       0.503198         13.6735         13.0314         13.7801 
       0.509342          13.297          12.708          13.477 
       0.515458         13.0603          12.399         13.1996 
       0.521598         12.7574          12.102          12.851 
       0.527764         12.5408         11.8172         12.5614 
       0.533884         12.1627          11.547         12.2957 
           0.54         11.9269         11.2874         12.0251 
       0.546137         11.6066         11.0348         11.7878 
       0.552299          11.394         10.7874         11.5019 
       0.558452         11.1534         10.5464         11.2675 
       0.564573         10.9496         10.3125         11.0783 
       0.570708         10.7069         10.0841         10.8379 
       0.576825         10.4901         9.86267          10.607 
       0.582926         10.2546         9.64844         10.4037 
       0.589034         10.0788         9.44104         10.2113 
       0.595184         9.91087          9.2397         9.95636 
       0.601379         9.65563         9.04429         9.80074 
       0.607522         9.47144         8.85698         9.60162 
       0.613639         9.24955         8.67599         9.41229 
       0.619772         9.11783         8.49938         9.25409 
       0.625918         8.92634         8.32677         9.06128 
       0.632068         8.78809         8.15843         8.88408 
       0.638161         8.60545         7.99601         8.71697 
         0.6443         8.43763         7.83676         8.54797 
       0.650464         8.25531         7.68137         8.41555 
       0.656582         8.16222         7.53145         8.25642 
       0.662703         8.01588         7.38565         8.10315 
       0.668861         7.80901         7.24305         7.97668 
       0.675024          7.6869         7.10429         7.81985 
       0.681124         7.64056         6.97075         7.68101 
       0.687237         7.46144         6.84054         7.52936 
       0.693381         7.27508         6.71316          7.3921 
       0.699536         7.21123         6.58887         7.27159 
       0.705665         7.07658         6.46827         7.18273 
       0.711789         6.92326         6.35078         7.05348 
       0.717957         6.79701         6.23534         6.91983 
        0.72409         6.70456         6.12338         6.81054 
       0.730186         6.62832         6.01483         6.68676 
       0.736317          6.4884         5.90833         6.57595 
       0.742472         6.39945         5.80405           6.501 
       0.748622         6.29956         5.70244          6.3916 
        0.75476         6.15595         5.60356         6.27098 
       0.760888         6.09261         5.50725         6.17959 
       0.767043         5.93843         5.41289         6.09154 
       0.773185         5.86713           5.321         6.00354 
       0.779291         5.82457         5.23181         5.91002 
       0.785407         5.70573         5.14457         5.81298 
       0.791564         5.62426         5.05881         5.72728 
       0.797719         5.52611         4.97505         5.62328 
       0.803834         5.44865         4.89375         5.54632 
       0.809972         5.35834         4.81398         5.48304 
       0.816124         5.28093         4.73584         5.38462 
       0.822261          5.2102         4.65966         5.30589 
       0.828378         5.11975          4.5854          5.2297 
       0.834502         5.05274         4.51272         5.14841 
       0.840667          4.9947         4.44117         5.07922 
       0.846816         4.90776         4.37139         5.02186 
       0.852925         4.83035         4.30357         4.94636 
       0.859047         4.76567         4.23706         4.88706 
       0.865192         4.69626         4.17177          4.8116 
       0.871341           4.631         4.10782         4.74472 
       0.877463         4.55993         4.04553         4.67355 
       0.883569         4.49973          3.9847         4.61909 
       0.889708         4.44488         3.92483         4.55595 
       0.895864         4.38341         3.86606         4.48949 
       0.902008         4.30797         3.80862         4.43205 
       0.908149         4.25903         3.75241         4.37661 
       0.914301         4.21181         3.69725         4.31391 
       0.920448         4.15292         3.64327         4.25039 
       0.926574         4.11684         3.59056         4.20257 
       0.932687         4.04889         3.53903         4.13269 
       0.938823         3.97868         3.48834         4.10202 
       0.944975         3.94273         3.43853         4.03191 
       0.951105         3.87089         3.38989         3.98167 
       0.957225         3.83141         3.34229         3.94539 
       0.963368         3.79461         3.29544         3.88835 
       0.969511         3.74871         3.24951         3.84211 
       0.975621         3.68987         3.20471         3.77829 
       0.981748         3.62344         3.16065          3.7364 
       0.987916         3.58791         3.11715         3.70515 
        0.99406         3.56007         3.07464         3.66062 
        1.00019         3.51254         3.03301         3.61966 
        1.00632         3.47926         2.99221         3.56909 
        1.01246         3.42642          2.9521         3.52466 
        1.01859         3.38504          2.9128         3.48307 
        1.02471         3.33041         2.87428         3.44101 
        1.03085         3.30043         2.83633         3.39456 
        1.03698          3.2638         2.79915         3.35634 
        1.04314         3.22906         2.76248         3.32008 
        1.04929         3.18937         2.72657         3.28245 
        1.05541         3.14121         2.69145         3.25039 
        1.06154         3.11589         2.65687         3.21341 
        1.06769         3.08886         2.62284          3.1772 
        1.07382         3.04118         2.58954         3.14031 
        1.07993         3.00324         2.55689         3.10394 
        1.08607         2.97771         2.52468         3.06938 
        1.09222         2.93248         2.49299         3.03067 
        1.09836         2.91745          2.4619         3.00168 
        1.10449         2.86203         2.43137          2.9701 
        1.11063         2.83671         2.40134          2.9312 
        1.11677         2.81002         2.37183         2.90501 
         1.1229         2.76897         2.34287         2.87634 
        1.12903         2.75131         2.31438         2.84338 
        1.13518         2.70997         2.28634         2.81546 
        1.14131         2.68479         2.25879         2.78351 
        1.14745         2.65542         2.23171          2.7478 
        1.15359         2.62754         2.20507         2.72572 
        1.15973         2.59973         2.17887          2.6981 
        1.16584         2.56901         2.15321          2.6688 
        1.17197         2.53914         2.12793         2.64041 
        1.17811         2.51254         2.10299         2.61583 
        1.18424         2.48569         2.07852         2.58433 
        1.19038         2.45754         2.05437         2.55953 
        1.19652         2.44093         2.03062         2.53771 
        1.20267         2.41843         2.00725         2.50288 
        1.20881         2.38424         1.98426         2.48298 
        1.21495         2.36448         1.96167         2.46536 
        1.22108         2.34142         1.93943         2.43677 
         1.2272         2.30699          1.9176          2.4066 
        1.23334         2.29389         1.89606         2.38748 
        1.23949         2.27142          1.8748         2.37059 
        1.24562         2.24717         1.85392          2.3462 
        1.25174          2.2257          1.8334         2.31729 
        1.25789          2.1974         1.81314         2.29428 
        1.26402         2.17471         1.79321         2.27145 
        1.27014         2.15141         1.77364          2.2538 
        1.27628         2.13456          1.7543         2.23336 
        1.28244         2.11695         1.73522         2.20912 
        1.28858         2.09196         1.71645         2.18493 
        1.29471          2.0672           1.698         2.16608 
        1.30084         2.05186         1.67984         2.15301 
        1.30697         2.03691         1.66192         2.13191 
        1.31312         2.01577         1.64424         2.11128 
        1.31925         1.99658         1.62687         2.09484 
        1.32537          1.9789         1.60978         2.07483 
        1.33151         1.95686         1.59287         2.05567 
        1.33765          1.9401         1.57622         2.03664 
        1.34378         1.91937         1.55984         2.02146 
        1.34992         1.90776         1.54369         2.00361 
        1.35606          1.8867         1.52773         1.97909 
         1.3622         1.87096         1.51202         1.96384 
        1.36833         1.85174         1.49658         1.95093 
        1.37445          1.8346         1.48136         1.93372 
        1.38059         1.81806         1.46631         1.91572 
        1.38675         1.80282         1.45144         1.89647 
        1.39288          1.7871         1.43683         1.88239 
        1.39901         1.76997         1.42243         1.86759 
        1.40515         1.75186          1.4082          1.8481 
         1.4113         1.74396         1.39417         1.83384 
        1.41742         1.72191         1.38039         1.82476 
        1.42355         1.70359         1.36677         1.79969 
         1.4297         1.69652         1.35329         1.79278 
        1.43585         1.67695            1.34          1.7784 
        1.44198         1.66417         1.32694         1.75417 
        1.44809         1.64905         1.31409         1.74797 
        1.45423         1.63711         1.30135         1.72677 
        1.46036         1.62255         1.28882         1.71425 
        1.46649         1.60278         1.27644         1.70526 
        1.47263         1.59365         1.26422         1.69009 
        1.47877         1.58574         1.25216         1.67335 
        1.48491         1.56233         1.24024         1.66312 
        1.49104         1.55616         1.22851         1.64725 
        1.49718         1.53815         1.21692         1.63713 
        1.50333         1.52825         1.20546         1.61964 
        1.50947         1.51661         1.19417         1.60598 
         1.5156         1.50284         1.18305         1.59664 
        1.52172          1.4922         1.17207         1.58291 
        1.52787         1.47716         1.16121         1.56952 
          1.534          1.4683          1.1505         1.55847 
        1.54013         1.45489         1.13993         1.54623 
        1.54627         1.44215         1.12948         1.53311 
        1.55241         1.42832         1.11916         1.52113 
        1.55855         1.41928         1.10899         1.51029 
        1.56467         1.40826         1.09897         1.50005 
         1.5708         1.39551         1.08905         1.48583 
        1.57695         1.38259         1.07924         1.47528 
        1.58308         1.36963         1.06957         1.46812 
        1.58922         1.36506         1.06001         1.45548 
        1.59535         1.34893         1.05057         1.44312 
         1.6015         1.33778         1.04124         1.43123 
        1.60764         1.32984         1.03203         1.42235 
        1.61376         1.31799         1.02295          1.4149 
        1.61989         1.30974         1.01398         1.40315 
        1.62604         1.29604         1.00509         1.39289 
        1.63218         1.29095        0.996322         1.38362 
        1.63831         1.27792        0.987676         1.37285 
        1.64444         1.26815         0.97913         1.36126 
        1.65059         1.26006        0.970666         1.35118 
        1.65673         1.24858        0.962311         1.34305 
        1.66285         1.23974        0.954079         1.33381 
        1.66898         1.23167        0.945941         1.32226 
        1.67512         1.21833        0.937883         1.31343 
        1.68127         1.20842        0.929913         1.30565 
         1.6874           1.204        0.922053         1.29678 
        1.69353         1.19292        0.914289         1.28632 
        1.69967         1.18446        0.906597         1.27674 
        1.70581         1.17782        0.898998         1.26936 
        1.71193         1.16673        0.891515         1.26187 
        1.71806         1.15844        0.884102         1.25129 
        1.72421         1.15018        0.876759          1.2431 
        1.73035         1.13748        0.869508          1.2347 
        1.73649         1.13697        0.862342         1.22456 
        1.74262         1.12401        0.855263         1.21613 
        1.74876         1.11764        0.848259         1.20964 
        1.75489          1.1097        0.841349         1.20214 
        1.76101         1.09877        0.834519         1.19279 
        1.76715         1.09241        0.827755          1.1849 
        1.77329         1.08549        0.821059         1.17756 
        1.77943         1.07735        0.814435         1.16978 
        1.78557         1.07237        0.807894         1.16167 
        1.79171         1.06417        0.801424         1.15326 
        1.79785         1.05484        0.795024         1.14541 
        1.80399         1.04609        0.788696         1.13824 
        1.81012         1.03986        0.782446         1.12905 
        1.81625         1.03279        0.776267         1.12166 
        1.82239         1.02555        0.770146         1.11734 
        1.82853         1.01867        0.764094         1.11186 
        1.83466         1.01047        0.758113         1.10393 
        1.84078         1.00251        0.752203         1.09527 
        1.84692        0.997315        0.746347         1.08856 
        1.85306        0.991935        0.740547         1.08119 
         1.8592        0.982884        0.734818         1.07373 
        1.86533        0.978319        0.729153         1.06783 
        1.87147        0.967815        0.723541         1.06075 
