# k  (h/Mpc)    P(k)  (Mpc/h)^3    P_linear(k)  (Mpc/h)^3     P_NL(k)  ShotnoiseSubtracted = false
     0.00783031         1824.62         1834.59         1833.56 
       0.013688          2422.6         2452.87         2444.46 
       0.019231         2634.14         2649.74         2636.22 
      0.0249154         2602.13         2602.72         2591.68 
      0.0312784         2386.39         2394.45         2386.55 
      0.0375637          2129.3         2141.84         2134.74 
      0.0433917         1927.63         1927.88         1921.62 
      0.0492413         1749.05         1756.68         1750.74 
      0.0555754         1620.77         1620.39         1614.07 
      0.0619321         1498.12         1518.81         1512.16 
       0.067871         1427.58         1436.65         1429.43 
      0.0738098         1345.53         1351.85          1342.4 
      0.0800417         1249.31         1252.21         1243.07 
      0.0862327          1137.8          1143.8         1137.01 
      0.0921407         1033.39         1039.01         1032.94 
      0.0982031         939.685          939.48         936.358 
       0.104506           846.4         852.363         851.711 
       0.110769         781.392         785.554         783.761 
       0.116806         741.797         738.279         736.463 
       0.122832         700.579         703.176         702.086 
       0.129052         673.168         673.255         672.094 
       0.135211         647.515          643.99         642.904 
       0.141259         611.263         611.862         611.646 
       0.147318         570.367         575.372         576.762 
       0.153489         534.594         535.382         535.208 
       0.159709         499.426         495.395         497.316 
       0.165845         457.596         459.489         464.879 
       0.171974         436.862         429.326          434.78 
       0.178125         413.921         405.434         413.304 
       0.184229         391.051         387.263         395.299 
        0.19034           380.6         372.841         380.697 
       0.196428         367.686          360.11         366.266 
       0.202534         349.031          347.12         353.727 
       0.208729         339.154         332.553         338.762 
       0.214876          325.94         316.518         325.125 
       0.220989         303.707         299.635         309.199 
       0.227147         293.642         282.778         292.624 
        0.23329         279.848         267.215         279.254 
       0.239377         268.654         253.793         266.987 
       0.245482         255.569         242.583         254.809 
       0.251667         244.973         233.278         246.658 
       0.257832          240.79          225.46         238.636 
       0.263955         229.977         218.401          231.08 
       0.270079         222.819         211.374         223.666 
        0.27624         213.576         203.932         215.711 
       0.282372         206.867         196.043         208.418 
        0.28843         203.195         187.953         200.577 
       0.294538         193.882         179.849         193.394 
       0.300721         185.035          172.08         186.736 
        0.30691         180.866         165.039         180.105 
       0.313033         173.679         158.913         173.705 
       0.319153         170.552          153.59         169.126 
       0.325316         163.661         148.838         164.894 
        0.33145          159.07         144.477         159.652 
       0.337538         154.777          140.27         155.116 
       0.343633         150.458         136.023          151.22 
       0.349808         145.914         131.615         147.198 
       0.355968          141.59          127.15         143.731 
       0.362074         138.654         122.763         139.163 
       0.368217         134.851         118.507         134.189 
       0.374374         131.968         114.519         130.981 
       0.380519         126.291         110.864         127.132 
       0.386598         123.127         107.573         124.008 
       0.392688         119.853         104.551         121.245 
        0.39888         117.696         101.675         117.899 
       0.405048         115.108         98.9277         115.226 
       0.411186         112.516         96.2409         113.204 
       0.417313         109.584         93.5656         109.778 
       0.423458         106.731         90.8982         107.401 
       0.429607         104.957         88.2621         104.661 
       0.435692         103.037          85.726         102.452 
       0.441815         99.4589         83.2879         100.728 
       0.447964         96.6328         80.9769         98.0266 
       0.454126         94.9224         78.8012         95.5863 
       0.460267         94.1917         76.7691         93.9796 
       0.466387         91.7359          74.852         91.7488 
        0.47254         90.5806         73.0009         90.0952 
       0.478662         87.7285         71.2108         88.1633 
       0.484765         86.1625          69.465         86.1809 
       0.490885         83.9549          67.743         84.9844 
       0.497035         83.0232         66.0422         83.4769 
       0.503198         80.9556         64.3823         81.3934 
       0.509342         78.9948         62.7844          80.053 
       0.515458         78.1183         61.2579         79.0562 
       0.521598         76.2748         59.7906         76.8892 
       0.527764         75.4076         58.3834          75.111 
       0.533884         74.0787         57.0488         73.8936 
           0.54         72.4663         55.7659         72.6279 
       0.546137         70.4687          54.518         71.6745 
       0.552299         69.4451         53.2959         70.0461 
       0.558452         68.1438          52.105         68.7449 
       0.564573         67.7032         50.9496          67.955 
       0.570708         65.7596         49.8212         66.7594 
       0.576825         65.0497          48.727         65.6199 
       0.582926         64.1132         47.6687         64.5852 
       0.589034         62.9633         46.6439         63.7064 
       0.595184         62.1254         45.6492          62.453 
       0.601379         60.4955         44.6838         61.6985 
       0.607522         59.7355         43.7583         60.4152 
       0.613639         58.9331         42.8643         59.5511 
       0.619772         57.9734         41.9917         58.6596 
       0.625918         56.9257         41.1389         58.0056 
       0.632068         56.4727         40.3072         56.8698 
       0.638161         55.3221         39.5047         56.0917 
         0.6443         54.6701          38.718         55.1137 
       0.650464         53.4074         37.9502         54.4263 
       0.656582         53.1228         37.2095         53.7403 
       0.662703         52.5384         36.4892         52.7957 
       0.668861         51.2724         35.7847         52.2222 
       0.675024         50.8328         35.0991         51.3261 
       0.681124         50.3328         34.4394         50.6102 
       0.687237         49.3718         33.7961         49.8341 
       0.693381         48.5962         33.1667         49.1745 
       0.699536         48.3572         32.5526         48.6848 
       0.705665         47.4925         31.9569         48.1392 
       0.711789         46.7153         31.3764         47.2381 
       0.717957         45.9076         30.8061         46.7511 
        0.72409         45.5234         30.2529         46.2672 
       0.730186         45.2942         29.7166         45.5645 
       0.736317         44.4534         29.1904         44.9586 
       0.742472         43.9415         28.6752         44.5677 
       0.748622         43.2574         28.1732         43.8523 
        0.75476         42.3263         27.6847         43.3409 
       0.760888         42.2251         27.2089         42.8766 
       0.767043         41.5366         26.7427         42.4687 
       0.773185         41.2128         26.2887         41.9347 
       0.779291         40.7488          25.848         41.5063 
       0.785407          40.085          25.417         40.9459 
       0.791564          39.939         24.9933         40.4678 
       0.797719         39.1905         24.5795         39.9991 
       0.803834         38.9587         24.1778         39.4857 
       0.809972         38.3188         23.7837          39.172 
       0.816124         37.9394         23.3977         38.6467 
       0.822261         37.5364         23.0213         38.1383 
       0.828378         37.2024         22.6544         37.7166 
       0.834502         36.8444         22.2954         37.5286 
       0.840667         36.4828         21.9418         36.9719 
       0.846816         35.7383         21.5971         36.6423 
       0.852925         35.6918          21.262         36.4827 
       0.859047         35.2788         20.9334         35.8592 
       0.865192         34.8051         20.6108         35.5085 
       0.871341         34.4097         20.2949         35.2382 
       0.877463         34.1209         19.9872         34.8293 
       0.883569         33.9527         19.6866         34.5694 
       0.889708         33.4603         19.3908         34.1154 
       0.895864         33.0694         19.1005         33.7663 
       0.902008         32.6696         18.8167         33.4881 
       0.908149         32.3866          18.539         33.2045 
       0.914301         32.2267         18.2665         32.9831 
       0.920448         31.7686         17.9997         32.5256 
       0.926574         31.4461         17.7394         32.1923 
       0.932687         31.1508         17.4848         31.8598 
       0.938823         30.7973         17.2343         31.6057 
       0.944975         30.5412         16.9882         31.2755 
       0.951105         30.2514         16.7479         30.9373 
       0.957225         30.1044         16.5127         30.7819 
       0.963368         29.6574         16.2813         30.4287 
       0.969511         29.4149         16.0544         30.2003 
       0.975621         29.1443          15.833         29.9041 
       0.981748         28.8174         15.6154         29.7104 
       0.987916           28.65         15.4004         29.3736 
        0.99406         28.3532         15.1904         29.1408 
        1.00019         28.1347         14.9848         28.9047 
        1.00632         27.8879         14.7832         28.6981 
        1.01246         27.7013          14.585         28.5287 
        1.01859         27.3524         14.3909         28.2115 
        1.02471         27.1053         14.2005         27.9402 
        1.03085         27.0173          14.013         27.7387 
        1.03698         26.7592         13.8293         27.5065 
        1.04314         26.4651         13.6482         27.2219 
        1.04929         26.1822         13.4708         27.0627 
        1.05541         26.0992         13.2972         26.8979 
        1.06154         25.9145         13.1264          26.596 
        1.06769         25.6417         12.9583         26.3937 
        1.07382         25.3314         12.7937         26.2359 
        1.07993         25.1286         12.6324         26.0086 
        1.08607         25.0208         12.4733         25.7856 
        1.09222         24.7513         12.3168         25.6166 
        1.09836         24.6241         12.1631         25.3882 
        1.10449         24.3831         12.0123         25.1838 
        1.11063         24.2436         11.8639         25.0509 
        1.11677         24.1266         11.7181         24.8091 
         1.1229          23.884         11.5751         24.6468 
        1.12903         23.7398         11.4343         24.5194 
        1.13518         23.4729         11.2958         24.2808 
        1.14131         23.3614         11.1596         24.0994 
        1.14745         23.0492         11.0259          23.916 
        1.15359         22.8864         10.8943          23.764 
        1.15973         22.7001         10.7648         23.5927 
        1.16584         22.5441          10.638         23.4924 
        1.17197         22.3477         10.5132         23.3128 
        1.17811         22.1971         10.3899         23.0775 
        1.18424         22.0539          10.269         22.9621 
        1.19038         21.9385         10.1497          22.798 
        1.19652         21.7406         10.0324         22.6162 
        1.20267         21.6016         9.91694         22.4592 
        1.20881         21.4072         9.80334           22.39 
        1.21495          21.244         9.69172          22.215 
        1.22108         21.2221         9.58187         22.0501 
         1.2272         21.0394         9.47401         21.8713 
        1.23334         20.8919         9.36757         21.7799 
        1.23949         20.7293         9.26253         21.6123 
        1.24562         20.5403         9.15941         21.4454 
        1.25174         20.4438         9.05803         21.3396 
        1.25789         20.2721         8.95789         21.1877 
        1.26402         20.1987         8.85945         21.0172 
        1.27014         20.0755         8.76275         20.9106 
        1.27628         19.8379         8.66721         20.7763 
        1.28244         19.8431         8.57293         20.7044 
        1.28858         19.6304         8.48019         20.5129 
        1.29471         19.4025         8.38904         20.3826 
        1.30084          19.314         8.29932         20.3308 
        1.30697         19.2902         8.21079         20.1581 
        1.31312         19.0806         8.12344         20.0234 
        1.31925         18.9937         8.03765          19.955 
        1.32537         18.8634          7.9532          19.849 
        1.33151         18.7362         7.86967         19.6897 
        1.33765         18.6325         7.78739         19.5606 
        1.34378         18.5564         7.70647         19.4746 
        1.34992         18.4001         7.62666         19.3542 
        1.35606         18.2442         7.54781         19.2073 
         1.3622         18.1096         7.47023         19.1077 
        1.36833         18.0678         7.39393          19.048 
        1.37445         17.9764         7.31875         18.8973 
        1.38059         17.8672          7.2444         18.7603 
        1.38675          17.724         7.17091         18.6921 
        1.39288         17.5741         7.09873         18.5679 
        1.39901          17.519          7.0276         18.4819 
        1.40515         17.3835         6.95729         18.3891 
         1.4113         17.2776         6.88797         18.2871 
        1.41742          17.206         6.81987         18.1815 
        1.42355         17.0462         6.75258         18.0501 
         1.4297         16.9863         6.68599         17.9919 
        1.43585         16.8971         6.62034         17.9088 
        1.44198         16.8103         6.55583         17.7858 
        1.44809         16.7067         6.49231         17.7125 
        1.45423         16.5793         6.42941         17.6125 
        1.46036         16.5048         6.36746          17.498 
        1.46649          16.394         6.30631         17.4032 
        1.47263         16.3336         6.24592         17.3361 
        1.47877         16.2343         6.18636         17.2648 
        1.48491         16.1365         6.12749         17.1232 
        1.49104         16.0254         6.06951         17.0585 
        1.49718         15.9702         6.01225         16.9791 
        1.50333         15.8676         5.95564         16.8923 
        1.50947         15.7749         5.89988         16.8153 
         1.5156         15.7122         5.84492         16.7268 
        1.52172         15.6171         5.79067         16.6236 
        1.52787         15.5189           5.737         16.5278 
          1.534         15.4665         5.68408         16.4536 
        1.54013         15.3798         5.63189         16.3472 
        1.54627         15.2772         5.58027         16.2666 
        1.55241         15.1622         5.52929         16.2236 
        1.55855         15.1403         5.47902         16.1427 
        1.56467         15.0349         5.42952         16.0496 
         1.5708         14.9839          5.3805         15.9989 
        1.57695         14.8724         5.33202         15.9275 
        1.58308         14.7736         5.28425         15.8372 
        1.58922         14.7237         5.23703         15.7816 
        1.59535          14.616         5.19042         15.6912 
         1.6015         14.5111         5.14431         15.6071 
        1.60764         14.4816         5.09879         15.5395 
        1.61376         14.4311         5.05395          15.466 
        1.61989         14.3042         5.00962         15.4066 
        1.62604         14.2772         4.96572         15.3452 
        1.63218         14.2084         4.92238         15.2628 
        1.63831         14.1098         4.87966         15.1848 
        1.64444         14.0183         4.83744         15.1304 
        1.65059         13.9432         4.79562         15.0407 
        1.65673         13.9017         4.75435         14.9832 
        1.66285          13.826         4.71368         14.9331 
        1.66898          13.765         4.67347         14.8519 
        1.67512         13.6892         4.63366         14.7877 
        1.68127         13.5849         4.59428         14.7083 
         1.6874         13.5584         4.55545         14.6338 
        1.69353         13.4819         4.51709         14.5969 
        1.69967         13.4062         4.47909         14.5347 
        1.70581         13.3396         4.44154         14.4722 
        1.71193         13.3062         4.40457         14.4136 
        1.71806         13.2497         4.36795         14.3374 
        1.72421         13.1395         4.33167          14.288 
        1.73035         13.0862         4.29585         14.2179 
        1.73649         13.0499         4.26044          14.133 
        1.74262         12.9211         4.22547          14.113 
        1.74876         12.9287         4.19087         14.0533 
        1.75489          12.847         4.15673         13.9625 
        1.76101         12.7689         4.12298         13.8965 
        1.76715         12.7325         4.08957         13.8601 
        1.77329         12.6714         4.05648         13.8019 
        1.77943         12.5813         4.02375         13.7381 
        1.78557         12.5682         3.99144         13.6968 
        1.79171         12.4957         3.95947         13.6322 
        1.79785         12.4605         3.92786         13.5603 
        1.80399         12.3459         3.89659         13.5163 
        1.81012         12.3269         3.86571         13.4749 
        1.81625          12.229         3.83518         13.4292 
        1.82239         12.1786         3.80494         13.3742 
        1.82853         12.1276         3.77504         13.3033 
        1.83466         12.0475          3.7455         13.2565 
        1.84078         12.0365          3.7163         13.2189 
        1.84692          11.981         3.68737         13.1424 
        1.85306         11.9292         3.65871         13.0946 
         1.8592         11.8832          3.6304          13.065 
        1.86533         11.8228         3.60242         12.9999 
        1.87147         11.7477         3.57469         12.9412 
        1.87761         11.7132         3.54725         12.8949 
