# k  (h/Mpc)    Pcb(k)  (Mpc/h)^3    Pcb_linear(k) (Mpc/h)^3    Pcb_NL(k) (Mpc/h)^3   ShotnoiseSubtracted = false
     0.00783031         2040.18         2051.16         2050.02 
       0.013688          2707.4         2742.35         2732.83 
       0.019231         2944.18         2962.44         2947.05 
      0.0249154         2909.29         2909.85         2897.07 
      0.0312784         2667.27            2677         2667.49 
      0.0375637         2379.39         2394.57         2385.88 
      0.0433917         2154.53         2155.36         2147.48 
      0.0492413         1954.48         1963.96         1956.42 
      0.0555754         1811.41         1811.58         1803.63 
      0.0619321         1673.15         1698.02         1689.67 
       0.067871          1594.9         1606.17          1597.2 
      0.0738098         1503.41         1511.36         1499.67 
      0.0800417         1395.96         1399.96         1388.65 
      0.0862327         1271.21         1278.76         1270.32 
      0.0921407         1154.63          1161.6            1154 
      0.0982031         1050.25         1050.33         1046.34 
       0.104506         945.744         952.935         951.971 
       0.110769         873.221         878.242         875.875 
       0.116806         829.419          825.39         823.025 
       0.122832         783.039         786.145         784.686 
       0.129052         752.423         752.693          751.17 
       0.135211         724.058         719.975         718.551 
       0.141259         683.284         684.056         683.715 
       0.147318         637.333          643.26         644.876 
       0.153489         597.607         598.553         598.239 
       0.159709         558.769         553.847         556.103 
       0.165845         511.714         513.705         520.212 
       0.171974         489.113         479.982         486.588 
       0.178125         463.663         453.272         462.851 
       0.184229         437.684         432.956          442.72 
        0.19034          426.22         416.832         426.389 
       0.196428          411.88         402.599         410.096 
       0.202534         390.703         388.077         396.136 
       0.208729         379.963         371.792         379.339 
       0.214876          365.27         353.864         364.344 
       0.220989         340.255         334.989          346.65 
       0.227147         329.324         316.144         328.168 
        0.23329         314.062         298.745         313.444 
       0.239377          301.82         283.738         299.824 
       0.245482         287.042         271.205         286.117 
       0.251667         275.203         260.802         277.127 
       0.257832         270.748         252.063          268.14 
       0.263955         258.382          244.17         259.661 
       0.270079         250.367         236.315         251.352 
        0.27624         239.968         227.995         242.421 
       0.282372         232.594         219.174         234.302 
        0.28843         228.763          210.13         225.547 
       0.294538         218.213          201.07          217.62 
       0.300721         208.367         192.384         210.283 
        0.30691         203.855         184.512          202.94 
       0.313033         195.733         177.664         195.752 
       0.319153         192.249         171.712         190.677 
       0.325316         184.696         166.399         186.004 
        0.33145         179.575         161.524          180.05 
       0.337538         174.663          156.82         174.966 
       0.343633         169.745         152.072         170.695 
       0.349808         164.693         147.145         166.231 
       0.355968          159.94         142.153         162.381 
       0.362074         156.662         137.248         157.295 
       0.368217         152.522          132.49         151.706 
       0.374374         149.263         128.031         148.153 
       0.380519         142.853         123.945         143.855 
       0.386598         139.398         120.265         140.358 
       0.392688         135.738         116.887          137.31 
        0.39888         133.297         113.671         133.523 
       0.405048          130.41           110.6         130.621 
       0.411186         127.606         107.596         128.319 
       0.417313         124.318         104.605         124.431 
       0.423458         121.144         101.623         121.786 
       0.429607         119.133         98.6763         118.753 
       0.435692         116.962         95.8409         116.285 
       0.441815         113.029          93.115         114.414 
       0.447964         109.837         90.5313         111.379 
       0.454126         107.874         88.0994         108.613 
       0.460267         107.085          85.827         106.867 
       0.466387         104.372         83.6839         104.368 
        0.47254         103.106         81.6143         102.526 
       0.478662         99.8196          79.613         100.363 
       0.484765         98.1123         77.6612         98.0942 
       0.490885         95.6694          75.736         96.7667 
       0.497035         94.7303         73.8346         95.1132 
       0.503198         92.3526         71.9787         92.8095 
       0.509342         90.1327         70.1925         91.3114 
       0.515458         89.1588         68.4857         90.2276 
       0.521598          87.048         66.8453          87.786 
       0.527764         86.0826         65.2721         85.7521 
       0.533884         84.7361         63.7801         84.4105 
           0.54         82.8279         62.3458          83.019 
       0.546137         80.5996         60.9505         81.9673 
       0.552299         79.4613         59.5843         80.1321 
       0.558452         77.9869         58.2529         78.6592 
       0.564573          77.549         56.9612         77.7742 
       0.570708         75.2845         55.6997         76.4361 
       0.576825         74.5115         54.4764         75.1569 
       0.582926         73.5003         53.2931         73.9784 
       0.589034         72.2081         52.1476         73.0153 
       0.595184         71.2476         51.0354         71.6512 
       0.601379         69.3891         49.9561         70.7877 
       0.607522         68.5376         48.9215         69.3061 
       0.613639         67.6895         47.9218         68.3734 
       0.619772          66.574         46.9463         67.3324 
       0.625918         65.4375         45.9929         66.6553 
       0.632068         64.8787          45.063         65.3522 
       0.638161         63.5737         44.1659         64.5142 
         0.6443          62.896         43.2863         63.3921 
       0.650464         61.4892          42.428         62.5724 
       0.656582          61.167         41.5999         61.8534 
       0.662703         60.4896         40.7946         60.7628 
       0.668861         59.0702         40.0069         60.1229 
       0.675024         58.6328         39.2405         59.1318 
       0.681124         57.9941         38.5029         58.3159 
       0.687237         56.8775         37.7837         57.4562 
       0.693381         56.1003         37.0801         56.7051 
       0.699536          55.781         36.3936          56.198 
       0.705665         54.7945         35.7275         55.5607 
       0.711789         53.9319         35.0785         54.5091 
       0.717957         53.0525         34.4409           54.01 
        0.72409          52.603         33.8224          53.481 
       0.730186         52.3282         33.2229         52.6798 
       0.736317          51.377         32.6346         51.9842 
       0.742472          50.805         32.0586          51.518 
       0.748622         50.0204         31.4974         50.7217 
        0.75476         49.0134         30.9512         50.1661 
       0.760888          48.909         30.4193         49.6345 
       0.767043         48.0992         29.8981          49.187 
       0.773185          47.742         29.3905         48.5899 
       0.779291         47.1767         28.8979          48.103 
       0.785407         46.4244          28.416         47.4601 
       0.791564         46.3121         27.9423         46.9116 
       0.797719          45.493         27.4797         46.4146 
       0.803834         45.1809         27.0306         45.8319 
       0.809972         44.4885           26.59         45.4554 
       0.816124         44.0554         26.1584         44.8876 
       0.822261         43.5783         25.7376         44.2947 
       0.828378         43.2319         25.3274         43.8008 
       0.834502         42.8012          24.926         43.6277 
       0.840667         42.3977         24.5308         42.9904 
       0.846816         41.5618         24.1453         42.6136 
       0.852925         41.5194         23.7707         42.4359 
       0.859047         41.0609         23.4034         41.7204 
       0.865192          40.497         23.0427         41.3315 
       0.871341         40.0631         22.6895          41.023 
       0.877463         39.7387         22.3454          40.569 
       0.883569         39.5506         22.0095         40.2847 
       0.889708          39.015         21.6788         39.7546 
       0.895864         38.5637         21.3541         39.3691 
       0.902008         38.1021         21.0369          39.051 
       0.908149         37.8146         20.7264         38.7385 
       0.914301         37.6066         20.4217         38.4849 
       0.920448         37.1091         20.1235         37.9758 
       0.926574         36.6748         19.8325         37.5821 
       0.932687         36.3816         19.5478         37.2404 
       0.938823         35.9757         19.2678         36.9275 
       0.944975         35.6832         18.9927         36.5437 
       0.951105         35.3524          18.724         36.1968 
       0.957225         35.1911         18.4611         35.9836 
       0.963368         34.6842         18.2024         35.5962 
       0.969511         34.4196         17.9486         35.3289 
       0.975621         34.1029         17.7012         35.0184 
       0.981748          33.734         17.4578         34.7914 
       0.987916         33.5436         17.2175         34.3986 
        0.99406         33.1886         16.9827         34.1452 
        1.00019         32.9482         16.7528          33.865 
        1.00632         32.6644         16.5274         33.6431 
        1.01246         32.4541         16.3059         33.4352 
        1.01859         32.0566         16.0889         33.0858 
        1.02471         31.7784         15.8761         32.7921 
        1.03085          31.681         15.6664         32.5544 
        1.03698         31.3811         15.4611         32.2819 
        1.04314         31.0612         15.2586         31.9535 
        1.04929         30.7411         15.0602         31.7839 
        1.05541         30.6397         14.8662         31.6083 
        1.06154         30.4415         14.6752         31.2429 
        1.06769         30.0832         14.4873         31.0127 
        1.07382         29.7802         14.3033         30.8462 
        1.07993         29.5326          14.123         30.5722 
        1.08607         29.3981          13.945         30.3295 
        1.09222         29.1115           13.77         30.1479 
        1.09836         28.9322         13.5983         29.8908 
        1.10449         28.7027         13.4297         29.6459 
        1.11063         28.5117         13.2638         29.5043 
        1.11677         28.4021         13.1008         29.2277 
         1.1229         28.1123         12.9408         29.0317 
        1.12903         27.9449         12.7834          28.877 
        1.13518         27.6802         12.6286         28.5936 
        1.14131         27.5248         12.4764          28.404 
        1.14745         27.1689         12.3268         28.2154 
        1.15359         26.9754         12.1797         28.0362 
        1.15973         26.7633         12.0349         27.8409 
        1.16584         26.5889         11.8932          27.716 
        1.17197         26.3488         11.7536         27.5106 
        1.17811         26.1904         11.6158         27.2315 
        1.18424         26.0087         11.4807         27.1092 
        1.19038         25.8775         11.3473         26.9365 
        1.19652         25.6524         11.2161         26.7108 
        1.20267          25.497          11.087         26.5442 
        1.20881          25.287           10.96         26.4553 
        1.21495         25.0971         10.8353         26.2691 
        1.22108         25.0767         10.7124         26.0662 
         1.2272         24.8714         10.5919          25.876 
        1.23334         24.6862         10.4729         25.7719 
        1.23949         24.5028         10.3554         25.5648 
        1.24562         24.2746         10.2401         25.3852 
        1.25174         24.1683         10.1268         25.2639 
        1.25789         24.0027         10.0148         25.0879 
        1.26402          23.899         9.90479         24.8974 
        1.27014         23.7455         9.79667         24.7736 
        1.27628         23.4835         9.68986         24.6114 
        1.28244         23.4892         9.58445         24.5407 
        1.28858         23.2287         9.48077         24.3144 
        1.29471         22.9924         9.37886         24.1628 
        1.30084         22.8799         9.27856         24.1061 
        1.30697         22.8411         9.17959         23.9071 
        1.31312         22.6026         9.08193         23.7461 
        1.31925         22.5008         8.98602         23.6715 
        1.32537         22.3456          8.8916         23.5563 
        1.33151         22.2036         8.79821         23.3723 
        1.33765         22.1069         8.70623          23.232 
        1.34378         21.9868         8.61576         23.1273 
        1.34992          21.827         8.52653         22.9901 
        1.35606         21.6441         8.43838         22.8244 
         1.3622         21.4785         8.35165         22.7121 
        1.36833         21.4369         8.26635         22.6354 
        1.37445         21.3369          8.1823         22.4579 
        1.38059          21.197         8.09917         22.3012 
        1.38675          21.024           8.017         22.2234 
        1.39288         20.8723         7.93632         22.0837 
        1.39901         20.8037         7.85679         21.9847 
        1.40515         20.6501         7.77818         21.8798 
         1.4113         20.5378         7.70069         21.7674 
        1.41742         20.4457         7.62455          21.645 
        1.42355         20.2646         7.54932         21.4806 
         1.4297         20.1795         7.47488         21.4178 
        1.43585         20.0799         7.40148         21.3281 
        1.44198         19.9852         7.32936         21.1901 
        1.44809         19.8602         7.25835         21.1027 
        1.45423         19.7234         7.18802         20.9844 
        1.46036         19.6302         7.11876         20.8494 
        1.46649         19.4973         7.05039         20.7386 
        1.47263         19.4318         6.98288         20.6661 
        1.47877           19.33         6.91629         20.5943 
        1.48491         19.2003         6.85047         20.4156 
        1.49104          19.082         6.78565         20.3458 
        1.49718         19.0051         6.72163           20.26 
        1.50333         18.8979         6.65835         20.1571 
        1.50947         18.7984         6.59601         20.0683 
         1.5156         18.7044         6.53457         19.9649 
        1.52172         18.5944         6.47391         19.8411 
        1.52787         18.4789         6.41391          19.735 
          1.534         18.4318         6.35475         19.6501 
        1.54013         18.3286          6.2964         19.5165 
        1.54627         18.2015         6.23869          19.422 
        1.55241         18.0747         6.18169          19.381 
        1.55855         18.0345         6.12549          19.289 
        1.56467         17.9346         6.07016         19.1755 
         1.5708         17.8684         6.01535         19.1181 
        1.57695         17.7375         5.96114         19.0387 
        1.58308          17.617         5.90774         18.9325 
        1.58922         17.5587         5.85495         18.8709 
        1.59535         17.4318         5.80284         18.7699 
         1.6015         17.3149         5.75129         18.6725 
        1.60764         17.2747          5.7004         18.5865 
        1.61376         17.2181         5.65027         18.4942 
        1.61989         17.0771          5.6007         18.4307 
        1.62604         17.0402         5.55163         18.3706 
        1.63218         16.9555         5.50318          18.272 
        1.63831         16.8389         5.45542         18.1722 
        1.64444         16.7466         5.40821         18.1172 
        1.65059         16.6533         5.36146         18.0119 
        1.65673            16.6         5.31532          17.947 
        1.66285         16.5028         5.26985         17.8895 
        1.66898         16.4487          5.2249         17.7877 
        1.67512         16.3669         5.18039         17.7096 
        1.68127         16.2324         5.13636         17.6178 
         1.6874         16.2027         5.09295         17.5317 
        1.69353          16.107         5.05006         17.4886 
        1.69967         16.0166         5.00758         17.4235 
        1.70581         15.9616          4.9656         17.3543 
        1.71193         15.8922         4.92427         17.2808 
        1.71806         15.8365         4.88332         17.1865 
        1.72421         15.7163         4.84277         17.1337 
        1.73035         15.6449         4.80272         17.0521 
        1.73649         15.6049         4.76314         16.9476 
        1.74262         15.4564         4.72404         16.9319 
        1.74876         15.4543         4.68535         16.8601 
        1.75489         15.3667         4.64718         16.7492 
        1.76101         15.2812         4.60945          16.676 
        1.76715         15.2244          4.5721         16.6352 
        1.77329         15.1525         4.53511         16.5626 
        1.77943           15.05         4.49852          16.489 
        1.78557         15.0334         4.46239          16.452 
        1.79171         14.9407         4.42665         16.3751 
        1.79785         14.9126         4.39131         16.2865 
        1.80399          14.781         4.35635         16.2414 
        1.81012         14.7548         4.32183         16.1824 
        1.81625         14.6365          4.2877         16.1263 
        1.82239         14.5787         4.25389         16.0734 
        1.82853         14.5267         4.22046         15.9862 
        1.83466          14.427         4.18743         15.9246 
        1.84078         14.4153         4.15479         15.8816 
        1.84692         14.3571         4.12244         15.7974 
        1.85306         14.2881          4.0904         15.7416 
         1.8592         14.2291         4.05876         15.7037 
        1.86533         14.1456         4.02747         15.6295 
        1.87147         14.0733         3.99647         15.5663 
