# k  (h/Mpc)    Pcb(k)  (Mpc/h)^3    Pcb_linear(k) (Mpc/h)^3    Pcb_NL(k) (Mpc/h)^3   ShotnoiseSubtracted = false
     0.00783031         1457.85         1466.07         1465.19 
       0.013688         1937.64         1960.24         1953.69 
       0.019231         2106.26         2117.62         2107.16 
      0.0249154         2079.38         2080.06         2071.82 
      0.0312784         1908.13         1913.63         1908.19 
      0.0375637         1703.31         1711.75         1707.08 
      0.0433917         1541.24         1540.76         1536.92 
      0.0492413         1399.11         1403.94         1400.38 
      0.0555754         1296.06         1295.01         1291.13 
      0.0619321         1199.68         1213.83         1209.73 
       0.067871          1142.4         1148.17         1143.58 
      0.0738098         1076.48          1080.4         1074.32 
      0.0800417         999.377         1000.77         994.912 
      0.0862327         910.411         914.127         909.804 
      0.0921407          826.78          830.38         826.599 
      0.0982031         751.348         750.837         748.987 
       0.104506         677.146         681.212         680.978 
       0.110769         624.974         627.818         626.848 
       0.116806         592.643         590.037         589.008 
       0.122832         560.154         561.982         561.401 
       0.129052         538.171         538.069         537.412 
       0.135211         517.229          514.68         514.059 
       0.141259         488.607         489.003         488.933 
       0.147318         456.276          459.84         460.827 
       0.153489         427.301         427.881          427.87 
       0.159709         398.535         395.922         397.277 
       0.165845         365.547         367.226         370.842 
       0.171974         348.124         343.119          346.76 
       0.178125         329.537         324.025         329.225 
       0.184229         311.825         309.503         314.828 
        0.19034         303.154         297.976         303.167 
       0.196428         292.704         287.802         291.861 
       0.202534         278.276         277.421         281.762 
       0.208729         269.939         265.779         269.886 
       0.214876         259.235         252.963         258.637 
       0.220989         241.748          239.47         245.762 
       0.227147         233.207         225.998         232.454 
        0.23329         221.952          213.56         221.458 
       0.239377         212.639         202.833         211.512 
       0.245482         202.407         193.873         201.911 
       0.251667          193.94         186.437         195.227 
       0.257832         190.258         180.189         188.842 
       0.263955         182.032         174.548         182.853 
       0.270079         176.327         168.932         176.963 
        0.27624         169.039         162.984         170.665 
       0.282372         163.513         156.679         164.779 
        0.28843         160.156         150.213         158.496 
       0.294538           152.9         143.737         152.611 
       0.300721           145.8         137.528         147.134 
        0.30691         142.235           131.9          141.75 
       0.313033         136.614         127.005         136.682 
       0.319153         134.072          122.75         132.946 
       0.325316         128.408         118.952         129.485 
        0.33145         124.741         115.467         125.423 
       0.337538         121.448         112.104         121.824 
       0.343633         118.109          108.71         118.608 
       0.349808         114.443         105.188         115.347 
       0.355968         110.886         101.619         112.519 
       0.362074          108.49         98.1127         108.847 
       0.368217         105.315          94.712         104.926 
       0.374374         103.046         91.5244         102.301 
       0.380519         98.6234         88.6031         99.2242 
       0.386598         95.9912         85.9727         96.7329 
       0.392688         93.3798         83.5579         94.4637 
        0.39888         91.6631         81.2589         91.8652 
       0.405048         89.5898         79.0636         89.6264 
       0.411186         87.4105         76.9163         88.0295 
       0.417313         85.0984         74.7782         85.3867 
       0.423458         82.7758         72.6463           83.46 
       0.429607         81.3758         70.5397         81.2407 
       0.435692         79.8463         68.5128         79.4642 
       0.441815         76.9551         66.5642         78.0007 
       0.447964         74.7332         64.7172         75.8748 
       0.454126          73.433         62.9787         73.9733 
       0.460267         72.7828         61.3543         72.6211 
       0.466387         70.7873         59.8223         70.8498 
        0.47254         69.8133         58.3428         69.5096 
       0.478662         67.6835         56.9121         67.9721 
       0.484765         66.3779         55.5168         66.4585 
       0.490885          64.605         54.1406         65.4783 
       0.497035         63.6887         52.7814         64.2321 
       0.503198         62.1555         51.4547          62.546 
       0.509342         60.6134         50.1778         61.4669 
       0.515458         59.8947         48.9577         60.6194 
       0.521598         58.4927          47.785         58.9294 
       0.527764         57.7885         46.6604         57.5789 
       0.533884         56.5404         45.5938         56.5808 
           0.54         55.3886         44.5685         55.5373 
       0.546137         53.8071          43.571          54.748 
       0.552299         52.9879         42.5944         53.4693 
       0.558452          51.971         41.6427         52.4593 
       0.564573         51.5261         40.7192         51.8296 
       0.570708         50.1243         39.8174         50.8721 
       0.576825         49.5025          38.943         49.9621 
       0.582926         48.7025         38.0971         49.1622 
       0.589034         47.8044         37.2782         48.4376 
       0.595184         47.1737         36.4832         47.3857 
       0.601379         45.9232         35.7116         46.8155 
       0.607522         45.3074          34.972         45.8554 
       0.613639         44.5881         34.2574         45.1241 
       0.619772         43.8911           33.56         44.4673 
       0.625918         43.0257         32.8785         43.8601 
       0.632068         42.6954         32.2137          43.006 
       0.638161          41.813         31.5724         42.3499 
         0.6443          41.229         30.9436         41.6049 
       0.650464         40.2304           30.33         41.1082 
       0.656582         40.0096         29.7381         40.5058 
       0.662703         39.5594         29.1624         39.7993 
       0.668861          38.557         28.5993         39.3376 
       0.675024         38.1417         28.0514         38.6136 
       0.681124         37.8476         27.5242         38.0621 
       0.687237          37.123           27.01         37.4272 
       0.693381         36.3997         26.5071         36.9126 
       0.699536         36.2545         26.0163         36.4698 
       0.705665         35.5916         25.5401         36.0787 
       0.711789          34.968         25.0762         35.4169 
       0.717957         34.3053         24.6204         34.9615 
        0.72409         34.0299         24.1783         34.5664 
       0.730186         33.8485         23.7497         34.0228 
       0.736317         33.1876         23.3292         33.5568 
       0.742472         32.7856         22.9174         33.2829 
       0.748622         32.2695         22.5162         32.7167 
        0.75476         31.5087         22.1258         32.2797 
       0.760888         31.4024         21.7455         31.9186 
       0.767043         30.8905         21.3729         31.5894 
       0.773185         30.6077         21.0101         31.1737 
       0.779291         30.3198         20.6579          30.831 
       0.785407         29.7945         20.3135         30.4006 
       0.791564         29.6076         19.9748         30.0381 
       0.797719          29.013         19.6441         29.6286 
       0.803834         28.8705         19.3231         29.2354 
       0.809972         28.3508         19.0081         29.0188 
       0.816124         28.0565         18.6996         28.5799 
       0.822261          27.755         18.3988         28.2057 
       0.828378          27.456         18.1056         27.8923 
       0.834502         27.1946         17.8186         27.6869 
       0.840667           26.92         17.5361         27.2757 
       0.846816         26.3525         17.2605           27.02 
       0.852925         26.2732         16.9927         26.8701 
       0.859047         25.9544         16.7301         26.4178 
       0.865192         25.6092         16.4723         26.1336 
       0.871341         25.2813         16.2198         25.9181 
       0.877463         25.0574         15.9739         25.5889 
       0.883569         24.9127         15.7337          25.375 
       0.889708         24.5139         15.4973         25.0497 
       0.895864         24.2247         15.2652         24.7632 
       0.902008         23.9279         15.0384         24.5493 
       0.908149         23.6648         14.8165         24.3105 
       0.914301          23.559         14.5987         24.1364 
       0.920448         23.1975         14.3855         23.7741 
       0.926574         23.0234         14.1774         23.5392 
       0.932687         22.7382         13.9739         23.2367 
       0.938823          22.471         13.7738         23.0703 
       0.944975         22.2758         13.5771         22.8204 
       0.951105         22.0408         13.3851         22.5326 
       0.957225         21.9231         13.1971         22.4437 
       0.963368         21.5981         13.0121         22.1558 
       0.969511         21.3921         12.8308         21.9855 
       0.975621         21.1879         12.6539         21.7255 
       0.981748         20.9253         12.4799         21.5699 
       0.987916         20.7887         12.3081           21.34 
        0.99406         20.5989         12.1403         21.1485 
        1.00019         20.4177         11.9759         20.9819 
        1.00632         20.2315         11.8148         20.7968 
        1.01246         20.0677         11.6564         20.6744 
        1.01859         19.8148         11.5013         20.4206 
        1.02471         19.6036         11.3492          20.194 
        1.03085         19.5404         11.1993         20.0465 
        1.03698         19.3458         11.0525         19.8814 
        1.04314         19.1204         10.9077         19.6683 
        1.04929         18.8858         10.7659         19.5311 
        1.05541         18.8214         10.6272         19.3893 
        1.06154         18.6649         10.4907         19.1861 
        1.06769         18.5212         10.3564         19.0348 
        1.07382         18.2357         10.2248         18.8932 
        1.07993         18.0867         10.0959         18.7298 
        1.08607         18.0111         9.96874          18.543 
        1.09222         17.7873         9.84363          18.402 
        1.09836         17.7325         9.72085         18.2252 
        1.10449         17.4792         9.60032         18.0788 
        1.11063         17.4124         9.48173         17.9622 
        1.11677          17.296         9.36521         17.7912 
         1.1229         17.1326         9.25087         17.6704 
        1.12903         17.0218         9.13837         17.5802 
        1.13518         16.7781         9.02766         17.4146 
        1.14131         16.7019         8.91886         17.2543 
        1.14745         16.4752         8.81194         17.0864 
        1.15359         16.3639         8.70678         16.9805 
        1.15973          16.222          8.6033         16.8529 
        1.16584          16.103         8.50199         16.7797 
        1.17197         15.9642         8.40218          16.632 
        1.17811         15.8335         8.30368         16.4708 
        1.18424         15.7316         8.20707         16.3699 
        1.19038          15.643         8.11173         16.2369 
        1.19652         15.5072         8.01796         16.1202 
        1.20267         15.3892         7.92568         15.9782 
        1.20881         15.2386         7.83489         15.9274 
        1.21495         15.1153         7.74569         15.7883 
        1.22108         15.0749          7.6579         15.6747 
         1.2272         14.9346         7.57169         15.5262 
        1.23334         14.8583         7.48662         15.4489 
        1.23949         14.7156         7.40268          15.342 
        1.24562         14.5888         7.32026         15.2082 
        1.25174         14.5099         7.23924         15.1186 
        1.25789         14.3416          7.1592         15.0064 
        1.26402         14.3051         7.08053         14.8741 
        1.27014         14.2205         7.00325         14.7945 
        1.27628         14.0377         6.92689          14.704 
        1.28244         14.0314         6.85154         14.6301 
        1.28858         13.9068         6.77742         14.4982 
        1.29471         13.7181         6.70457         14.4025 
        1.30084         13.6463         6.63287         14.3466 
        1.30697         13.6255         6.56212         14.2212 
        1.31312          13.477         6.49231         14.1346 
        1.31925         13.4035         6.42375         14.0699 
        1.32537          13.317         6.35625           13.98 
        1.33151         13.2145         6.28949         13.8694 
        1.33765         13.1153         6.22374         13.7626 
        1.34378           13.09         6.15906         13.7017 
        1.34992         12.9588         6.09527         13.6091 
        1.35606         12.8552         6.03226          13.493 
         1.3622         12.7598         5.97026          13.418 
        1.36833          12.703         5.90928         13.3793 
        1.37445         12.6216          5.8492           13.27 
        1.38059         12.5542         5.78977         13.1707 
        1.38675          12.452         5.73103         13.1113 
        1.39288           12.34         5.67335         13.0204 
        1.39901          12.279          5.6165         12.9543 
        1.40515         12.1929         5.56031         12.8781 
         1.4113         12.1045         5.50491         12.7947 
        1.41742          12.054         5.45049         12.7181 
        1.42355         11.9422          5.3967         12.6314 
         1.4297         11.9025         5.34349         12.5776 
        1.43585         11.8304         5.29102         12.5142 
        1.44198         11.7529         5.23947         12.4132 
        1.44809         11.6893          5.1887         12.3667 
        1.45423         11.5886         5.13843         12.2881 
        1.46036         11.5371         5.08891         12.2094 
        1.46649         11.4588         5.04004         12.1455 
        1.47263         11.4026         4.99178         12.0866 
        1.47877         11.3243         4.94418         12.0181 
        1.48491         11.2696         4.89713         11.9348 
        1.49104         11.1715         4.85079         11.8744 
        1.49718         11.1414         4.80503          11.811 
        1.50333         11.0587         4.75978          11.752 
        1.50947         10.9698         4.71522         11.6922 
         1.5156         10.9509          4.6713         11.6257 
        1.52172         10.8804         4.62794         11.5542 
        1.52787         10.8101         4.58505         11.4773 
          1.534         10.7529         4.54276         11.4177 
        1.54013         10.6956         4.50105         11.3559 
        1.54627         10.6286         4.45979         11.3006 
        1.55241         10.5405         4.41904         11.2508 
        1.55855         10.5276         4.37887          11.182 
        1.56467         10.4392         4.33931         11.1298 
         1.5708         10.3961         4.30013         11.0871 
        1.57695         10.3131         4.26138          11.023 
        1.58308         10.2468          4.2232         10.9633 
        1.58922         10.2096         4.18547         10.9165 
        1.59535         10.1422         4.14822         10.8487 
         1.6015         10.0657         4.11137         10.7849 
        1.60764         10.0411         4.07498         10.7404 
        1.61376         10.0011         4.03915         10.6966 
        1.61989          9.8991         4.00372         10.6443 
        1.62604         9.87656         3.96864         10.5862 
        1.63218         9.82524           3.934         10.5329 
        1.63831         9.77184         3.89986         10.4841 
        1.64444         9.69166         3.86612         10.4274 
        1.65059         9.64589         3.83269         10.3707 
        1.65673           9.617         3.79971         10.3245 
        1.66285         9.56371          3.7672          10.281 
        1.66898         9.49991         3.73507         10.2321 
        1.67512         9.44478         3.70325          10.186 
        1.68127         9.38677         3.67178         10.1323 
         1.6874         9.36056         3.64074         10.0789 
        1.69353         9.29688         3.61009         10.0368 
        1.69967         9.25527         3.57972         9.98537 
        1.70581         9.18694         3.54971         9.94299 
        1.71193          9.1753         3.52016         9.90716 
        1.71806         9.12863         3.49089         9.85627 
        1.72421         9.05407          3.4619         9.81062 
        1.73035         9.01252         3.43327         9.75951 
        1.73649         8.97775         3.40498         9.70493 
        1.74262         8.90736         3.37702         9.67203 
        1.74876         8.90032         3.34937           9.634 
        1.75489          8.8434         3.32208          9.5814 
        1.76101         8.78103         3.29511         9.52677 
        1.76715         8.76444         3.26841         9.48916 
        1.77329         8.72105         3.24197         9.45271 
        1.77943         8.65185         3.21581           9.411 
        1.78557         8.63764         3.18998         9.36843 
        1.79171         8.59775         3.16444          9.3222 
        1.79785         8.54814         3.13917         9.27632 
        1.80399         8.47328         3.11418         9.23867 
        1.81012         8.45846          3.0895         9.21328 
        1.81625           8.406         3.06511         9.17922 
        1.82239         8.36428         3.04094         9.13206 
        1.82853         8.32086         3.01704         9.09141 
        1.83466         8.26845         2.99343         9.06132 
        1.84078         8.24738         2.97009         9.02549 
        1.84692          8.2093         2.94697          8.9662 
        1.85306         8.17216         2.92406         8.92754 
         1.8592         8.14611         2.90144         8.90575 
        1.86533         8.10491         2.87907         8.86529 
        1.87147         8.04907         2.85692         8.82147 
