# k  (h/Mpc)    P(k)  (Mpc/h)^3    P_linear(k)  (Mpc/h)^3     P_NL(k)  ShotnoiseSubtracted = false
     0.00783031           13617         13664.2         13645.7 
       0.013688         17770.4           18260         18142.8 
       0.019231         19380.1         19721.2           19519 
      0.0249154         19299.5         19368.8         19113.3 
      0.0312784         17492.3         17817.3         17502.4 
      0.0375637         15488.4         15936.8         15605.1 
      0.0433917         14089.9         14344.2         13974.4 
      0.0492413         12694.5         13070.1         12694.2 
      0.0555754         11761.1         12055.8         11684.3 
      0.0619321         10649.6         11299.9         10917.8 
       0.067871         10203.1         10688.5           10313 
      0.0738098         9669.88         10057.5         9585.24 
      0.0800417         8949.76         9316.15         8858.66 
      0.0862327          8141.6         8509.51         8156.03 
      0.0921407         7431.85         7729.88         7399.67 
      0.0982031         6829.95         6989.39         6778.67 
       0.104506         6136.39         6341.24         6236.36 
       0.110769         5692.39         5844.19         5708.11 
       0.116806         5458.21         5492.47         5359.63 
       0.122832         5146.39         5231.31         5127.72 
       0.129052         4899.05          5008.7         4914.64 
       0.135211         4779.34         4790.97         4690.81 
       0.141259         4465.69         4551.95         4503.69 
       0.147318          4166.4         4280.47         4270.29 
       0.153489         3952.12         3982.97          3934.6 
       0.159709         3805.48         3685.48         3714.22 
       0.165845         3481.12         3418.35         3560.83 
       0.171974         3386.26         3193.95         3364.75 
       0.178125         3287.96          3016.2         3269.26 
       0.184229         3037.84         2881.02         3117.72 
        0.19034         3006.43         2773.73          3017.6 
       0.196428         2934.96         2679.01         2901.61 
       0.202534         2780.75         2582.38         2821.23 
       0.208729         2725.91         2474.01         2688.77 
       0.214876         2620.76         2354.71         2622.26 
       0.220989         2504.21         2229.11         2541.73 
       0.227147          2439.8         2103.71          2454.7 
        0.23329         2347.63         1987.93         2382.84 
       0.239377         2337.09         1888.07         2297.11 
       0.245482         2238.02         1804.67         2206.08 
       0.251667         2158.26         1735.45         2163.39 
       0.257832         2127.61         1677.29         2103.72 
       0.263955         2043.89         1624.77         2052.09 
       0.270079         2005.08          1572.5         1998.66 
        0.27624         1922.02         1517.13         1942.03 
       0.282372          1908.3         1458.44         1908.92 
        0.28843         1871.09         1398.26         1866.96 
       0.294538         1795.91         1337.97         1816.48 
       0.300721         1769.07         1280.17         1765.58 
        0.30691         1724.81         1227.79         1744.46 
       0.313033         1667.98         1182.22         1696.63 
       0.319153         1654.38         1142.62         1652.11 
       0.325316         1635.09         1107.26         1633.56 
        0.33145         1604.21         1074.82          1580.1 
       0.337538         1558.56         1043.52          1559.7 
       0.343633         1526.14         1011.92         1542.67 
       0.349808         1504.44         979.137         1517.79 
       0.355968         1472.22         945.919         1494.98 
       0.362074         1438.05         913.278          1466.2 
       0.368217         1433.84         881.622         1432.83 
       0.374374          1410.9         851.953         1410.03 
       0.380519         1368.67         824.756         1386.77 
       0.386598         1366.95         800.274          1367.4 
       0.392688         1331.71         777.795         1342.25 
        0.39888         1310.51         756.395          1326.4 
       0.405048         1286.76          735.96         1307.83 
       0.411186         1278.47         715.972         1284.41 
       0.417313         1279.18          696.07          1270.2 
       0.423458         1240.98         676.226         1247.81 
       0.429607         1210.44         656.615         1227.34 
       0.435692         1202.82         637.747         1205.55 
       0.441815         1180.81          619.61         1204.66 
       0.447964         1171.88         602.417          1188.7 
       0.454126         1156.07         586.232         1157.77 
       0.460267         1144.12         571.114         1157.86 
       0.466387         1127.55         556.852         1136.18 
        0.47254         1106.54         543.081         1123.28 
       0.478662         1096.64         529.763         1111.14 
       0.484765         1087.13         516.776         1099.56 
       0.490885         1074.23         503.965         1079.95 
       0.497035         1056.98         491.312         1071.81 
       0.503198         1056.17         478.963          1060.7 
       0.509342         1037.17         467.077         1042.54 
       0.515458         1017.06          455.72         1037.63 
       0.521598         1019.05         444.804          1029.2 
       0.527764         994.278         434.336         1019.14 
       0.533884         984.874         424.407         1008.55 
           0.54         977.891         414.863         998.984 
       0.546137          968.38         405.579         988.107 
       0.552299         959.458         396.487         974.938 
       0.558452         952.066         387.628         967.991 
       0.564573         945.922         379.033         958.496 
       0.570708         935.688         370.638         948.198 
       0.576825          917.84         362.498         936.595 
       0.582926         915.661         354.625         930.278 
       0.589034          906.92         347.001         917.252 
       0.595184         895.435         339.601         910.793 
       0.601379          881.67         332.419         903.876 
       0.607522         872.259         325.534         891.433 
       0.613639          870.91         318.883         888.147 
       0.619772          860.96         312.391         885.679 
       0.625918         853.099         306.047         875.595 
       0.632068           845.9          299.86         870.184 
       0.638161         833.914          293.89         855.139 
         0.6443         827.713         288.037         851.306 
       0.650464         822.353         282.325         841.534 
       0.656582         816.455         276.815         835.552 
       0.662703         804.305         271.456         829.657 
       0.668861         797.311         266.215          826.27 
       0.675024         792.378         261.115         822.557 
       0.681124         779.817         256.207         808.575 
       0.687237         780.466         251.421          803.31 
       0.693381         766.018         246.739          795.52 
       0.699536         768.125         242.171         790.275 
       0.705665         757.768         237.739         783.184 
       0.711789         754.737          233.42         776.554 
       0.717957         746.531         229.177         774.954 
        0.72409          740.06         225.062         768.885 
       0.730186         736.278         221.072         761.004 
       0.736317         728.357         217.158         754.529 
       0.742472         718.995         213.325         749.663 
       0.748622         716.607         209.591          743.16 
        0.75476         708.199         205.956         743.229 
       0.760888         704.494         202.417         735.581 
       0.767043         701.834         198.949         726.334 
       0.773185         696.854         195.571         722.248 
       0.779291         688.763         192.293         715.897 
       0.785407          683.35         189.087         711.722 
       0.791564         678.762         185.934         710.718 
       0.797719         668.721         182.856         703.407 
       0.803834         669.099         179.868         699.116 
       0.809972         660.927         176.936          696.04 
       0.816124         656.454         174.064         687.346 
       0.822261         652.222         171.264         683.221 
       0.828378         649.661         168.534         679.046 
       0.834502         639.407         165.863         677.007 
       0.840667         637.867         163.233         672.275 
       0.846816         633.305         160.668         667.379 
       0.852925         629.338         158.176         662.855 
       0.859047         623.715         155.731         656.494 
       0.865192         619.858         153.331         653.123 
       0.871341         613.379         150.981         649.707 
       0.877463         612.347         148.692         645.932 
       0.883569         605.526         146.456         640.755 
       0.889708         598.876         144.255         635.503 
       0.895864         593.488         142.095         631.988 
       0.902008          592.43         139.984         628.452 
       0.908149         586.778         137.918         622.733 
       0.914301         584.415         135.891         618.485 
       0.920448         577.335         133.907         616.293 
       0.926574         574.575          131.97         611.785 
       0.932687         572.303         130.075         607.943 
       0.938823         565.711         128.212         605.452 
       0.944975         561.916         126.382         601.558 
       0.951105         558.266         124.594           595.9 
       0.957225         550.685         122.844         594.697 
       0.963368         551.626         121.123         590.394 
       0.969511         544.119         119.434         586.247 
       0.975621         541.891         117.788         582.651 
       0.981748         538.044         116.168         578.421 
       0.987916         535.099         114.569         577.299 
        0.99406         529.909         113.007         572.729 
        1.00019         525.222         111.477         567.036 
        1.00632         522.041         109.977         564.115 
        1.01246         518.675         108.503           561.2 
        1.01859         514.187         107.059         556.723 
        1.02471         512.493         105.643         554.674 
        1.03085         507.473         104.248         553.477 
        1.03698         506.119         102.881          550.42 
        1.04314         500.002         101.534           546.6 
        1.04929         498.957         100.214         541.838 
        1.05541         492.154         98.9229         537.955 
        1.06154         490.762         97.6518         534.692 
        1.06769         486.494         96.4014         531.173 
        1.07382         481.773         95.1772         528.514 
        1.07993          481.81         93.9773         525.744 
        1.08607         477.558         92.7933         522.174 
        1.09222         473.587         91.6288         518.605 
        1.09836         469.442         90.4858         517.493 
        1.10449         465.287         89.3639         514.763 
        1.11063         463.698           88.26         509.807 
        1.11677         459.023         87.1754         508.327 
         1.1229         456.652         86.1111         504.886 
        1.12903          452.43         85.0638         501.778 
        1.13518         451.094         84.0333         498.733 
        1.14131         448.169         83.0206         496.205 
        1.14745         443.222         82.0253         492.952 
        1.15359         440.483         81.0464         491.152 
        1.15973         438.027         80.0832         488.102 
        1.16584         435.948         79.1401         485.519 
        1.17197         432.673         78.2111         482.671 
        1.17811         427.449         77.2942         479.801 
        1.18424         426.051         76.3949         477.683 
        1.19038         423.572         75.5074         474.917 
        1.19652         418.962         74.6345         471.773 
        1.20267         417.597         73.7756          469.19 
        1.20881         415.357         72.9305         466.163 
        1.21495         409.869         72.1001         463.757 
        1.22108         409.819          71.283         461.138 
         1.2272         404.202         70.4805         458.339 
        1.23334          403.22         69.6887          455.39 
        1.23949         399.226         68.9072         453.221 
        1.24562         399.071         68.1401         451.122 
        1.25174         395.071         67.3859         448.992 
        1.25789          391.92         66.6409         446.531 
        1.26402         389.506         65.9086          444.44 
        1.27014         387.329         65.1892         440.841 
        1.27628         383.545         64.4785         439.749 
        1.28244         381.129         63.7771         437.813 
        1.28858         379.356         63.0871         434.843 
        1.29471         377.617          62.409         432.204 
        1.30084         374.944         61.7416          429.47 
        1.30697         371.091          61.083         427.626 
        1.31312          368.97         60.4332         425.602 
        1.31925         366.355         59.7949         422.851 
        1.32537         364.549         59.1666         420.472 
        1.33151         361.079         58.5452         419.033 
        1.33765         358.415         57.9332         416.939 
        1.34378         356.075         57.3312         413.746 
        1.34992         353.307         56.7374         411.158 
        1.35606         350.854         56.1508         409.308 
         1.3622         349.334         55.5737         407.816 
        1.36833         347.961         55.0061         405.959 
        1.37445         345.671         54.4468         403.159 
        1.38059         341.714         53.8936         401.648 
        1.38675         340.153         53.3469         400.027 
        1.39288         338.192           52.81         396.877 
        1.39901         335.518         52.2808           394.6 
        1.40515         333.809         51.7577         392.262 
         1.4113         331.353          51.242         390.096 
        1.41742         328.232         50.7354         388.652 
        1.42355         327.401         50.2348          386.64 
         1.4297         325.292         49.7395         384.272 
        1.43585          320.87         49.2511         382.947 
        1.44198         320.616         48.7712         380.828 
        1.44809           318.5         48.2986         379.072 
        1.45423         315.623         47.8306         375.877 
        1.46036         314.307         47.3698         374.415 
        1.46649          312.22         46.9148         372.903 
        1.47263         308.943         46.4656         370.282 
        1.47877         308.036         46.0225         368.337 
        1.48491          305.01         45.5845          366.27 
        1.49104         302.621         45.1532         364.363 
        1.49718          300.95         44.7272         363.832 
        1.50333         299.078         44.3061         361.844 
        1.50947         297.963         43.8913         359.581 
         1.5156         294.404         43.4824          357.63 
        1.52172         292.968         43.0788         355.469 
        1.52787         290.815         42.6796          353.82 
          1.534         290.037         42.2859         352.226 
        1.54013         287.411         41.8976         350.407 
        1.54627          285.36         41.5136         348.835 
        1.55241         283.982         41.1343         347.516 
        1.55855         281.574         40.7604         345.932 
        1.56467         279.804         40.3921         343.379 
         1.5708         278.222         40.0274         341.352 
        1.57695         276.631         39.6667         339.788 
        1.58308         275.388         39.3114         337.897 
        1.58922          273.04         38.9601         336.484 
        1.59535         270.269         38.6133         335.226 
         1.6015         269.262         38.2703         333.821 
        1.60764         267.525         37.9317         331.871 
        1.61376         265.523         37.5981         329.912 
        1.61989          264.01         37.2683         328.531 
        1.62604         261.969         36.9417         326.571 
        1.63218         260.281         36.6193         325.035 
        1.63831         258.937         36.3015         323.844 
        1.64444         256.955         35.9874         321.733 
        1.65059         255.903         35.6763         320.372 
        1.65673         253.711         35.3693          319.08 
        1.66285           252.2         35.0667         317.213 
        1.66898           250.7         34.7676         315.165 
        1.67512         248.324         34.4714         314.177 
        1.68127         247.044         34.1784         312.806 
         1.6874         245.428         33.8896         311.121 
        1.69353         244.786         33.6042         309.924 
        1.69967           242.8         33.3215         308.149 
        1.70581         240.512         33.0422          306.57 
        1.71193         239.599         32.7672         305.313 
        1.71806         237.377         32.4947         303.657 
        1.72421         236.213         32.2248         302.073 
        1.73035         234.224         31.9583         300.434 
        1.73649         232.706         31.6949         298.877 
        1.74262         231.629         31.4347         297.903 
        1.74876         229.857         31.1773         296.398 
        1.75489         228.683         30.9233         294.855 
        1.76101         227.313         30.6723         293.799 
        1.76715         225.492         30.4237         292.492 
        1.77329         223.459         30.1776          291.14 
        1.77943         222.293         29.9341         289.733 
        1.78557         221.242         29.6937         288.149 
        1.79171          220.02         29.4559         286.786 
        1.79785         218.191         29.2207         285.463 
        1.80399         217.117         28.9881         283.975 
        1.81012         215.459         28.7584         282.965 
        1.81625         214.081         28.5313         281.715 
        1.82239         212.523         28.3063         280.088 
        1.82853         211.712         28.0839         278.907 
        1.83466         210.014          27.864         277.604 
        1.84078         208.585         27.6468         276.219 
        1.84692          207.49         27.4316         275.306 
        1.85306         205.798         27.2184         273.968 
         1.8592         204.908         27.0078         272.448 
        1.86533         202.926         26.7996         271.451 
        1.87147         202.352         26.5934         270.253 
        1.87761         200.708         26.3892         269.026 
