# k  (h/Mpc)    P(k)  (Mpc/h)^3    P_linear(k)  (Mpc/h)^3     P_NL(k)  ShotnoiseSubtracted = false
     0.00783031         8254.09         8287.36         8280.21 
       0.013688         10838.6         11076.2         11020.6 
       0.019231         11810.9         11963.3         11868.7 
      0.0249154         11732.6           11750         11641.9 
      0.0312784         10681.9         10809.1         10686.8 
      0.0375637         9484.57          9668.4         9541.08 
      0.0433917         8618.27         8702.34         8563.03 
      0.0492413         7782.48         7929.43         7788.49 
      0.0555754         7218.63         7314.11         7173.29 
      0.0619321          6579.4         6855.53          6709.7 
       0.067871         6298.64         6484.65         6339.76 
      0.0738098         5955.08         6101.83         5918.82 
      0.0800417         5523.12         5652.08         5473.65 
      0.0862327         5022.59         5162.71         5025.35 
      0.0921407         4573.58         4689.71         4560.01 
      0.0982031         4186.67         4240.47         4159.84 
       0.104506         3760.35         3847.24         3808.67 
       0.110769         3481.65         3545.68         3490.66 
       0.116806         3332.53          3332.3         3278.95 
       0.122832         3135.72         3173.85         3133.11 
       0.129052         3000.73         3038.79         3000.35 
       0.135211         2914.15          2906.7         2867.71 
       0.141259         2731.02         2761.69         2741.56 
       0.147318          2539.5         2596.98          2596.6 
       0.153489         2399.78         2416.48         2395.52 
       0.159709         2286.61            2236         2248.22 
       0.165845         2085.92         2073.93          2137.1 
       0.171974          2026.4         1937.79         2009.28 
       0.178125          1949.4         1829.95          1938.7 
       0.184229         1809.68         1747.93         1852.23 
        0.19034         1781.49         1682.84         1788.54 
       0.196428         1733.08         1625.37         1715.33 
       0.202534         1633.58         1566.74         1664.07 
       0.208729         1604.64            1501         1587.25 
       0.214876         1543.12         1428.62         1544.48 
       0.220989         1452.85         1352.42         1486.13 
       0.227147         1418.17         1276.33         1422.26 
        0.23329         1363.31         1206.09         1377.35 
       0.239377         1343.38         1145.51         1325.85 
       0.245482         1279.09         1094.91         1267.62 
       0.251667         1232.29         1052.91          1240.1 
       0.257832         1219.52         1017.62         1202.55 
       0.263955          1162.1         985.761         1168.38 
       0.270079         1131.45         954.044          1135.9 
        0.27624         1085.21         920.456         1100.57 
       0.282372         1068.57         884.846         1071.63 
        0.28843         1057.82         848.333         1039.67 
       0.294538         1006.28         811.757         1012.69 
       0.300721         980.659          776.69         985.079 
        0.30691         963.608         744.909         966.077 
       0.313033         925.238          717.26         935.886 
       0.319153         912.535         693.234         913.136 
       0.325316         899.413         671.784         899.024 
        0.33145         882.595         652.101         868.457 
       0.337538         852.932         633.113         851.929 
       0.343633         830.421         613.942         842.108 
       0.349808         812.922          594.05         825.902 
       0.355968         798.619         573.896         810.739 
       0.362074         774.922         554.092         792.238 
       0.368217         771.252         534.887          769.86 
       0.374374         758.726         516.886          756.27 
       0.380519          731.29         500.386         740.299 
       0.386598         724.585         485.533         729.878 
       0.392688          710.54         471.894         713.378 
        0.39888         692.261         458.911         703.186 
       0.405048          681.72         446.513         695.613 
       0.411186          678.74         434.386           678.3 
       0.417313         672.989         422.311         664.816 
       0.423458         652.682         410.272         655.157 
       0.429607         636.251         398.373         641.782 
       0.435692         627.899         386.926         630.982 
       0.441815         618.399         375.922          626.78 
       0.447964         607.211         365.491         615.625 
       0.454126         599.988         355.671         601.188 
       0.460267         590.964         346.499         598.612 
       0.466387         582.952         337.847         587.161 
        0.47254         573.597         329.491         580.489 
       0.478662         562.517         321.412         570.587 
       0.484765         557.759         313.532         560.049 
       0.490885          552.14          305.76         552.924 
       0.497035          542.06         298.083         547.607 
       0.503198         541.256         290.591           539.6 
       0.509342         529.042         283.379         533.178 
       0.515458         520.677         276.489          529.77 
       0.521598         513.619         269.866          520.83 
       0.527764         505.335         263.515         513.935 
       0.533884         503.604         257.491         508.228 
           0.54         496.811         251.701         501.858 
       0.546137         487.502         246.068         496.191 
       0.552299          486.85         240.552         489.514 
       0.558452         479.705         235.177          484.85 
       0.564573         474.213         229.962         480.741 
       0.570708         469.892         224.869         476.423 
       0.576825         461.267         219.931         468.098 
       0.582926         458.065         215.154         463.111 
       0.589034         452.196         210.528         457.396 
       0.595184         448.924         206.039         451.976 
       0.601379         441.512         201.682         449.322 
       0.607522         434.787         197.504         444.295 
       0.613639         432.666         193.469         440.392 
       0.619772          430.69          189.53         438.128 
       0.625918          424.05         185.681          433.17 
       0.632068         419.133         181.927         427.342 
       0.638161         415.072         178.305         423.466 
         0.6443         412.173         174.754         420.389 
       0.650464         406.713         171.289         413.616 
       0.656582         402.966         167.946         410.169 
       0.662703         399.999         164.695         408.672 
       0.668861         394.539         161.515          404.72 
       0.675024         391.768         158.421          400.83 
       0.681124         387.826         155.443         395.579 
       0.687237         384.618         152.539         392.095 
       0.693381          380.71         149.699         388.912 
       0.699536         376.956         146.927         386.322 
       0.705665         373.261         144.238         383.368 
       0.711789         371.762         141.618         379.432 
       0.717957         366.465         139.044         376.976 
        0.72409         363.394         136.547          374.46 
       0.730186         364.808         134.126         371.374 
       0.736317         358.251         131.752         367.263 
       0.742472         354.158         129.426         364.003 
       0.748622         350.438          127.16         360.864 
        0.75476         350.112         124.955         359.885 
       0.760888         346.377         122.808         355.559 
       0.767043         343.266         120.704         353.413 
       0.773185          341.55         118.655         350.774 
       0.779291          336.12         116.666         347.498 
       0.785407         335.147          114.72         345.055 
       0.791564         331.584         112.808         342.787 
       0.797719         326.905          110.94         340.425 
       0.803834         329.345         109.127          337.93 
       0.809972         324.858         107.348         335.451 
       0.816124         321.159         105.606         332.181 
       0.822261         317.724         103.907         330.107 
       0.828378         317.841         102.251         327.383 
       0.834502         312.786         100.631         325.904 
       0.840667         312.569         99.0349         323.594 
       0.846816         307.943         97.4788         321.265 
       0.852925         307.131         95.9665         318.738 
       0.859047         303.817         94.4835          316.63 
       0.865192         303.705         93.0274         314.699 
       0.871341         299.373         91.6015         312.344 
       0.877463         296.552         90.2124         310.644 
       0.883569         295.705          88.856         308.736 
       0.889708         293.223          87.521         306.182 
       0.895864          291.06         86.2103         304.525 
       0.902008          288.78         84.9296          302.05 
       0.908149         286.461          83.676         299.469 
       0.914301         285.021          82.446         298.357 
       0.920448         283.351         81.2422         295.484 
       0.926574         281.101          80.067         293.586 
       0.932687         279.033         78.9178         291.208 
       0.938823         276.783         77.7874         290.771 
       0.944975         275.077         76.6768         289.235 
       0.951105         272.761         75.5921         286.933 
       0.957225         270.595         74.5306         284.869 
       0.963368         269.779          73.486         282.425 
       0.969511         265.511         72.4618         280.884 
       0.975621         264.861         71.4627         280.445 
       0.981748         263.074         70.4802         278.078 
       0.987916         261.726         69.5101         276.796 
        0.99406         259.425         68.5622         275.202 
        1.00019         257.815          67.634         272.705 
        1.00632         257.141         66.7241         270.652 
        1.01246         255.007         65.8297          268.95 
        1.01859         252.124         64.9534         267.953 
        1.02471         250.232         64.0944         266.891 
        1.03085         249.615          63.248          265.15 
        1.03698         247.419          62.419         263.657 
        1.04314         247.015         61.6014         261.941 
        1.04929         245.081         60.8006         260.115 
        1.05541         242.991         60.0174         258.694 
        1.06154         241.454         59.2462         257.352 
        1.06769         239.017         58.4875         256.008 
        1.07382         238.952         57.7448         254.254 
        1.07993         236.361         57.0168         252.925 
        1.08607         234.406         56.2985         251.787 
        1.09222          233.48         55.5919         250.241 
        1.09836         232.177         54.8985         249.192 
        1.10449         229.953         54.2178         247.447 
        1.11063         228.489         53.5481         245.815 
        1.11677         227.654           52.89         244.543 
         1.1229         225.621         52.2443         243.427 
        1.12903         224.993         51.6089         242.166 
        1.13518         223.216         50.9837          240.68 
        1.14131         222.123         50.3693         239.287 
        1.14745         219.643         49.7655         238.008 
        1.15359         217.738         49.1715         236.629 
        1.15973         217.377         48.5871         235.244 
        1.16584         216.487          48.015         233.504 
        1.17197         214.845         47.4513         232.417 
        1.17811         212.808          46.895         231.781 
        1.18424         211.655         46.3494         230.375 
        1.19038         210.335          45.811         229.197 
        1.19652         208.462         45.2814         228.301 
        1.20267         207.771         44.7603          226.58 
        1.20881         206.103         44.2476         225.904 
        1.21495         205.625         43.7438          223.93 
        1.22108         203.873          43.248         223.344 
         1.2272         202.262         42.7611         221.503 
        1.23334         201.503         42.2807         220.768 
        1.23949         200.792         41.8066         219.944 
        1.24562         199.122         41.3412         218.401 
        1.25174         197.514         40.8836         217.602 
        1.25789         196.298         40.4316         216.388 
        1.26402         195.879         39.9873         214.924 
        1.27014         194.529         39.5508         214.606 
        1.27628          192.22         39.1196         213.778 
        1.28244          191.73         38.6941         211.941 
        1.28858         190.491         38.2755         210.834 
        1.29471         189.394         37.8641         209.909 
        1.30084         188.145         37.4591         208.776 
        1.30697         187.046         37.0596         207.782 
        1.31312         185.759         36.6653         206.343 
        1.31925         184.332         36.2781         205.349 
        1.32537         183.883         35.8969         204.638 
        1.33151         182.481         35.5199         203.582 
        1.33765         180.778         35.1485         202.499 
        1.34378         180.535         34.7833         201.333 
        1.34992         179.527          34.423         200.397 
        1.35606         178.218         34.0672         199.145 
         1.3622         177.563          33.717         198.253 
        1.36833         175.484         33.3726         197.294 
        1.37445         175.299         33.0333         196.068 
        1.38059          173.82         32.6977           195.5 
        1.38675         172.875          32.366         194.368 
        1.39288         171.695         32.0403         193.193 
        1.39901         170.622         31.7192         192.593 
        1.40515           169.8         31.4018         191.769 
         1.4113         168.833          31.089         190.703 
        1.41742         167.379         30.7816         189.889 
        1.42355         167.309         30.4779         189.185 
         1.4297         165.725         30.1773         188.034 
        1.43585           164.6          29.881         187.047 
        1.44198         163.139         29.5899         186.178 
        1.44809         162.153         29.3032         185.173 
        1.45423         161.897         29.0192         184.235 
        1.46036         160.654         28.7396         183.392 
        1.46649         159.533         28.4636         182.775 
        1.47263         159.005         28.1911         182.135 
        1.47877         157.662         27.9222         180.973 
        1.48491         156.568         27.6565         180.157 
        1.49104         154.934         27.3948          179.44 
        1.49718         155.025         27.1364         178.048 
        1.50333         154.047         26.8809         177.412 
        1.50947         153.086         26.6292         176.707 
         1.5156         151.979         26.3811         175.811 
        1.52172         151.116         26.1363         175.169 
        1.52787         150.351         25.8941         174.131 
          1.534          149.59         25.6552         173.259 
        1.54013         148.638         25.4196         172.545 
        1.54627         147.605         25.1866         171.814 
        1.55241         146.728         24.9565         171.023 
        1.55855         145.982         24.7297         170.009 
        1.56467         144.809         24.5062         169.177 
         1.5708         144.086          24.285         168.735 
        1.57695         143.419         24.0661         167.949 
        1.58308         142.468         23.8505         166.883 
        1.58922         141.935         23.6374         166.154 
        1.59535         141.193          23.427         165.436 
         1.6015         139.548         23.2189         164.636 
        1.60764         138.884         23.0135         163.904 
        1.61376          138.17         22.8111         163.316 
        1.61989         137.504          22.611         162.622 
        1.62604         136.605         22.4129         161.698 
        1.63218         136.006         22.2172         160.929 
        1.63831         134.862         22.0244         160.339 
        1.64444         134.125         21.8339         159.504 
        1.65059         133.218         21.6451         158.755 
        1.65673         132.713         21.4588         158.065 
        1.66285         132.219         21.2753         157.383 
        1.66898         130.882         21.0938         156.708 
        1.67512          130.45         20.9141         156.058 
        1.68127         129.411         20.7364         155.293 
         1.6874         128.746         20.5611         154.576 
        1.69353         127.851          20.388         154.044 
        1.69967         127.292         20.2164         153.228 
        1.70581         126.764          20.047         152.445 
        1.71193         125.717         19.8801         151.813 
        1.71806         124.956         19.7148         151.125 
        1.72421         124.295         19.5511         150.463 
        1.73035         123.672         19.3894         149.759 
        1.73649          122.71         19.2296         149.069 
        1.74262         122.186         19.0717         148.575 
        1.74876         121.252         18.9155         147.852 
        1.75489         120.749         18.7615         147.028 
        1.76101         120.013         18.6091         146.337 
        1.76715         119.011         18.4583         145.687 
        1.77329         118.646          18.309         145.112 
        1.77943         117.618         18.1613          144.54 
        1.78557         117.161         18.0154         143.907 
        1.79171         116.547         17.8711         143.355 
        1.79785         115.604         17.7284         142.784 
        1.80399          115.23         17.5873         142.062 
        1.81012         114.288          17.448         141.386 
        1.81625         113.828         17.3102         140.812 
        1.82239         113.268         17.1737         140.253 
        1.82853         112.632         17.0387         139.636 
        1.83466         111.617         16.9053         138.943 
        1.84078          111.05         16.7736         138.328 
        1.84692         110.769          16.643         137.946 
        1.85306         109.957         16.5136         137.314 
         1.8592         109.456         16.3859         136.637 
        1.86533         108.596         16.2596         136.186 
        1.87147         107.989         16.1344         135.317 
        1.87761         107.419         16.0106         134.581 
