# k  (h/Mpc)    Pcb(k)  (Mpc/h)^3    Pcb_linear(k) (Mpc/h)^3    Pcb_NL(k) (Mpc/h)^3   ShotnoiseSubtracted = false
     0.00783031         10181.6         10220.3         10209.8 
       0.013688         13338.8         13658.9         13583.6 
       0.019231         14540.1         14752.5         14623.7 
      0.0249154         14457.8         14489.2         14335.3 
      0.0312784         13141.2         13328.8         13147.9 
      0.0375637           11656         11922.1         11732.6 
      0.0433917         10596.7         10730.8         10521.5 
      0.0492413         9560.33         9777.72         9565.36 
      0.0555754         8864.89         9018.95         8807.65 
      0.0619321         8059.04         8453.46         8235.22 
       0.067871         7718.51         7996.12         7780.35 
      0.0738098         7303.45         7524.07         7252.04 
      0.0800417         6768.99         6969.49          6704.7 
      0.0862327         6155.81         6366.04         6161.74 
      0.0921407          5610.2          5782.8         5590.39 
      0.0982031            5143         5228.84          5107.7 
       0.104506         4619.21         4743.95         4684.61 
       0.110769         4279.76         4372.11         4290.61 
       0.116806         4099.86         4108.99         4029.73 
       0.122832          3859.7         3913.61         3852.46 
       0.129052         3686.89         3747.07         3690.08 
       0.135211          3586.9         3584.19         3525.35 
       0.141259         3357.26         3405.37         3375.07 
       0.147318         3124.24         3202.28         3198.41 
       0.153489         2956.86         2979.71         2948.63 
       0.159709         2828.96         2757.16         2773.48 
       0.165845         2582.19         2557.32         2645.18 
       0.171974         2511.54         2389.44         2491.35 
       0.178125         2424.71         2256.47         2410.66 
       0.184229         2245.42         2155.33         2301.46 
        0.19034         2215.25         2075.06         2224.27 
       0.196428         2157.86         2004.21         2134.56 
       0.202534         2036.48         1931.91         2072.69 
       0.208729         2000.15         1850.84         1975.63 
       0.214876          1922.7         1761.59         1925.08 
       0.220989         1820.03         1667.63          1857.4 
       0.227147         1775.49         1573.81         1783.49 
        0.23329         1707.81          1487.2         1729.61 
       0.239377         1690.58         1412.49         1665.85 
       0.245482         1612.66          1350.1         1595.07 
       0.251667         1554.37         1298.32         1562.31 
       0.257832         1536.34         1254.81         1516.25 
       0.263955            1468         1215.52         1475.08 
       0.270079         1433.03         1176.41         1435.41 
        0.27624         1374.38         1134.99         1392.53 
       0.282372         1357.64         1091.08         1360.04 
        0.28843         1339.89         1046.06         1323.45 
       0.294538         1277.74         1000.96         1289.03 
       0.300721         1250.65         957.718         1253.22 
        0.30691         1225.95         918.529         1233.14 
       0.313033         1179.37         884.438         1196.41 
       0.319153         1165.79         854.808         1166.44 
       0.325316         1151.39          828.36         1150.31 
        0.33145         1130.15          804.09         1111.59 
       0.337538         1093.61         780.675         1093.26 
       0.343633         1067.26         757.037         1081.32 
       0.349808         1047.23          732.51         1061.69 
       0.355968         1028.24         707.656          1043.6 
       0.362074         998.545         683.238         1021.28 
       0.368217         995.225         659.556         994.424 
       0.374374         980.486         637.358         977.879 
       0.380519         946.809         617.015         958.589 
       0.386598         940.811         598.697         946.073 
       0.392688         920.812         581.881         924.873 
        0.39888         899.338         565.871         913.547 
       0.405048         885.015         550.584         902.867 
       0.411186         881.546          535.63         882.307 
       0.417313         878.124         520.741           867.9 
       0.423458         850.749         505.895         855.134 
       0.429607         828.224         491.225         838.159 
       0.435692         820.793          477.11         824.266 
       0.441815         807.051          463.54         820.388 
       0.447964         795.885         450.678         806.943 
       0.454126         785.852         438.571         787.445 
       0.460267         775.366         427.259         785.647 
       0.466387         764.974          416.59         770.706 
        0.47254         751.212         406.287         762.416 
       0.478662         740.553         396.325         751.054 
       0.484765         734.384         386.608         739.475 
       0.490885         726.145         377.024         728.527 
       0.497035         713.597         367.559         722.061 
       0.503198         712.528          358.32         712.646 
       0.509342         698.965         349.428         702.797 
       0.515458         685.958         340.931         699.047 
       0.521598         680.724         332.765         689.809 
       0.527764          667.22         324.934         681.651 
       0.533884         663.365         317.506         673.998 
           0.54         656.378         310.366         666.081 
       0.546137         646.582          303.42         658.263 
       0.552299         644.235         296.619         649.605 
       0.558452          636.35         289.991         644.363 
       0.564573         629.294          283.56          638.86 
       0.570708         624.775         277.281         633.289 
       0.576825         612.532         271.191         623.234 
       0.582926         609.789           265.3         617.296 
       0.589034         602.059         259.598         608.573 
       0.595184         596.535         254.061         603.444 
       0.601379         587.344         248.688         598.965 
       0.607522         578.959         243.538         591.862 
       0.613639         577.291         238.561          588.24 
       0.619772         573.979         233.705         586.686 
       0.625918         564.525         228.959         579.086 
       0.632068         560.415          224.33         573.379 
       0.638161         554.039         219.864         565.679 
         0.6443         549.362         215.485         562.902 
       0.650464         543.895         211.212          554.08 
       0.656582         539.327          207.09         549.789 
       0.662703         533.865         203.081         547.786 
       0.668861         528.103          199.16         543.685 
       0.675024         523.903         195.344         539.277 
       0.681124         517.599         191.673         530.969 
       0.687237         515.242         188.092         526.752 
       0.693381         508.317          184.59         522.655 
       0.699536         505.445         181.172          519.31 
       0.705665         500.382         177.856         514.608 
       0.711789         499.379         174.626         510.213 
       0.717957         491.538         171.451         507.763 
        0.72409         487.444         168.373         503.649 
       0.730186         488.384         165.388           499.6 
       0.736317         480.338          162.46         494.342 
       0.742472         475.147         159.592          490.13 
       0.748622         471.654         156.798          486.35 
        0.75476         468.623         154.079         486.164 
       0.760888         465.226         151.431         480.164 
       0.767043         462.153         148.837         476.355 
       0.773185         459.538          146.31         473.007 
       0.779291         452.972         143.857         468.777 
       0.785407         450.752         141.459         466.122 
       0.791564         446.868           139.1         463.501 
       0.797719          440.57         136.798          459.33 
       0.803834          443.11         134.562         456.955 
       0.809972         436.374         132.369         453.965 
       0.816124         432.083          130.22         448.058 
       0.822261         428.628         128.125         445.943 
       0.828378         427.217         126.083         442.868 
       0.834502         420.769         124.085          441.03 
       0.840667         420.696         122.117         437.702 
       0.846816         414.523         120.199         434.836 
       0.852925         414.359         118.334         431.795 
       0.859047         410.391         116.505         428.566 
       0.865192         408.919          114.71         425.778 
       0.871341         403.172         112.952         423.272 
       0.877463         399.993         111.239         420.591 
       0.883569         397.273         109.566         418.001 
       0.889708         393.911          107.92         414.425 
       0.895864         391.096         106.304          412.21 
       0.902008          389.21         104.725         409.572 
       0.908149          386.08         103.179         405.844 
       0.914301         384.033         101.662         403.699 
       0.920448         380.833         100.178         400.419 
       0.926574         378.696         98.7286          398.02 
       0.932687         375.923         97.3116         395.094 
       0.938823         372.061         95.9177         394.508 
       0.944975         370.498         94.5482         391.745 
       0.951105         367.539         93.2107         388.411 
       0.957225         362.749         91.9018         386.604 
       0.963368         363.216         90.6138          383.79 
       0.969511          356.77         89.3508         381.091 
       0.975621         357.251         88.1189         379.673 
       0.981748         354.448         86.9073         376.942 
       0.987916         352.164         85.7112         375.523 
        0.99406         349.052         84.5423         373.115 
        1.00019         345.868         83.3978         369.301 
        1.00632          345.87         82.2758         367.239 
        1.01246          342.87          81.173         364.986 
        1.01859         338.491         80.0924          362.74 
        1.02471         336.435         79.0331         361.523 
        1.03085         335.928         77.9895         359.848 
        1.03698         333.004         76.9672         357.919 
        1.04314         332.176         75.9591         355.323 
        1.04929         329.384         74.9716          352.67 
        1.05541         325.443         74.0059         350.563 
        1.06154         324.166          73.055         348.584 
        1.06769         320.863         72.1195         346.555 
        1.07382         320.437         71.2036         344.388 
        1.07993          317.26         70.3059         342.796 
        1.08607         314.925         69.4202         340.481 
        1.09222          313.22          68.549         338.361 
        1.09836          311.69         67.6939         337.458 
        1.10449         309.379         66.8546         335.135 
        1.11063         306.286         66.0288         332.884 
        1.11677         304.262         65.2174         331.139 
         1.1229         302.824         64.4211         329.612 
        1.12903         301.257         63.6376         327.932 
        1.13518         298.682         62.8667         325.766 
        1.14131         297.997         62.1091         324.054 
        1.14745         293.646         61.3645         322.231 
        1.15359         291.743         60.6322          320.43 
        1.15973         290.849         59.9116          318.58 
        1.16584         289.479          59.206         316.119 
        1.17197          287.02          58.511         314.941 
        1.17811         284.466         57.8251         313.721 
        1.18424         282.815         57.1523         312.156 
        1.19038          281.39         56.4884         310.393 
        1.19652         278.147         55.8353         308.922 
        1.20267         278.002         55.1928         306.283 
        1.20881         275.607         54.5605         305.375 
        1.21495         274.402         53.9393         303.079 
        1.22108         272.368          53.328         301.468 
         1.2272         269.365         52.7276         299.206 
        1.23334         268.406         52.1352         297.965 
        1.23949         267.364         51.5507          297.27 
        1.24562         265.415         50.9767         295.351 
        1.25174         263.388         50.4125         294.073 
        1.25789         261.157         49.8552         292.428 
        1.26402         260.827         49.3073         290.711 
        1.27014         259.211         48.7691         289.287 
        1.27628         256.248         48.2374         288.435 
        1.28244          255.46         47.7127         286.735 
        1.28858         253.579         47.1965         284.912 
        1.29471         252.395         46.6892         282.896 
        1.30084         250.731         46.1899         281.597 
        1.30697         248.185         45.6972         280.598 
        1.31312         246.747         45.2111         278.849 
        1.31925         245.433         44.7336         276.952 
        1.32537         244.476         44.2636         275.822 
        1.33151           242.3         43.7986         274.614 
        1.33765         240.664         43.3408         272.941 
        1.34378         239.086         42.8904         271.666 
        1.34992         237.479         42.4462         269.836 
        1.35606         236.355         42.0074         268.344 
         1.3622         234.848         41.5756         267.181 
        1.36833         232.765          41.151         266.166 
        1.37445         232.171         40.7325         264.126 
        1.38059         230.186         40.3187         263.357 
        1.38675         228.609         39.9097         262.175 
        1.39288         227.437          39.508         259.748 
        1.39901         225.746         39.1121          259.05 
        1.40515         224.639         38.7208         257.936 
         1.4113         222.801          38.335         256.222 
        1.41742         220.947          37.956         255.051 
        1.42355         221.412         37.5815         254.042 
         1.4297         218.944         37.2109         252.664 
        1.43585          217.38         36.8455         251.564 
        1.44198         215.638         36.4865         250.039 
        1.44809         214.656          36.133         248.917 
        1.45423          213.58         35.7829           247.3 
        1.46036         212.094         35.4381         246.096 
        1.46649         210.994         35.0978         245.354 
        1.47263          209.72         34.7617         244.419 
        1.47877         208.316         34.4302         242.707 
        1.48491         206.335         34.1025         241.457 
        1.49104         204.703         33.7799         240.501 
        1.49718         203.716         33.4612         239.107 
        1.50333         202.345         33.1461         238.141 
        1.50947         201.574         32.8358         237.131 
         1.5156         200.209         32.5299          235.71 
        1.52172         198.869          32.228          234.25 
        1.52787         197.728         31.9293          233.34 
          1.534         196.721         31.6348         232.213 
        1.54013         195.395         31.3443         231.099 
        1.54627          194.31          31.057         230.129 
        1.55241             193         30.7733         228.961 
        1.55855         192.251         30.4935         227.667 
        1.56467         190.449          30.218         226.527 
         1.5708         189.106         29.9452         225.588 
        1.57695         188.289         29.6753         224.561 
        1.58308         186.887         29.4095         223.396 
        1.58922         185.918         29.1467         222.298 
        1.59535         184.197         28.8873         221.295 
         1.6015         183.242         28.6307         220.045 
        1.60764           182.4         28.3773         218.844 
        1.61376         180.785         28.1278         218.088 
        1.61989         179.818          27.881         217.242 
        1.62604         178.465         27.6367         216.113 
        1.63218         177.785         27.3955         215.108 
        1.63831          176.86         27.1578         214.135 
        1.64444         175.435         26.9228         212.863 
        1.65059         174.631           26.69         212.055 
        1.65673         173.156         26.4603         211.056 
        1.66285         172.429          26.234         209.891 
        1.66898         171.237         26.0102         208.907 
        1.67512         170.182         25.7886         208.008 
        1.68127         169.019         25.5695          207.09 
         1.6874         168.103         25.3533         206.268 
        1.69353         167.289         25.1399         205.512 
        1.69967          165.89         24.9284         204.246 
        1.70581         165.354         24.7194          203.17 
        1.71193         163.763         24.5137         202.304 
        1.71806          162.78         24.3098         201.086 
        1.72421         162.072         24.1079         200.345 
        1.73035         160.895         23.9086         199.489 
        1.73649         159.651         23.7115         198.368 
        1.74262         158.975         23.5169         197.783 
        1.74876         158.041         23.3243         196.901 
        1.75489         157.021         23.1343         195.828 
        1.76101         155.814         22.9465         194.946 
        1.76715         154.892         22.7605         194.073 
        1.77329         154.172         22.5764         193.072 
        1.77943         152.834         22.3942         192.068 
        1.78557          152.36         22.2144         191.223 
        1.79171         151.331         22.0365          190.52 
        1.79785         150.333         21.8605         189.722 
        1.80399         149.356         21.6865         188.695 
        1.81012         148.041         21.5146         187.833 
        1.81625         147.795         21.3447         187.114 
        1.82239         146.394         21.1764         186.331 
        1.82853         145.871           21.01         185.442 
        1.83466         144.698         20.8456         184.447 
        1.84078         144.049         20.6831         183.549 
        1.84692         143.468          20.522         182.953 
        1.85306         142.068         20.3625         182.093 
         1.8592         141.529          20.205         181.196 
        1.86533         140.184         20.0492         180.677 
        1.87147         139.753         19.8949         179.895 
