# k  (h/Mpc)    Pcb(k)  (Mpc/h)^3    Pcb_linear(k) (Mpc/h)^3    Pcb_NL(k) (Mpc/h)^3   ShotnoiseSubtracted = false
     0.00783031         10551.1         10590.8         10579.6 
       0.013688         13816.9         14153.9         14074.6 
       0.019231         15062.2         15287.1         15151.1 
      0.0249154         14979.5         15014.2         14850.6 
      0.0312784         13611.2         13811.7         13618.2 
      0.0375637         12070.4         12354.1         12151.2 
      0.0433917         10974.4         11119.6         10895.2 
      0.0492413          9899.5           10132         9904.19 
      0.0555754         9178.71          9345.7         9119.23 
      0.0619321         8340.45         8759.72         8525.93 
       0.067871         7988.52         8285.81         8054.84 
      0.0738098         7560.16         7796.65         7505.56 
      0.0800417         7005.91         7221.98         6938.75 
      0.0862327         6371.41         6596.67         6378.08 
      0.0921407         5807.67         5992.29         5786.58 
      0.0982031         5325.46         5418.26         5288.49 
       0.104506         4783.16         4915.81         4852.04 
       0.110769         4432.25         4530.49         4443.51 
       0.116806         4246.49         4257.84         4173.19 
       0.122832         3998.27         4055.39         3989.98 
       0.129052         3817.87         3882.82         3822.01 
       0.135211         3715.53         3714.03         3651.04 
       0.141259         3476.91         3528.74          3496.4 
       0.147318         3236.25         3318.29         3313.68 
       0.153489         3063.72         3087.66         3054.59 
       0.159709         2933.38         2857.04         2874.33 
       0.165845         2677.95         2649.96         2743.01 
       0.171974         2604.99            2476         2584.38 
       0.178125         2516.61         2338.21         2501.94 
       0.184229         2329.65         2233.41         2388.28 
        0.19034         2299.22         2150.24         2308.57 
       0.196428          2240.2         2076.81         2215.82 
       0.202534         2114.91          2001.9         2151.95 
       0.208729         2076.92         1917.89            2051 
       0.214876         1996.41         1825.41         1998.89 
       0.220989         1891.79         1728.04         1929.62 
       0.227147         1845.23         1630.83         1854.01 
        0.23329         1775.02         1541.08         1798.33 
       0.239377         1758.45         1463.66          1732.2 
       0.245482         1678.06         1399.01         1659.12 
       0.251667          1617.5         1345.35         1625.34 
       0.257832         1598.32         1300.26         1577.71 
       0.263955         1528.08         1259.55         1535.29 
       0.270079         1492.48         1219.03          1494.2 
        0.27624         1431.32         1176.11         1449.88 
       0.282372         1414.73         1130.61         1416.96 
        0.28843         1395.33         1083.95         1379.63 
       0.294538         1331.38         1037.22         1343.66 
       0.300721         1304.15         992.413         1306.22 
        0.30691         1277.72         951.804         1285.99 
       0.313033         1229.74         916.479         1248.04 
       0.319153         1216.08         885.775         1216.61 
       0.325316         1201.33         858.369         1200.16 
        0.33145         1179.15         833.219         1159.86 
       0.337538         1141.46         808.956         1141.24 
       0.343633         1114.42         784.462         1128.83 
       0.349808         1094.04         759.046         1108.58 
       0.355968         1073.95         733.292         1089.94 
       0.362074         1043.32         707.989         1066.92 
       0.368217         1040.03         683.449         1039.28 
       0.374374         1024.72         660.448         1022.15 
       0.380519         989.934         639.367         1002.27 
       0.386598         984.222         620.386          989.24 
       0.392688         962.787         602.961         967.297 
        0.39888         940.985         586.371         955.653 
       0.405048         925.826         570.529         944.252 
       0.411186         922.109         555.034         923.232 
       0.417313         919.218         539.605         908.764 
       0.423458         890.523         524.222         895.205 
       0.429607         866.886          509.02         877.665 
       0.435692         859.641         494.394         863.085 
       0.441815         845.007         480.332          859.39 
       0.447964         833.948         467.004         845.559 
       0.454126         823.264         454.459         824.938 
       0.460267         812.665         442.737         823.348 
       0.466387         801.705         431.682         807.705 
        0.47254         787.078         421.006         799.023 
       0.478662         776.571         410.682         787.496 
       0.484765          770.08         400.614         775.824 
       0.490885         761.295         390.682         764.015 
       0.497035         748.338         380.874          757.33 
       0.503198         747.137         371.301         747.712 
       0.509342         733.286         362.087         737.042 
       0.515458         719.393         353.282         733.232 
       0.521598         714.716          344.82         724.072 
       0.527764         700.098         336.705         715.665 
       0.533884         695.682         329.008         707.643 
           0.54         688.711         321.609         699.496 
       0.546137         678.925         314.412         691.265 
       0.552299         676.058         307.365         682.132 
       0.558452         668.141         300.496         676.775 
       0.564573         660.928         293.833         670.951 
       0.570708         656.164         287.325         665.016 
       0.576825         643.196         281.015         654.716 
       0.582926         640.599         274.911         648.668 
       0.589034         632.611         269.002         639.354 
       0.595184         626.551         263.265         634.256 
       0.601379         616.927         257.697         629.459 
       0.607522         608.314          252.36         621.841 
       0.613639         606.767         247.204          618.33 
       0.619772         603.027         242.171         616.814 
       0.625918          593.22         237.253         608.787 
       0.632068         589.153         232.457         603.185 
       0.638161         582.193         227.829         594.623 
         0.6443         577.265         223.291         591.872 
       0.650464         571.825         218.864         582.725 
       0.656582         567.112         214.592         578.333 
       0.662703         561.019         210.438         576.044 
       0.668861          555.23         206.375         572.004 
       0.675024         550.871         202.421         567.558 
       0.681124         543.896         198.616         558.654 
       0.687237         541.878         194.906         554.288 
       0.693381         534.204         191.277         549.934 
       0.699536         531.717         187.735         546.382 
       0.705665         526.303         184.299         541.387 
       0.711789         525.234         180.952         536.804 
       0.717957         517.068         177.662         534.449 
        0.72409         512.758         174.472         530.031 
       0.730186          513.31         171.379         525.726 
       0.736317         505.187         168.345         520.281 
       0.742472         499.654         165.374         515.921 
       0.748622         496.304         162.479         511.965 
        0.75476         492.687         159.661         511.926 
       0.760888         489.362         156.917         505.588 
       0.767043         486.339         154.228          501.33 
       0.773185         483.456          151.61         497.929 
       0.779291         476.771         149.069           493.5 
       0.785407         474.189         146.583         490.748 
       0.791564         470.315          144.14         488.186 
       0.797719         463.716         141.753         483.606 
       0.803834         466.035         139.437         481.191 
       0.809972         459.042         137.164         478.174 
       0.816124          454.65         134.937         471.756 
       0.822261         451.283         132.767         469.576 
       0.828378         449.508         130.651         466.412 
       0.834502         442.766          128.58         464.574 
       0.840667         442.654         126.541         461.044 
       0.846816         436.397         124.553         457.981 
       0.852925         436.155         122.621         454.863 
       0.859047         432.068         120.726         451.346 
       0.865192         430.231         118.865         448.393 
       0.871341         424.255         117.043         445.889 
       0.877463          421.27         115.268         443.028 
       0.883569         418.041         113.535         440.241 
       0.889708         414.442         111.829         436.496 
       0.895864         411.402         110.155         434.191 
       0.902008          409.63         108.518         431.483 
       0.908149          406.32         106.917          427.54 
       0.914301         404.263         105.345         425.139 
       0.920448         400.554         103.807         421.908 
       0.926574         398.457         102.305         419.278 
       0.932687         395.756         100.837         416.342 
       0.938823         391.456         99.3924         415.657 
       0.944975          389.84         97.9733         412.624 
       0.951105          386.78         96.5874         409.051 
       0.957225         381.478          95.231         407.388 
       0.963368         382.163         93.8964         404.485 
       0.969511         375.412         92.5876         401.576 
       0.975621         375.933         91.3111         399.886 
       0.981748         372.983         90.0557         397.032 
       0.987916          370.52         88.8162         395.673 
        0.99406         367.257          87.605         393.048 
        1.00019         363.752          86.419         388.945 
        1.00632         363.764         85.2563         386.885 
        1.01246          360.58         84.1136         384.512 
        1.01859         356.086         82.9939         382.008 
        1.02471         354.003         81.8962         380.801 
        1.03085         353.324         80.8148         379.152 
        1.03698         350.342         79.7555         377.084 
        1.04314         349.271         78.7109         374.377 
        1.04929         346.431         77.6876         371.538 
        1.05541         342.088         76.6869         369.273 
        1.06154         340.951         75.7015         367.172 
        1.06769         337.454         74.7321         364.964 
        1.07382         336.754         73.7831         362.763 
        1.07993         333.748         72.8529         361.072 
        1.08607         331.318          71.935         358.539 
        1.09222         329.306         71.0323         356.316 
        1.09836         327.671         70.1462         355.387 
        1.10449         325.358         69.2765          352.94 
        1.11063         322.094         68.4208           350.5 
        1.11677         319.651         67.5799         348.775 
         1.1229         318.461         66.7549         347.096 
        1.12903         316.586          65.943         345.314 
        1.13518         313.912         65.1441         343.035 
        1.14131         313.171         64.3591         341.202 
        1.14745         308.606         63.5875         339.307 
        1.15359         306.654         62.8286         337.444 
        1.15973         305.655         62.0819         335.507 
        1.16584         304.142         61.3509         333.016 
        1.17197         301.582         60.6306         331.684 
        1.17811         298.834         59.9199         330.345 
        1.18424         297.129         59.2227         328.759 
        1.19038         295.641         58.5347         326.878 
        1.19652         292.234         57.8581         325.252 
        1.20267          292.08         57.1922         322.523 
        1.20881         289.681         56.5371         321.466 
        1.21495         288.098         55.8933         319.126 
        1.22108         286.074         55.2598         317.364 
         1.2272         282.742         54.6378         315.047 
        1.23334         281.809         54.0239         313.645 
        1.23949         280.619         53.4181         312.876 
        1.24562         278.756         52.8234         310.959 
        1.25174         276.507         52.2388          309.52 
        1.25789         274.216         51.6612         307.822 
        1.26402         273.795         51.0936         306.115 
        1.27014         272.101         50.5359         304.398 
        1.27628         269.051         49.9849         303.568 
        1.28244         268.124         49.4411         301.924 
        1.28858          266.22         48.9063         299.927 
        1.29471          264.96         48.3806         297.714 
        1.30084         263.272         47.8632         296.392 
        1.30697         260.505         47.3527         295.363 
        1.31312         258.914         46.8489         293.587 
        1.31925         257.631         46.3541          291.54 
        1.32537         256.491         45.8671          290.21 
        1.33151         254.197         45.3853         289.004 
        1.33765         252.524         44.9108         287.293 
        1.34378           250.8         44.4442         285.917 
        1.34992         248.975         43.9839         283.932 
        1.35606         247.882         43.5291         282.399 
         1.3622         246.279         43.0817         281.197 
        1.36833          244.29         42.6417          280.16 
        1.37445         243.476         42.2081         277.947 
        1.38059         241.359         41.7793         277.168 
        1.38675         239.757         41.3555         275.999 
        1.39288         238.583         40.9393         273.329 
        1.39901         236.611          40.529          272.54 
        1.40515         235.488         40.1235         271.326 
         1.4113          233.55         39.7238         269.528 
        1.41742         231.571          39.331         268.337 
        1.42355         232.051         38.9429         267.165 
         1.4297         229.481         38.5589         265.756 
        1.43585         227.662         38.1803         264.702 
        1.44198         226.067         37.8083         263.001 
        1.44809         225.049          37.442         261.924 
        1.45423         223.769         37.0792         260.073 
        1.46036         222.253         36.7219         258.817 
        1.46649         221.161         36.3692         258.046 
        1.47263         219.609          36.021          256.96 
        1.47877         218.156         35.6775         255.171 
        1.48491         216.181         35.3379         253.854 
        1.49104         214.596         35.0036         252.816 
        1.49718         213.432         34.6733         251.476 
        1.50333         211.849         34.3469         250.477 
        1.50947         211.178         34.0253         249.385 
         1.5156         209.655         33.7084         247.841 
        1.52172         208.236         33.3955         246.219 
        1.52787         206.964          33.086         245.314 
          1.534         206.126         32.7808         244.183 
        1.54013         204.568         32.4798          242.95 
        1.54627          203.45         32.1821          241.91 
        1.55241         202.028         31.8881         240.731 
        1.55855         201.295         31.5982         239.384 
        1.56467         199.464         31.3127         238.134 
         1.5708         198.031           31.03         237.062 
        1.57695         197.123         30.7504          236.01 
        1.58308         195.662         30.4749         234.828 
        1.58922         194.559         30.2026         233.629 
        1.59535         192.751         29.9338          232.61 
         1.6015         191.884         29.6678         231.299 
        1.60764         190.918         29.4053         229.987 
        1.61376         189.139         29.1467          229.17 
        1.61989         188.068         28.8911         228.252 
        1.62604          186.72         28.6379         227.073 
        1.63218         185.955          28.388         226.057 
        1.63831         185.141         28.1416         225.061 
        1.64444         183.559         27.8981         223.703 
        1.65059         182.789         27.6569         222.819 
        1.65673         181.131         27.4189         221.771 
        1.66285         180.342         27.1843         220.532 
        1.66898         179.189         26.9525         219.444 
        1.67512         177.943         26.7229         218.514 
        1.68127         176.832         26.4958         217.537 
         1.6874         175.814         26.2718         216.645 
        1.69353         174.935         26.0506         215.878 
        1.69967         173.499         25.8314         214.552 
        1.70581         172.906         25.6149         213.418 
        1.71193         171.294         25.4017         212.509 
        1.71806         170.253         25.1905         211.226 
        1.72421          169.46         24.9813         210.446 
        1.73035         168.186         24.7747         209.526 
        1.73649          166.95         24.5705          208.32 
        1.74262         166.179         24.3688         207.717 
        1.74876         165.241         24.1692         206.795 
        1.75489         164.207         23.9723         205.665 
        1.76101         162.881         23.7777         204.751 
        1.76715         161.944          23.585         203.854 
        1.77329         161.052         23.3942         202.803 
        1.77943         159.764         23.2055         201.732 
        1.78557         159.238         23.0191         200.825 
        1.79171         158.161         22.8348         200.054 
        1.79785         157.192         22.6524         199.197 
        1.80399         156.099         22.4721         198.141 
        1.81012         154.791          22.294         197.282 
        1.81625          154.43          22.118         196.504 
        1.82239         152.946         21.9436         195.617 
        1.82853         152.398         21.7711         194.686 
        1.83466         151.155         21.6007         193.654 
        1.84078         150.527         21.4323         192.706 
        1.84692         149.763         21.2655         192.079 
        1.85306         148.357         21.1002         191.156 
         1.8592          147.87          20.937         190.197 
        1.86533         146.397         20.7756         189.678 
        1.87147         145.917         20.6157         188.908 
