# k  (h/Mpc)    P(k)  (Mpc/h)^3    P_linear(k)  (Mpc/h)^3     P_NL(k)  ShotnoiseSubtracted = false
     0.00783031         820.637         825.559         824.987 
       0.013688         1092.99         1103.96         1100.41 
       0.019231         1187.43         1192.64         1187.09 
      0.0249154         1170.75         1171.52         1167.42 
      0.0312784         1075.59          1077.8         1075.55 
      0.0375637         960.951         964.109         962.418 
      0.0433917         868.606         867.804         866.728 
      0.0492413         789.241         790.747         789.843 
      0.0555754         730.516         729.399         728.298 
      0.0619321         678.143         683.677         682.476 
       0.067871          644.78         646.697         645.191 
      0.0738098         607.275         608.524         606.456 
      0.0800417         563.574         563.676           561.7 
      0.0862327         513.703         514.874         513.442 
      0.0921407         466.455         467.705         466.543 
      0.0982031         423.377         422.903         422.419 
       0.104506         382.066         383.687         383.767 
       0.110769         352.452         353.614         353.454 
       0.116806         333.437         332.334         332.097 
       0.122832         315.695         316.532         316.416 
       0.129052          303.15         303.064         302.885 
       0.135211          290.89          289.89         289.697 
       0.141259         275.167         275.428         275.409 
       0.147318         257.394         259.002         259.348 
       0.153489         240.644         241.001         241.042 
       0.159709         223.776         223.001          223.51 
       0.165845         205.749         206.838         208.111 
       0.171974         194.943          193.26         194.534 
       0.178125         184.263         182.505          184.29 
       0.184229         174.863         174.325         176.156 
        0.19034         169.613         167.833         169.605 
       0.196428         163.618         162.103         163.476 
       0.202534         156.064         156.255         157.712 
       0.208729          150.86         149.698         151.089 
       0.214876          144.61          142.48         144.396 
       0.220989         135.195          134.88         137.006 
       0.227147         129.747         127.292         129.466 
        0.23329         123.159         120.287          122.95 
       0.239377         117.562         114.245         117.189 
       0.245482         112.063         109.198         111.922 
       0.251667         107.336          105.01         107.983 
       0.257832         104.846         101.491         104.414 
       0.263955          100.69         98.3128         101.103 
       0.270079         97.4872         95.1496         97.8346 
        0.27624         93.5203         91.7998         94.3583 
       0.282372         90.2502         88.2483         90.9683 
        0.28843         87.8517         84.6068         87.4029 
       0.294538         83.9409         80.9589         83.9459 
       0.300721         79.9852         77.4616          80.696 
        0.30691         77.6838         74.2921         77.5965 
       0.313033         74.6489         71.5346         74.7865 
       0.319153         73.0979         69.1383         72.5825 
       0.325316         69.8857         66.9991         70.5523 
        0.33145         67.8602          65.036         68.3934 
       0.337538         66.0998         63.1423         66.4089 
       0.343633         64.2994         61.2304         64.5219 
       0.349808         62.2101         59.2464          62.634 
       0.355968         60.1329         57.2365         60.9345 
       0.362074         58.6489         55.2614          58.869 
       0.368217         56.7639          53.346         56.7465 
       0.374374         55.4717         51.5507         55.1747 
       0.380519          53.159         49.9051         53.4558 
       0.386598         51.5989         48.4237         52.0483 
       0.392688          50.143         47.0635         50.7114 
        0.39888          49.123         45.7687         49.3328 
       0.405048         47.9507         44.5321         48.0137 
       0.411186         46.6619         43.3227         47.0583 
       0.417313         45.4173         42.1184         45.6874 
       0.423458         44.0495         40.9177         44.5606 
       0.429607         43.2318         39.7311         43.3072 
       0.435692         42.3124         38.5894         42.2741 
       0.441815         40.7831         37.4919          41.353 
       0.447964         39.5535         36.4516         40.2085 
       0.454126         38.8548         35.4723         39.1782 
       0.460267         38.3642         34.5575         38.3522 
       0.466387         37.2524         33.6945         37.3813 
        0.47254         36.6231         32.8612         36.5944 
       0.478662         35.5882         32.0554         35.7426 
       0.484765         34.8187         31.2696         34.9478 
       0.490885          33.859         30.4944         34.3449 
       0.497035         33.1448         29.7288         33.6084 
       0.503198         32.4211         28.9816         32.6787 
       0.509342         31.5634         28.2623         32.0439 
       0.515458         31.1117         27.5752         31.4973 
       0.521598         30.3932         26.9146         30.6228 
       0.527764          29.968         26.2812         29.9359 
       0.533884         29.1251         25.6805         29.3547 
           0.54         28.5764         25.1029          28.747 
       0.546137         27.7575         24.5412         28.2613 
       0.552299         27.2964         23.9911         27.5733 
       0.558452         26.7451          23.455         27.0378 
       0.564573         26.3805         22.9349         26.6684 
       0.570708         25.7536          22.427         26.1252 
       0.576825         25.3214         21.9344         25.6083 
       0.582926         24.8225          21.458         25.1693 
       0.589034         24.3685         20.9967         24.7495 
       0.595184         24.0326         20.5489         24.1361 
       0.601379         23.3912         20.1144         23.8295 
       0.607522         23.0172         19.6978          23.348 
       0.613639          22.539         19.2953         22.9179 
       0.619772         22.2156         18.9025         22.5785 
       0.625918         21.7442         18.5186         22.1609 
       0.632068          21.519         18.1442          21.736 
       0.638161         21.0704          17.783         21.3546 
         0.6443         20.7026         17.4288         20.9617 
       0.650464         20.2002         17.0832          20.695 
       0.656582         20.0615         16.7498         20.3326 
       0.662703         19.7816         16.4256         19.9739 
       0.668861         19.2535         16.1084         19.7073 
       0.675024         18.9827         15.7998         19.3177 
       0.681124         18.8934         15.5028         19.0141 
       0.687237         18.4942         15.2133         18.6519 
       0.693381         18.0418           14.93         18.3564 
       0.699536         17.9498         14.6535         18.0821 
       0.705665         17.6141         14.3853          17.899 
       0.711789          17.266          14.124         17.5766 
       0.717957         16.9192         13.8673         17.2729 
        0.72409         16.7699         13.6183         17.0442 
       0.730186         16.6332         13.3769         16.7517 
       0.736317         16.2817           13.14         16.4989 
       0.742472         16.0733         12.9081         16.3595 
       0.748622         15.8239         12.6821         16.0733 
        0.75476         15.4321         12.4622         15.8015 
       0.760888         15.3302          12.248         15.6012 
       0.767043         15.0262         12.0382         15.4163 
       0.773185         14.8486         11.8338         15.2067 
       0.779291         14.7623         11.6355         15.0009 
       0.785407         14.4681         11.4415         14.7699 
       0.791564         14.3089         11.2507          14.578 
       0.797719         14.0293         11.0644         14.3308 
       0.803834         13.9195         10.8836         14.1402 
       0.809972         13.6638         10.7062         14.0274 
       0.816124          13.501         10.5324         13.7823 
       0.822261         13.3341          10.363         13.5974 
       0.828378         13.1408         10.1979         13.4279 
       0.834502         12.9975         10.0362         13.2628 
       0.840667         12.8673         9.87709         13.0793 
       0.846816         12.6093          9.7219         12.9414 
       0.852925         12.4895         9.57107         12.8074 
       0.859047         12.3342         9.42316         12.6287 
       0.865192         12.1605         9.27795         12.4621 
       0.871341         11.9817         9.13573         12.3302 
       0.877463         11.8525         8.99719         12.1507 
       0.883569         11.7382         8.86191          12.031 
       0.889708         11.5589         8.72877         11.8784 
       0.895864         11.4147         8.59805         11.7167 
       0.902008          11.255         8.47032         11.5989 
       0.908149         11.1131         8.34529         11.4614 
       0.914301          11.031         8.22262         11.3449 
       0.920448         10.8679         8.10256         11.1659 
       0.926574         10.8032         7.98536         11.0609 
       0.932687         10.6252         7.87075         10.8762 
       0.938823         10.4726           7.758           10.81 
       0.944975         10.3843         7.64724         10.6622 
       0.951105         10.2294         7.53906         10.5255 
       0.957225         10.1619         7.43319         10.4658 
       0.963368         10.0426         7.32902         10.3223 
       0.969511         9.92437         7.22686          10.224 
       0.975621         9.80197         7.12722         10.0674 
       0.981748         9.64353         7.02923         9.97077 
       0.987916         9.56557         6.93249         9.88897 
        0.99406         9.50515         6.83795         9.78186 
        1.00019         9.39923         6.74538         9.69882 
        1.00632         9.30355         6.65462         9.58125 
        1.01246         9.18165         6.56543         9.49686 
        1.01859         9.07431         6.47803         9.37172 
        1.02471         8.94667         6.39235         9.25299 
        1.03085          8.9123         6.30794         9.16711 
        1.03698         8.80952         6.22526         9.08853 
        1.04314          8.7184         6.14372         8.98781 
        1.04929         8.58675         6.06385          8.9046 
        1.05541         8.52249         5.98574         8.82566 
        1.06154          8.4453         5.90883         8.73565 
        1.06769         8.40416         5.83316         8.66162 
        1.07382         8.25359         5.75909          8.5735 
        1.07993         8.16186         5.68648         8.48556 
        1.08607         8.11984         5.61484         8.38887 
        1.09222         8.00523         5.54438         8.30274 
        1.09836         7.99314         5.47522         8.22235 
        1.10449         7.82476         5.40733         8.14897 
        1.11063           7.797         5.34054          8.0691 
        1.11677         7.72327         5.27491         8.00171 
         1.1229         7.64805         5.21051         7.93609 
        1.12903         7.59261         5.14714          7.8731 
        1.13518         7.47279         5.08478          7.8017 
        1.14131         7.40922          5.0235         7.71014 
        1.14745         7.32002         4.96328         7.61913 
        1.15359         7.26752         4.90405         7.57337 
        1.15973         7.19373         4.84576         7.50583 
        1.16584         7.13491          4.7887         7.45613 
        1.17197         7.06101         4.73248         7.37283 
        1.17811         6.99247         4.67701          7.3029 
        1.18424         6.93086         4.62259         7.23899 
        1.19038         6.87355         4.56889         7.17818 
        1.19652         6.82421         4.51607         7.13161 
        1.20267          6.7617          4.4641         7.03881 
        1.20881         6.69142         4.41296         6.99957 
        1.21495         6.63383         4.36272         6.94419 
        1.22108         6.58308         4.31327         6.88559 
         1.2272          6.5025         4.26471         6.80703 
        1.23334         6.49109          4.2168         6.76105 
        1.23949         6.41013         4.16952         6.72163 
        1.24562         6.35476          4.1231         6.66102 
        1.25174         6.31178         4.07746         6.59175 
        1.25789          6.2226         4.03238         6.53816 
        1.26402         6.18477         3.98807         6.47235 
        1.27014         6.13966         3.94454         6.43536 
        1.27628         6.06998         3.90154         6.39766 
        1.28244         6.04403         3.85909         6.33881 
        1.28858         6.00166         3.81735         6.28083 
        1.29471          5.9161         3.77632         6.22943 
        1.30084         5.86997         3.73593         6.19307 
        1.30697         5.83714         3.69608         6.14083 
        1.31312         5.78806         3.65676         6.09502 
        1.31925         5.73821         3.61814         6.05301 
        1.32537         5.70074         3.58012          6.0071 
        1.33151         5.64386         3.54252         5.95991 
        1.33765         5.60107         3.50549         5.90447 
        1.34378         5.57226         3.46906         5.87342 
        1.34992         5.52222         3.43313         5.82486 
        1.35606         5.47903         3.39764         5.76178 
         1.3622         5.43592         3.36272          5.7279 
        1.36833         5.38153         3.32837         5.70601 
        1.37445         5.33332         3.29453         5.65634 
        1.38059         5.30038         3.26106         5.61177 
        1.38675         5.25619         3.22798         5.56301 
        1.39288         5.22742         3.19549         5.53296 
        1.39901         5.16884         3.16347         5.49645 
        1.40515         5.13543         3.13181         5.44987 
         1.4113          5.1012         3.10061         5.41234 
        1.41742         5.05716         3.06996          5.3824 
        1.42355         5.01674         3.03966         5.32446 
         1.4297         4.99163         3.00969         5.30567 
        1.43585         4.95184         2.98014          5.2763 
        1.44198         4.91243          2.9511         5.21696 
        1.44809           4.886         2.92251         5.19943 
        1.45423         4.84716         2.89419         5.15064 
        1.46036         4.81293          2.8663         5.11653 
        1.46649         4.76273         2.83878         5.09178 
        1.47263         4.74759          2.8116         5.05706 
        1.47877          4.7106         2.78478         5.01565 
        1.48491         4.67441         2.75828         4.98434 
        1.49104         4.63964         2.73218         4.94727 
        1.49718         4.61177         2.70641         4.91821 
        1.50333         4.57485         2.68092         4.88872 
        1.50947         4.53382         2.65582         4.85483 
         1.5156         4.51505         2.63108          4.8235 
        1.52172         4.48477         2.60666         4.79438 
        1.52787         4.45261         2.58251         4.75574 
          1.534         4.42093         2.55868         4.72387 
        1.54013         4.38684         2.53519         4.69526 
        1.54627         4.35899         2.51195         4.66649 
        1.55241          4.3229           2.489         4.63586 
        1.55855         4.30324         2.46638         4.59931 
        1.56467         4.27233         2.44409         4.58067 
         1.5708         4.24134         2.42203         4.55007 
        1.57695         4.20173          2.4002         4.51771 
        1.58308         4.17444          2.3787         4.50049 
        1.58922         4.16367         2.35744         4.47087 
        1.59535         4.12691         2.33646         4.43959 
         1.6015         4.09251         2.31571         4.40918 
        1.60764         4.07424         2.29521         4.38733 
        1.61376         4.04411         2.27503           4.368 
        1.61989         4.01171         2.25507          4.3363 
        1.62604         3.98758         2.23531         4.30924 
        1.63218         3.96985          2.2158         4.28651 
        1.63831         3.95084         2.19658         4.25983 
        1.64444         3.91836         2.17757         4.23018 
        1.65059         3.89922         2.15874         4.20662 
        1.65673         3.86588         2.14016         4.18412 
        1.66285         3.84189         2.12186           4.159 
        1.66898         3.81902         2.10376         4.13225 
        1.67512         3.78902         2.08584          4.1097 
        1.68127         3.76243         2.06811         4.09169 
         1.6874         3.75676         2.05063         4.06968 
        1.69353         3.71229         2.03336         4.03777 
        1.69967         3.69869         2.01626          4.0127 
        1.70581         3.68082         1.99936         3.99775 
        1.71193         3.64692         1.98271         3.98161 
        1.71806         3.62782         1.96623         3.95155 
        1.72421          3.6086          1.9499         3.92642 
        1.73035         3.58214         1.93377           3.906 
        1.73649         3.56812         1.91783         3.88403 
        1.74262         3.54456         1.90209         3.86008 
        1.74876         3.52162         1.88652         3.84341 
        1.75489         3.50408         1.87115         3.82402 
        1.76101         3.47655         1.85596          3.7959 
        1.76715         3.46507         1.84091         3.77286 
        1.77329         3.43735         1.82602         3.75615 
        1.77943         3.41848         1.81129         3.73853 
        1.78557         3.39805         1.79674         3.71655 
        1.79171         3.38539         1.78235         3.69585 
        1.79785         3.36022         1.76812         3.67638 
        1.80399         3.34011         1.75405         3.65622 
        1.81012          3.3179         1.74015         3.63904 
        1.81625         3.29812          1.7264         3.62022 
        1.82239         3.28182         1.71279         3.60197 
        1.82853         3.26124         1.69933          3.5915 
        1.83466         3.23553         1.68603         3.57546 
        1.84078         3.22108         1.67289         3.55027 
        1.84692         3.20378         1.65986          3.5251 
        1.85306         3.18798         1.64696         3.50641 
         1.8592         3.17056         1.63422         3.49178 
        1.86533         3.15032         1.62162         3.47588 
        1.87147         3.13511         1.60914         3.46067 
        1.87761         3.11997         1.59679         3.44477 
