# k  (h/Mpc)    Pcb(k)  (Mpc/h)^3    Pcb_linear(k) (Mpc/h)^3    Pcb_NL(k) (Mpc/h)^3   ShotnoiseSubtracted = false
     0.00783031         2826.96         2841.41          2839.9 
       0.013688         3744.77         3798.62         3784.76 
       0.019231         4074.02         4103.34         4080.65 
      0.0249154         4029.81         4030.44         4010.36 
      0.0312784         3690.54         3707.87         3691.14 
      0.0375637         3289.68         3316.67          3300.6 
      0.0433917         2981.02         2985.32         2969.71 
      0.0492413         2702.05         2720.21         2704.95 
      0.0555754         2505.35         2509.15         2493.38 
      0.0619321         2308.55         2351.85         2335.36 
       0.067871         2202.87         2224.63         2207.42 
      0.0738098         2077.44         2093.31         2071.14 
      0.0800417         1929.07         1939.03         1917.46 
      0.0862327         1756.02         1771.15         1754.92 
      0.0921407          1595.4         1608.88         1593.95 
      0.0982031         1452.72         1454.76         1446.49 
       0.104506          1307.1         1319.86         1317.17 
       0.110769         1207.43         1216.41         1211.13 
       0.116806         1148.89         1143.21         1138.06 
       0.122832         1083.37         1088.85         1085.43 
       0.129052         1040.91         1042.52         1039.09 
       0.135211         1003.19         997.201         993.962 
       0.141259         945.556         947.452         946.307 
       0.147318         880.929         890.947         893.304 
       0.153489          827.19         829.025         827.825 
       0.159709         775.809         767.105         770.642 
       0.165845         709.404         711.506         722.813 
       0.171974         680.736         664.798          676.43 
       0.178125           646.6         627.803         644.939 
       0.184229         608.537         599.666             617 
        0.19034          593.72         577.333         594.374 
       0.196428         574.375         557.619         571.065 
       0.202534         543.605         537.506         552.029 
       0.208729         530.123          514.95         528.366 
       0.214876         510.015         490.119         508.839 
       0.220989         474.905         463.976         484.926 
       0.227147         461.102         437.874         459.636 
        0.23329         440.696         413.776         440.322 
       0.239377         425.168         392.991         421.875 
       0.245482         404.051         375.632         402.469 
       0.251667         387.736         361.224         390.617 
       0.257832         382.517         349.119         378.078 
       0.263955         364.182         338.188         366.216 
       0.270079         353.003         327.307         354.641 
        0.27624         338.322         315.784         342.129 
       0.282372         328.778         303.566         331.033 
        0.28843         324.613          291.04         318.943 
       0.294538         309.301         278.492         308.471 
       0.300721          296.06         266.461         298.795 
        0.30691         290.416         255.558         289.026 
       0.313033         278.739         246.073          278.91 
       0.319153         273.868         237.829         272.032 
       0.325316         264.358         230.471         265.851 
        0.33145          257.44         223.718         257.144 
       0.337538         250.002         217.204         250.098 
       0.343633         242.725         210.627         244.662 
       0.349808         235.874         203.803         238.633 
       0.355968         229.731         196.888         233.344 
       0.362074         224.973         190.094         226.429 
       0.368217         219.911         183.505         218.616 
       0.374374         215.191         177.329         213.784 
       0.380519         206.114         171.669         207.896 
       0.386598         201.757         166.573          203.07 
       0.392688         196.749         161.894         198.981 
        0.39888         193.028          157.44         193.604 
       0.405048         189.119         153.187          190.05 
       0.411186         185.796         149.026         186.476 
       0.417313         181.259         144.884         180.902 
       0.423458         176.798         140.753         177.275 
       0.429607         173.791         136.671         173.251 
       0.435692         170.558         132.744         169.804 
       0.441815         165.687         128.969         167.461 
       0.447964         161.081          125.39         163.248 
       0.454126         158.169         122.022         159.216 
       0.460267         157.038         118.874         157.049 
       0.466387         153.485         115.906         153.566 
        0.47254         151.769          113.04         151.006 
       0.478662         146.841         110.268         148.003 
       0.484765           144.7         107.564         144.607 
       0.490885         141.586         104.898         142.783 
       0.497035          140.56         102.264          140.65 
       0.503198          137.17         99.6939         137.634 
       0.509342         133.855           97.22         135.541 
       0.515458          132.52         94.8559         134.153 
       0.521598         129.362         92.5839         130.741 
       0.527764         128.011          90.405          127.77 
       0.533884         126.815         88.3384         126.002 
           0.54          123.68         86.3518         124.161 
       0.546137         120.656         84.4193         122.745 
       0.552299         119.176         82.5271         120.136 
       0.558452          117.02          80.683         118.046 
       0.564573         116.566         78.8939         116.827 
       0.570708         113.172         77.1466         114.943 
       0.576825         112.048         75.4524         113.089 
       0.582926         110.782         73.8135          111.37 
       0.589034         108.995         72.2268          110.13 
       0.595184         107.647         70.6865         108.372 
       0.601379         104.892         69.1915         107.168 
       0.607522         103.642         67.7585         104.923 
       0.613639         102.624         66.3739         103.778 
       0.619772         100.971         65.0228         102.117 
       0.625918         99.6563         63.7023         101.357 
       0.632068         98.4053         62.4144         99.4458 
       0.638161         96.5878         61.1718         98.4718 
         0.6443         95.9196         59.9536         96.7945 
       0.650464         94.0227         58.7647         95.3412 
       0.656582         93.5769         57.6178         94.5858 
       0.662703         92.4772         56.5024         92.9488 
       0.668861         90.4864         55.4115          92.056 
       0.675024         90.1758         54.3499          90.725 
       0.681124         88.9021         53.3283         89.5589 
       0.687237         87.1383         52.3322         88.3645 
       0.693381         86.5326         51.3577         87.2569 
       0.699536         85.7352         50.4068         86.7091 
       0.705665         84.2856         49.4842         85.7702 
       0.711789         83.1314         48.5854         84.0966 
       0.717957         82.0711         47.7022         83.5538 
        0.72409         81.4303         46.8457         82.9336 
       0.730186         80.8656         46.0152         81.7453 
       0.736317         79.4423         45.2005          80.663 
       0.742472         78.6606         44.4027         79.9008 
       0.748622         77.4818         43.6254         78.8452 
        0.75476         76.4021         42.8689         78.0877 
       0.760888         76.2121         42.1321         77.2437 
       0.767043         74.8818         41.4102         76.7136 
       0.773185          74.271         40.7072         75.9433 
       0.779291         73.3818         40.0249         75.1775 
       0.785407         72.2752         39.3575         74.1889 
       0.791564         72.3043         38.7014         73.3909 
       0.797719         71.3443         38.0606         72.8006 
       0.803834         70.5927         37.4386         71.9408 
       0.809972         69.8537         36.8284         71.3394 
       0.816124          69.169         36.2306         70.6744 
       0.822261         68.3173         35.6478         69.7454 
       0.828378         67.9815         35.0797         68.9256 
       0.834502         67.1364         34.5237         68.8057 
       0.840667          66.659         33.9763         67.9439 
       0.846816         65.6096         33.4424         67.3451 
       0.852925         65.4137         32.9236         66.9949 
       0.859047          64.892         32.4148         66.0052 
       0.865192         63.8891         31.9153         65.5043 
       0.871341         63.2875         31.4261         64.9808 
       0.877463         62.8788         30.9495         64.4002 
       0.883569         62.5896         30.4842         64.0045 
       0.889708         61.9271         30.0261         63.2345 
       0.895864         61.2688         29.5765         62.7138 
       0.902008         60.6146         29.1371          62.223 
       0.908149         60.2271          28.707         61.7572 
       0.914301         59.8173          28.285         61.3838 
       0.920448         59.2865         27.8721         60.6917 
       0.926574         58.3087         27.4689         60.0393 
       0.932687         58.0294         27.0746         59.7187 
       0.938823         57.4569         26.6868         59.1363 
       0.944975         56.9723         26.3058         58.5558 
       0.951105         56.4502         25.9337         58.2665 
       0.957225         56.2876         25.5695         57.7855 
       0.963368         55.6091         25.2111         57.2258 
       0.969511         55.2052         24.8597          56.817 
       0.975621         54.7319          24.517         56.5163 
       0.981748         54.1621         24.1799          56.062 
       0.987916         53.8281         23.8471         55.5522 
        0.99406         53.3486         23.5219         55.2155 
        1.00019         52.9672         23.2035         54.7802 
        1.00632         52.5645         22.8913         54.4408 
        1.01246         52.1931         22.5845         54.0345 
        1.01859         51.7201         22.2838         53.5932 
        1.02471         51.2012         21.9891         53.2363 
        1.03085         51.0725         21.6987         52.8405 
        1.03698         50.6183         21.4143         52.4185 
        1.04314         50.2797         21.1338         51.9329 
        1.04929         49.7461         20.8591         51.7317 
        1.05541         49.5199         20.5904         51.5128 
        1.06154         49.2929         20.3258         50.9165 
        1.06769         48.5849         20.0655         50.5964 
        1.07382            48.4         19.8107         50.3608 
        1.07993         47.9623          19.561         49.8844 
        1.08607         47.6661         19.3145         49.5535 
        1.09222         47.3624         19.0721         49.3313 
        1.09836         46.9754         18.8342         48.9768 
        1.10449         46.7313         18.6007          48.549 
        1.11063         46.3425         18.3709         48.3446 
        1.11677         46.2906         18.1452         47.9952 
         1.1229         45.7947         17.9236         47.6488 
        1.12903         45.5813         17.7057          47.374 
        1.13518         45.3487         17.4912         46.9487 
        1.14131         44.9089         17.2804         46.7432 
        1.14745         44.4204         17.0732         46.4733 
        1.15359         44.1057         16.8695         46.2484 
        1.15973         43.8513          16.669         45.9392 
        1.16584         43.6054         16.4727         45.6622 
        1.17197         43.1272         16.2793          45.327 
        1.17811         42.9507         16.0885          44.918 
        1.18424         42.5267         15.9013         44.7418 
        1.19038         42.3722         15.7165         44.5921 
        1.19652         42.1261         15.5349         44.1783 
        1.20267         41.8717         15.3561         44.0053 
        1.20881         41.6094         15.1802         43.7634 
        1.21495         41.3216         15.0073         43.5741 
        1.22108         41.2262         14.8372         43.1979 
         1.2272         40.9571         14.6702         42.9998 
        1.23334         40.6599         14.5054         42.7975 
        1.23949         40.3675         14.3427         42.4417 
        1.24562         39.9858         14.1831         42.2296 
        1.25174         39.8196         14.0261          42.032 
        1.25789         39.7091          13.871         41.7453 
        1.26402         39.4541         13.7186         41.5034 
        1.27014         39.1579         13.5689         41.2983 
        1.27628         38.8121         13.4209         41.0235 
        1.28244         38.7671         13.2749         40.9479 
        1.28858         38.3896         13.1313         40.6117 
        1.29471         38.2056         12.9902         40.3916 
        1.30084         37.9118         12.8512         40.2195 
        1.30697          37.766         12.7142         39.9292 
        1.31312         37.4471         12.5789         39.7363 
        1.31925         37.2379         12.4461          39.573 
        1.32537         37.0298         12.3153         39.3991 
        1.33151         36.8011         12.1859          39.161 
        1.33765         36.7036         12.0585         38.9757 
        1.34378         36.4646         11.9332         38.7719 
        1.34992         36.2699         11.8096         38.5738 
        1.35606         36.0459         11.6876         38.3847 
         1.3622         35.7245         11.5674         38.2091 
        1.36833         35.5876         11.4493         38.0287 
        1.37445         35.4315         11.3329         37.7544 
        1.38059         35.1941         11.2177          37.561 
        1.38675         34.8882         11.1039         37.4309 
        1.39288         34.7985         10.9922         37.2373 
        1.39901         34.5757          10.882         37.0712 
        1.40515         34.4288         10.7731         36.8779 
         1.4113         34.3194         10.6658         36.7094 
        1.41742         34.1165         10.5604         36.5542 
        1.42355          33.834         10.4562         36.2453 
         1.4297         33.6302         10.3531         36.1173 
        1.43585         33.4415         10.2514         36.0255 
        1.44198         33.3122         10.1515          35.812 
        1.44809          33.137         10.0531         35.6609 
        1.45423         32.9743         9.95574         35.4485 
        1.46036         32.7821         9.85981         35.2588 
        1.46649         32.5804         9.76512         35.1084 
        1.47263         32.4184         9.67162         34.9966 
        1.47877         32.3278         9.57939         34.8995 
        1.48491         32.1476         9.48822         34.5998 
        1.49104         31.9092         9.39845         34.4959 
        1.49718         31.7738         9.30978         34.3537 
        1.50333         31.6735         9.22212         34.2167 
        1.50947         31.4665         9.13578         34.0973 
         1.5156         31.2971         9.05068         33.9195 
        1.52172         31.0714         8.96667            33.7 
        1.52787          30.906         8.88357         33.5474 
          1.534         30.8397         8.80163         33.4226 
        1.54013         30.6927         8.72081         33.2188 
        1.54627         30.4591         8.64087         33.0636 
        1.55241         30.3387         8.56193         32.9847 
        1.55855         30.1837          8.4841         32.8551 
        1.56467         30.1176         8.40745         32.6815 
         1.5708         29.9472         8.33154         32.5667 
        1.57695         29.7489         8.25646         32.4193 
        1.58308         29.5203         8.18249         32.2536 
        1.58922          29.396         8.10938         32.1797 
        1.59535         29.2596          8.0372         32.0567 
         1.6015         29.1209          7.9658         31.8765 
        1.60764         29.0155         7.89531         31.7107 
        1.61376         28.9004         7.82588         31.5788 
        1.61989         28.6786         7.75723         31.4542 
        1.62604         28.5798         7.68926         31.4037 
        1.63218         28.4254         7.62216         31.2846 
        1.63831         28.3074         7.55601         31.0846 
        1.64444          28.171         7.49063         30.9719 
        1.65059         28.0133         7.42587         30.8415 
        1.65673         27.9309         7.36196         30.7318 
        1.66285         27.7324         7.29898         30.6231 
        1.66898          27.652         7.23673         30.4792 
        1.67512         27.5695         7.17508          30.332 
        1.68127         27.3712          7.1141         30.1995 
         1.6874         27.2749         7.05397         30.0708 
        1.69353         27.0968         6.99458         29.9372 
        1.69967         26.9783         6.93573         29.8409 
        1.70581         26.8647         6.87759         29.7655 
        1.71193         26.6301         6.82034         29.6568 
        1.71806         26.6106         6.76363         29.4884 
        1.72421         26.5241         6.70746         29.3899 
        1.73035         26.3364         6.65199         29.2789 
        1.73649         26.2128         6.59717         29.1262 
        1.74262         26.0792         6.54301         29.0361 
        1.74876         25.9599         6.48943         28.9312 
        1.75489         25.8788         6.43656         28.8035 
        1.76101         25.7587         6.38431         28.6854 
        1.76715         25.6202         6.33257         28.5786 
        1.77329         25.5125         6.28134         28.4502 
        1.77943         25.3845         6.23066         28.3551 
        1.78557         25.3005         6.18062         28.3165 
        1.79171         25.1378         6.13112         28.1939 
        1.79785         25.0461         6.08216          28.051 
        1.80399         24.9425         6.03375         27.9855 
        1.81012         24.8447         5.98594         27.8485 
        1.81625         24.6688         5.93866         27.7315 
        1.82239         24.5869         5.89184         27.6737 
        1.82853         24.4973         5.84554          27.557 
        1.83466         24.3512         5.79978           27.44 
        1.84078         24.2872         5.75457         27.3532 
        1.84692         24.2085         5.70977         27.2638 
        1.85306         24.0696          5.6654         27.1466 
         1.8592         23.9727         5.62157         27.0306 
        1.86533         23.7702         5.57823         26.9495 
        1.87147         23.7054          5.5353         26.8708 
