# k  (h/Mpc)    P(k)  (Mpc/h)^3    P_linear(k)  (Mpc/h)^3     P_NL(k)  ShotnoiseSubtracted = false
     0.00783031         961.685         967.363         966.719 
       0.013688         1280.18         1293.54         1289.35 
       0.019231            1391         1397.44         1390.84 
      0.0249154         1371.91         1372.68         1367.74 
      0.0312784         1260.04         1262.86         1260.01 
      0.0375637         1125.51         1129.65         1127.42 
      0.0433917         1017.63         1016.81         1015.26 
      0.0492413         924.428         926.517         925.171 
      0.0555754         855.833         854.635         853.062 
      0.0619321           793.9         801.062         799.368 
       0.067871         755.144         757.732         755.687 
      0.0738098         711.305         713.006         710.229 
      0.0800417         660.189         660.457         657.797 
      0.0862327         601.676         603.275         601.338 
      0.0921407         546.347         548.007         546.397 
      0.0982031         496.043         495.513         494.806 
       0.104506         447.484         449.565          449.61 
       0.110769          412.85         414.327         414.046 
       0.116806          390.81         389.394         389.034 
       0.122832         369.853         370.879         370.697 
       0.129052         355.212         355.098         354.848 
       0.135211         340.978         339.662         339.406 
       0.141259         322.439         322.717         322.701 
       0.147318         301.482         303.471         303.946 
       0.153489          281.98         282.379         282.427 
       0.159709         262.398         261.289         261.965 
       0.165845         241.107         242.351          244.06 
       0.171974         228.739         226.441         228.154 
       0.178125         216.276          213.84          216.25 
       0.184229         205.103         204.256         206.728 
        0.19034          199.06         196.649         199.048 
       0.196428         192.061         189.935         191.801 
       0.202534          183.04         183.083         185.067 
       0.208729         177.091           175.4         177.291 
       0.214876          169.84         166.943         169.546 
       0.220989         158.667         158.038         160.925 
       0.227147         152.479         149.147           152.1 
        0.23329          144.83         140.939         144.554 
       0.239377         138.365          133.86         137.849 
       0.245482         131.845         127.947         131.639 
       0.251667         126.288         123.039         127.071 
       0.257832         123.495         118.916         122.882 
       0.263955         118.487         115.192         118.984 
       0.270079         114.732         111.486         115.139 
        0.27624          110.04         107.561         111.045 
       0.282372          106.25           103.4         107.096 
        0.28843          103.59         99.1333         102.927 
       0.294538         98.9615         94.8591         98.9145 
       0.300721         94.3041         90.7613         95.1523 
        0.30691         91.6966         87.0476         91.5367 
       0.313033         88.1036         83.8166         88.2324 
       0.319153          86.332         81.0089         85.6804 
       0.325316         82.5506         78.5024         83.3234 
        0.33145         80.1619         76.2023         80.7586 
       0.337538         78.0813         73.9834         78.4202 
       0.343633          75.956         71.7432         76.2253 
       0.349808         73.5123         69.4187         74.0281 
       0.355968         71.0935         67.0636         72.0736 
       0.362074         69.4031         64.7494         69.6486 
       0.368217          67.215         62.5051         67.1338 
       0.374374          65.715         60.4016         65.3221 
       0.380519         62.9467         58.4734         63.3016 
       0.386598         61.1345         56.7378         61.6563 
       0.392688         59.4234          55.144         60.1041 
        0.39888         58.2506         53.6268          58.466 
       0.405048         56.8793          52.178         56.9284 
       0.411186          55.379         50.7609         55.8346 
       0.417313         53.9018         49.3499         54.1944 
       0.423458         52.3144          47.943         52.8873 
       0.429607         51.3723         46.5526         51.4156 
       0.435692         50.3198          45.215         50.2172 
       0.441815         48.4826         43.9291         49.1658 
       0.447964         47.0371         42.7101         47.8081 
       0.454126         46.2167         41.5626         46.5907 
       0.460267         45.6841         40.4908         45.6401 
       0.466387         44.3697         39.4797         44.4923 
        0.47254         43.6584         38.5033         43.5802 
       0.478662         42.4007         37.5591          42.577 
       0.484765         41.5047         36.6383         41.6331 
       0.490885         40.3636         35.7301         40.9449 
       0.497035         39.5803          34.833         40.0901 
       0.503198         38.6954         33.9575         38.9885 
       0.509342          37.688         33.1148         38.2549 
       0.515458         37.1764         32.3096         37.6358 
       0.521598         36.3159         31.5357         36.5848 
       0.527764          35.829         30.7935         35.7608 
       0.533884         34.8681         30.0896          35.084 
           0.54         34.2048          29.413         34.3748 
       0.546137         33.2179         28.7548         33.8187 
       0.552299         32.6782         28.1102         33.0013 
       0.558452         32.0264         27.4821         32.3654 
       0.564573         31.6315         26.8727         31.9406 
       0.570708         30.8556         26.2775         31.3045 
       0.576825         30.3723         25.7004         30.6999 
       0.582926         29.7997         25.1422         30.1853 
       0.589034         29.2489         24.6017         29.6953 
       0.595184          28.856         24.0771         28.9755 
       0.601379         28.0851         23.5679         28.6177 
       0.607522         27.6567         23.0797         28.0387 
       0.613639         27.1126         22.6082          27.536 
       0.619772         26.7167         22.1479         27.1348 
       0.625918          26.154         21.6981         26.6614 
       0.632068         25.9098         21.2595         26.1495 
       0.638161         25.3704         20.8362         25.7027 
         0.6443          24.946         20.4213         25.2362 
       0.650464         24.3334         20.0163          24.926 
       0.656582         24.1806         19.6257         24.5032 
       0.662703         23.8657         19.2457         24.0742 
       0.668861         23.2318         18.8741         23.7644 
       0.675024         22.9199         18.5125         23.2985 
       0.681124         22.8016         18.1646         22.9434 
       0.687237         22.3354         17.8253          22.517 
       0.693381          21.808         17.4933         22.1748 
       0.699536         21.7103         17.1695         21.8554 
       0.705665         21.3049         16.8552         21.6346 
       0.711789         20.8962          16.549         21.2442 
       0.717957         20.4756         16.2482          20.896 
        0.72409         20.3064         15.9565         20.6309 
       0.730186         20.1584         15.6736         20.2845 
       0.736317         19.7379         15.3961         19.9862 
       0.742472         19.4881         15.1244         19.8237 
       0.748622         19.1838         14.8596         19.4757 
        0.75476          18.708         14.6019         19.1623 
       0.760888         18.6015         14.3509         18.9273 
       0.767043         18.2573         14.1051         18.7115 
       0.773185         18.0497         13.8656         18.4587 
       0.779291         17.9342         13.6332         18.2212 
       0.785407          17.587         13.4059         17.9474 
       0.791564         17.4118         13.1824         17.7207 
       0.797719         17.0638         12.9641         17.4318 
       0.803834         16.9524         12.7523          17.199 
       0.809972         16.6374         12.5444         17.0694 
       0.816124         16.4472         12.3408         16.7782 
       0.822261         16.2511         12.1423         16.5558 
       0.828378         16.0304         11.9488         16.3571 
       0.834502         15.8631         11.7594         16.1751 
       0.840667          15.705         11.5729         15.9465 
       0.846816         15.3824         11.3911         15.7825 
       0.852925         15.2642         11.2144         15.6407 
       0.859047         15.0758         11.0411         15.4089 
       0.865192         14.8667         10.8709         15.2157 
       0.871341         14.6513         10.7043         15.0655 
       0.877463         14.5042          10.542         14.8515 
       0.883569         14.3812         10.3834         14.7106 
       0.889708         14.1518         10.2274         14.5256 
       0.895864         13.9789         10.0743         14.3343 
       0.902008         13.7935         9.92462         14.1972 
       0.908149         13.6184         9.77812          14.034 
       0.914301         13.5326         9.63439         13.9054 
       0.920448         13.3279         9.49372         13.6856 
       0.926574         13.2501         9.35639         13.5574 
       0.932687         13.0402          9.2221         13.3399 
       0.938823         12.8642            9.09          13.257 
       0.944975         12.7543         8.96022         13.0884 
       0.951105         12.5796         8.83347         12.9178 
       0.957225         12.5022         8.70942          12.855 
       0.963368         12.3437         8.58736         12.6795 
       0.969511         12.2034         8.46767         12.5665 
       0.975621         12.0638         8.35092         12.3834 
       0.981748          11.881         8.23611         12.2713 
       0.987916         11.7887         8.12275         12.1643 
        0.99406         11.7092         8.01198          12.038 
        1.00019         11.5859         7.90351         11.9399 
        1.00632         11.4704         7.79718         11.8036 
        1.01246         11.3339         7.69267         11.7118 
        1.01859         11.1995         7.59027         11.5573 
        1.02471         11.0495         7.48988         11.4122 
        1.03085         11.0131         7.39098         11.3153 
        1.03698         10.8898         7.29409         11.2217 
        1.04314         10.7728         7.19856         11.0973 
        1.04929          10.613         7.10497         11.0007 
        1.05541         10.5504         7.01345         10.9062 
        1.06154          10.453         6.92333         10.7964 
        1.06769         10.4018         6.83468         10.7081 
        1.07382         10.2164         6.74788         10.6055 
        1.07993         10.1117         6.66281          10.502 
        1.08607         10.0634         6.57887         10.3833 
        1.09222          9.9245         6.49631         10.2846 
        1.09836         9.91013         6.41527         10.1835 
        1.10449         9.71137         6.33573         10.0956 
        1.11063         9.68278         6.25747         10.0067 
        1.11677         9.59538         6.18057         9.92139 
         1.1229         9.50787         6.10512         9.84287 
        1.12903          9.4385         6.03087         9.77528 
        1.13518         9.28844          5.9578         9.68636 
        1.14131         9.21865         5.88601         9.57629 
        1.14745         9.10446         5.81544         9.46575 
        1.15359         9.04169         5.74604         9.40927 
        1.15973         8.95397         5.67775         9.33046 
        1.16584         8.88401         5.61089         9.27642 
        1.17197          8.7971         5.54502         9.17506 
        1.17811          8.7135         5.48002         9.08845 
        1.18424         8.64258         5.41626         9.01603 
        1.19038         8.57833         5.35334         8.94088 
        1.19652         8.51509         5.29145          8.8831 
        1.20267         8.43755         5.23055         8.77453 
        1.20881         8.35277         5.17064         8.73253 
        1.21495         8.28149         5.11177         8.65973 
        1.22108         8.22633         5.05383         8.59111 
         1.2272         8.13397         4.99694         8.49706 
        1.23334          8.1181          4.9408         8.44244 
        1.23949          8.0174          4.8854         8.39207 
        1.24562         7.94956         4.83101         8.31643 
        1.25174         7.89966         4.77754         8.24032 
        1.25789         7.78725         4.72472         8.17581 
        1.26402         7.75249          4.6728         8.09503 
        1.27014         7.70025         4.62179         8.04895 
        1.27628          7.6072          4.5714         8.00356 
        1.28244          7.5836         4.52168         7.93828 
        1.28858         7.53254         4.47276          7.8676 
        1.29471         7.42421         4.42468         7.80688 
        1.30084         7.36789         4.37736         7.76218 
        1.30697         7.33447         4.33067         7.69644 
        1.31312         7.26918          4.2846         7.64473 
        1.31925         7.21089         4.23935         7.59496 
        1.32537         7.16583         4.19481         7.53958 
        1.33151         7.09891         4.15075         7.48178 
        1.33765         7.04342         4.10736         7.41345 
        1.34378         7.01801         4.06468         7.37683 
        1.34992         6.95092         4.02258         7.31818 
        1.35606         6.89892         3.98099         7.24256 
         1.3622         6.84408         3.94007         7.20157 
        1.36833         6.78417         3.89983         7.17711 
        1.37445         6.72505         3.86018         7.11519 
        1.38059         6.68693         3.82096         7.06008 
        1.38675         6.63004          3.7822         7.00672 
        1.39288         6.59079         3.74413         6.96646 
        1.39901         6.52369         3.70661         6.92331 
        1.40515         6.48482         3.66953         6.86961 
         1.4113         6.43829         3.63297         6.82196 
        1.41742         6.39221         3.59705         6.78225 
        1.42355         6.34079         3.56156         6.71923 
         1.4297         6.30966         3.52644         6.69128 
        1.43585         6.26375         3.49181         6.65589 
        1.44198         6.21372         3.45779          6.5875 
        1.44809         6.18264         3.42428         6.56542 
        1.45423         6.13179         3.39111         6.50904 
        1.46036         6.09315         3.35843         6.46705 
        1.46649         6.03831         3.32618          6.4354 
        1.47263         6.01421         3.29433         6.39406 
        1.47877         5.96737         3.26291         6.34551 
        1.48491         5.93082         3.23186         6.30655 
        1.49104         5.88217         3.20128          6.2618 
        1.49718         5.85303         3.17108         6.22633 
        1.50333         5.80753         3.14122          6.1924 
        1.50947         5.75189         3.11181         6.15227 
         1.5156         5.73749         3.08282         6.11316 
        1.52172         5.69923         3.05421         6.07654 
        1.52787         5.65972          3.0259         6.02972 
          1.534         5.62006         2.99799         5.99104 
        1.54013         5.58158         2.97047         5.95794 
        1.54627         5.54686         2.94324         5.92514 
        1.55241         5.50174         2.91635         5.88758 
        1.55855         5.48108         2.88984         5.84104 
        1.56467         5.44005         2.86373         5.81994 
         1.5708         5.40442         2.83787         5.78654 
        1.57695         5.35392          2.8123         5.74443 
        1.58308         5.32149          2.7871         5.72056 
        1.58922          5.3055          2.7622         5.68744 
        1.59535         5.26656         2.73762          5.6488 
         1.6015         5.22251          2.7133          5.6113 
        1.60764         5.20141         2.68929          5.5852 
        1.61376         5.16797         2.66564         5.56186 
        1.61989         5.12082         2.64225         5.52487 
        1.62604         5.09649          2.6191         5.49012 
        1.63218         5.07085         2.59624         5.46244 
        1.63831         5.05092         2.57371         5.43204 
        1.64444         5.00859         2.55144         5.39441 
        1.65059         4.98477         2.52939         5.36672 
        1.65673         4.94969         2.50762         5.33851 
        1.66285         4.91983         2.48617         5.30799 
        1.66898         4.88704         2.46496          5.2786 
        1.67512           4.854         2.44396          5.2505 
        1.68127         4.82147         2.42319         5.22694 
         1.6874         4.81179         2.40271         5.19968 
        1.69353         4.75913         2.38248         5.16128 
        1.69967         4.74369         2.36244         5.13111 
        1.70581         4.71629         2.34263         5.11268 
        1.71193         4.68414         2.32313          5.0933 
        1.71806         4.65999         2.30382         5.05846 
        1.72421         4.63142         2.28468         5.02739 
        1.73035         4.60185         2.26579         5.00113 
        1.73649         4.58022         2.24711         4.97406 
        1.74262         4.55343         2.22867         4.94585 
        1.74876         4.52876         2.21042         4.92593 
        1.75489         4.50532         2.19241         4.90186 
        1.76101         4.47211         2.17461         4.86695 
        1.76715            4.46         2.15699         4.83868 
        1.77329         4.42726         2.13954         4.81964 
        1.77943         4.39917         2.12228         4.79903 
        1.78557          4.3756         2.10523         4.77095 
        1.79171          4.3611         2.08837         4.74463 
        1.79785         4.32945         2.07169         4.72093 
        1.80399         4.30089         2.05521         4.69733 
        1.81012         4.27855         2.03892         4.67824 
        1.81625         4.25671         2.02282         4.65542 
        1.82239         4.23438         2.00687         4.63139 
        1.82853         4.20853          1.9911         4.61773 
        1.83466         4.17651         1.97551          4.5992 
        1.84078         4.15833         1.96011         4.56916 
        1.84692         4.13774         1.94485         4.53591 
        1.85306         4.11617         1.92974         4.51314 
         1.8592         4.09967         1.91481          4.4974 
        1.86533         4.07202         1.90005         4.47773 
        1.87147         4.05402         1.88542         4.45891 
        1.87761         4.03721         1.87095         4.43934 
