# k  (h/Mpc)    Pcb(k)  (Mpc/h)^3    Pcb_linear(k) (Mpc/h)^3    Pcb_NL(k) (Mpc/h)^3   ShotnoiseSubtracted = false
     0.00783031         92.5966         93.2262         93.1365 
       0.013688          123.86         124.715         124.331 
       0.019231         134.397         134.753         134.173 
      0.0249154         132.139         132.377         131.977 
      0.0312784         121.662         121.793         121.626 
      0.0375637         108.876         108.948         108.872 
      0.0433917         98.1807         98.0669           98.07 
      0.0492413         89.3801           89.36         89.3795 
      0.0555754         82.5535         82.4279         82.4267 
      0.0619321           77.09         77.2614         77.2439 
       0.067871          73.036         73.0826         73.0304 
      0.0738098         68.7295          68.769         68.6863 
      0.0800417         63.7104         63.7009         63.6252 
      0.0862327         58.1576          58.186         58.1343 
      0.0921407          52.822         52.8555         52.8281 
      0.0982031         47.8335         47.7926         47.7937 
       0.104506          43.314         43.3609         43.3817 
       0.110769         39.9264         39.9623          39.978 
       0.116806         37.5933         37.5574         37.5596 
       0.122832         35.7266         35.7717         35.7703 
       0.129052           34.24         34.2495         34.2378 
       0.135211         32.7714         32.7608         32.7418 
       0.141259         31.0867         31.1264         31.1104 
       0.147318          29.184         29.2701         29.2651 
       0.153489         27.1991         27.2359         27.2295 
       0.159709         25.1925         25.2017         25.2115 
       0.165845         23.2966         23.3751         23.4063 
       0.171974         21.8579         21.8406         21.8729 
       0.178125         20.6354         20.6252         20.6692 
       0.184229          19.672         19.7008         19.7438 
        0.19034         18.9876         18.9671         19.0059 
       0.196428         18.3147         18.3195         18.3455 
       0.202534         17.5917         17.6587         17.6846 
       0.208729          16.896         16.9177         16.9419 
       0.214876          16.121         16.1019         16.1393 
       0.220989         15.1905          15.243         15.2875 
       0.227147         14.4139         14.3855         14.4326 
        0.23329         13.6306         13.5938         13.6539 
       0.239377         12.9522          12.911         12.9789 
       0.245482         12.3765         12.3407         12.4033 
       0.251667         11.8741         11.8673         11.9353 
       0.257832         11.5051         11.4696         11.5353 
       0.263955         11.1222         11.1105         11.1716 
       0.270079         10.7618         10.7531         10.8104 
        0.27624          10.357         10.3745         10.4283 
       0.282372         9.96335         9.97311         10.0318 
        0.28843         9.58939         9.56158         9.62317 
       0.294538         9.17165         9.14933         9.21595 
       0.300721         8.75669          8.7541         8.82716 
        0.30691         8.42827          8.3959         8.47071 
       0.313033         8.10918         8.08429         8.15824 
       0.319153         7.87653         7.81345         7.89235 
       0.325316         7.57906          7.5717         7.65291 
        0.33145         7.35979         7.34986          7.4257 
       0.337538         7.15494         7.13583         7.20883 
       0.343633         6.94749         6.91976         6.99215 
       0.349808         6.71615         6.69557         6.77073 
       0.355968         6.48412          6.4684         6.55343 
       0.362074         6.27484          6.2452         6.32705 
       0.368217         6.05759         6.02874         6.10451 
       0.374374         5.87858         5.82584         5.90835 
       0.380519         5.66872         5.63989         5.72004 
       0.386598         5.49526         5.47245         5.55548 
       0.392688         5.33645         5.31875         5.40113 
        0.39888         5.19941         5.17241         5.25357 
       0.405048         5.06149         5.03267         5.10943 
       0.411186         4.92056         4.89599         4.98076 
       0.417313         4.78946         4.75989         4.84126 
       0.423458         4.64124         4.62419         4.70722 
       0.429607         4.52284         4.49009         4.57072 
       0.435692         4.39772         4.36107         4.44534 
       0.441815         4.26559         4.23704         4.32633 
       0.447964         4.13648         4.11947          4.2061 
       0.454126         4.04089         4.00881         4.09414 
       0.460267         3.94923         3.90541         3.99284 
       0.466387         3.84489         3.80789         3.89163 
        0.47254         3.75469         3.71372         3.79822 
       0.478662         3.65972         3.62265          3.7056 
       0.484765         3.57294         3.53384         3.61779 
       0.490885         3.48034         3.44623         3.53593 
       0.497035         3.38431         3.35972            3.45 
       0.503198         3.30845         3.27527         3.35872 
       0.509342         3.21965         3.19399         3.27998 
       0.515458         3.15097         3.11632         3.20623 
       0.521598         3.07629         3.04168         3.12512 
       0.527764         3.01352         2.97009         3.05341 
       0.533884         2.93073          2.9022         2.98611 
           0.54         2.86937         2.83694         2.91931 
       0.546137         2.79915         2.77345         2.85752 
       0.552299         2.74202         2.71128          2.7901 
       0.558452         2.68277          2.6507         2.73082 
       0.564573         2.62568         2.59192         2.67827 
       0.570708         2.56739         2.53452         2.61915 
       0.576825          2.5121         2.47886         2.56204 
       0.582926         2.45382         2.42501          2.5096 
       0.589034         2.41059         2.37288         2.45986 
       0.595184         2.36206         2.32228          2.4016 
       0.601379         2.30687         2.27317         2.35803 
       0.607522         2.25825         2.22609         2.30969 
       0.613639         2.20656          2.1806         2.26311 
       0.619772         2.17076         2.13621         2.22131 
       0.625918          2.1262         2.09283         2.17483 
       0.632068         2.08461         2.05052         2.13143 
       0.638161         2.04258         2.00969         2.09018 
         0.6443         2.00151         1.96967         2.04881 
       0.650464         1.96305         1.93061         2.01289 
       0.656582          1.9297         1.89293         1.97397 
       0.662703         1.89165         1.85629         1.93627 
       0.668861         1.84811         1.82045         1.90285 
       0.675024         1.81689         1.78557         1.86593 
       0.681124         1.79487         1.75201         1.83126 
       0.687237         1.75452         1.71928         1.79571 
       0.693381         1.71623         1.68727         1.76182 
       0.699536         1.69356         1.65603         1.73157 
       0.705665         1.66177         1.62572         1.70589 
       0.711789         1.62676         1.59619         1.67513 
       0.717957         1.59961         1.56717         1.64355 
        0.72409         1.57072         1.53903         1.61546 
       0.730186          1.5482         1.51175         1.58598 
       0.736317         1.51724         1.48498         1.55864 
       0.742472         1.49371         1.45877         1.53663 
       0.748622         1.46886         1.43324         1.51079 
        0.75476         1.44081         1.40838          1.4825 
       0.760888         1.42107         1.38418         1.45898 
       0.767043         1.38593         1.36046         1.43593 
       0.773185         1.36781         1.33736         1.41369 
       0.779291         1.35052         1.31495         1.39073 
       0.785407         1.32555         1.29302         1.36758 
       0.791564          1.3041         1.27147         1.34598 
       0.797719          1.2821         1.25042         1.32204 
       0.803834          1.2607         1.22998         1.30257 
       0.809972         1.24145         1.20993         1.28445 
       0.816124         1.22113         1.19029         1.26205 
       0.822261         1.20376         1.17115         1.24246 
       0.828378         1.18244         1.15248          1.2236 
       0.834502         1.16458         1.13422         1.20386 
       0.840667         1.14857         1.11623         1.18675 
       0.846816         1.13059         1.09869         1.17191 
       0.852925         1.11047         1.08165         1.15294 
       0.859047         1.09445         1.06493         1.13809 
       0.865192         1.07861         1.04852          1.1199 
       0.871341         1.06397         1.03245         1.10273 
       0.877463         1.04475         1.01679          1.0862 
       0.883569          1.0303          1.0015         1.07199 
       0.889708         1.01692        0.986456         1.05663 
       0.895864         1.00208        0.971683         1.04096 
       0.902008        0.985505        0.957248         1.02615 
       0.908149         0.97326        0.943119         1.01264 
       0.914301        0.961214        0.929256        0.996921 
       0.920448        0.946888        0.915688        0.982743 
       0.926574        0.935151        0.902442        0.969886 
       0.932687        0.921326         0.88949         0.95495 
       0.938823        0.905512        0.876748        0.945401 
       0.944975         0.89519        0.864231        0.929149 
       0.951105        0.879894        0.852005        0.916939 
       0.957225        0.867627        0.840041        0.906799 
       0.963368        0.857828        0.828268         0.89339 
       0.969511        0.847574        0.816723        0.881799 
       0.975621        0.834091        0.805463        0.867788 
       0.981748        0.820494        0.794388        0.857221 
       0.987916        0.810481        0.783455        0.848464 
        0.99406        0.801427        0.772771        0.837884 
        1.00019        0.790195        0.762309        0.826959 
        1.00632          0.7824        0.752053        0.815236 
        1.01246         0.77134        0.741973        0.804411 
        1.01859        0.760961        0.732096        0.795117 
        1.02471        0.749402        0.722413        0.785537 
        1.03085         0.73916        0.712874        0.773879 
        1.03698        0.731453         0.70353        0.763891 
        1.04314        0.722254        0.694315        0.755283 
        1.04929        0.714555        0.685289        0.746001 
        1.05541        0.702636        0.676461        0.737858 
        1.06154        0.695331        0.667769        0.728795 
        1.06769        0.687304        0.659218        0.719543 
        1.07382        0.678624        0.650847        0.710978 
        1.07993        0.670782        0.642641        0.702397 
        1.08607        0.661714        0.634545        0.694272 
        1.09222        0.653142        0.626582        0.685261 
        1.09836        0.645677        0.618766        0.677967 
        1.10449        0.637172        0.611094        0.669928 
        1.11063        0.629465        0.603545        0.661191 
        1.11677        0.623414        0.596128        0.654515 
         1.1229        0.613617         0.58885        0.646978 
        1.12903         0.60794        0.581689        0.639339 
        1.13518        0.600214        0.574642        0.632164 
        1.14131        0.593986        0.567717        0.625248 
        1.14745        0.588801        0.560911        0.617025 
        1.15359         0.58029        0.554217        0.610693 
        1.15973        0.574651         0.54763        0.604514 
        1.16584        0.566856        0.541181         0.59699 
        1.17197        0.560034        0.534828        0.590444 
        1.17811        0.553315        0.528558        0.584648 
        1.18424        0.547338        0.522409        0.577128 
        1.19038        0.540347         0.51634        0.571137 
        1.19652        0.536609        0.510371        0.565294 
        1.20267        0.530292        0.504497        0.557735 
        1.20881        0.522074        0.498718        0.552914 
        1.21495        0.517417         0.49304        0.548147 
        1.22108        0.512137        0.487452        0.541085 
         1.2272        0.505503        0.481964        0.534624 
        1.23334        0.500434         0.47655        0.529568 
        1.23949        0.496171        0.471206        0.524793 
        1.24562        0.490366         0.46596        0.519162 
        1.25174        0.484958        0.460803        0.513031 
        1.25789        0.478382        0.455708        0.507593 
        1.26402        0.474663        0.450701        0.502532 
        1.27014        0.468307        0.445781        0.497201 
        1.27628        0.464593        0.440921        0.491981 
        1.28244        0.459775        0.436125        0.487138 
        1.28858        0.453977        0.431407         0.48139 
        1.29471        0.449475        0.426769        0.477192 
        1.30084        0.444676        0.422205        0.473399 
        1.30697         0.44125        0.417702        0.468213 
        1.31312        0.436499        0.413258         0.46331 
        1.31925         0.43172        0.408894        0.459211 
        1.32537        0.427352        0.404597        0.454832 
        1.33151        0.422957        0.400348        0.450236 
        1.33765        0.418325        0.396163        0.445821 
        1.34378         0.41348        0.392046        0.441603 
        1.34992        0.411044        0.387986        0.437472 
        1.35606        0.406118        0.383974        0.432481 
         1.3622         0.40219        0.380028        0.428456 
        1.36833         0.39891        0.376146        0.424775 
        1.37445        0.395235        0.372322        0.421015 
        1.38059        0.390699        0.368539        0.416559 
        1.38675        0.386404          0.3648        0.412629 
        1.39288        0.381969        0.361129        0.408494 
        1.39901        0.379688         0.35751        0.404973 
        1.40515        0.375435        0.353933        0.401038 
         1.4113         0.37272        0.350407        0.397656 
        1.41742        0.368914        0.346943        0.394805 
        1.42355        0.364011        0.343519        0.389697 
         1.4297        0.362227        0.340132        0.387001 
        1.43585        0.357743        0.336792        0.383347 
        1.44198        0.354973         0.33351         0.37859 
        1.44809        0.351089        0.330279        0.376696 
        1.45423        0.348225        0.327079         0.37194 
        1.46036        0.344816        0.323927        0.369121 
        1.46649        0.341592        0.320816          0.3667 
        1.47263        0.337453        0.317744        0.363027 
        1.47877        0.336397        0.314714        0.359815 
        1.48491        0.331488        0.311719        0.357022 
        1.49104        0.330223         0.30877        0.352981 
        1.49718        0.326401        0.305857        0.350806 
        1.50333        0.323735        0.302977         0.34665 
        1.50947        0.321079         0.30014        0.343501 
         1.5156        0.317645        0.297345        0.341339 
        1.52172        0.315259        0.294585        0.337898 
        1.52787        0.311395        0.291854         0.33492 
          1.534        0.309638        0.289162        0.332495 
        1.54013         0.30664        0.286507        0.329573 
        1.54627        0.304244        0.283881         0.32653 
        1.55241        0.301183        0.281288        0.323751 
        1.55855        0.298694         0.27873         0.32106 
        1.56467        0.296311        0.276212         0.31872 
         1.5708        0.293359        0.273719        0.315559 
        1.57695        0.290916        0.271252        0.312585 
        1.58308        0.287359        0.268822        0.310581 
        1.58922        0.286034         0.26642        0.308121 
        1.59535        0.283099        0.264048        0.305312 
         1.6015        0.281101        0.261703        0.302416 
        1.60764        0.278379        0.259387        0.300367 
        1.61376        0.276159        0.257106        0.298701 
        1.61989        0.273549        0.254851         0.29595 
        1.62604        0.271535        0.252618         0.29336 
        1.63218        0.269478        0.250413         0.29109 
        1.63831        0.266948         0.24824        0.288741 
        1.64444        0.264763        0.246092        0.286212 
        1.65059        0.262077        0.243964         0.28383 
        1.65673        0.260317        0.241865        0.281743 
        1.66285        0.258575        0.239796        0.279607 
        1.66898        0.255734         0.23775         0.27719 
        1.67512        0.253831        0.235725        0.274978 
        1.68127        0.251624        0.233722        0.273009 
         1.6874        0.249953        0.231746        0.271085 
        1.69353          0.2479        0.229795        0.268916 
        1.69967         0.24542        0.227862        0.266461 
        1.70581        0.244145        0.225952        0.264353 
        1.71193         0.24231        0.224071        0.262538 
        1.71806        0.239936        0.222208        0.260484 
        1.72421        0.237978        0.220362        0.258799 
        1.73035        0.236146         0.21854        0.256745 
        1.73649        0.234464        0.216739        0.254214 
        1.74262         0.23232        0.214959        0.252326 
        1.74876         0.23093        0.213199        0.250854 
        1.75489         0.22887        0.211462        0.249067 
        1.76101        0.227074        0.209746        0.246921 
        1.76715        0.225617        0.208046        0.245286 
        1.77329        0.223388        0.206363        0.243681 
        1.77943        0.221687        0.204698        0.241774 
        1.78557         0.22059        0.203054        0.239718 
        1.79171        0.218751        0.201428        0.237736 
        1.79785        0.216684        0.199819        0.236116 
        1.80399         0.21476        0.198229        0.234721 
        1.81012        0.213651        0.196658        0.232436 
        1.81625        0.212155        0.195105        0.230555 
        1.82239        0.210807        0.193566        0.229539 
        1.82853        0.208727        0.192045        0.228045 
        1.83466        0.207187        0.190542        0.226161 
        1.84078        0.205686        0.189057          0.2244 
        1.84692        0.204213        0.187585         0.22307 
        1.85306        0.202756        0.186127        0.221259 
         1.8592        0.201361        0.184687         0.21932 
        1.86533        0.199948        0.183263        0.218044 
        1.87147        0.198335        0.181853         0.21666 
