# k  (h/Mpc)    P(k)  (Mpc/h)^3    P_linear(k)  (Mpc/h)^3     P_NL(k)  ShotnoiseSubtracted = false
     0.00783031         4446.94         4467.75         4465.14 
       0.013688         5872.36         5972.19         5948.05 
       0.019231         6392.91         6450.97         6410.73 
      0.0249154         6333.89         6336.19         6296.58 
      0.0312784         5789.06         5828.98         5790.68 
      0.0375637         5153.16         5213.93         5175.39 
      0.0433917            4675         4693.01         4652.94 
      0.0492413         4231.64         4276.23         4236.29 
      0.0555754         3925.35         3944.42         3903.88 
      0.0619321         3602.33         3697.13          3654.9 
       0.067871         3442.54         3497.13         3454.28 
      0.0738098         3249.16         3290.69         3236.09 
      0.0800417          3016.6         3048.15          2994.9 
      0.0862327         2744.56         2784.24         2743.69 
      0.0921407         2495.09         2529.16         2491.11 
      0.0982031         2276.18         2286.88          2264.5 
       0.104506         2045.93         2074.82         2065.61 
       0.110769         1891.44         1912.19         1897.08 
       0.116806          1804.5         1797.11         1782.51 
       0.122832         1699.02         1711.67         1701.18 
       0.129052          1631.1         1638.83         1628.62 
       0.135211         1576.32         1567.59          1557.7 
       0.141259         1482.66         1489.39         1484.82 
       0.147318         1379.24         1400.56          1403.6 
       0.153489          1298.2         1303.22         1298.34 
       0.159709         1224.37         1205.88         1212.01 
       0.165845         1117.58         1118.48         1142.25 
       0.171974          1078.6         1045.06         1070.29 
       0.178125         1028.79         986.898         1024.85 
       0.184229         963.013         942.667         980.395 
        0.19034         942.604         907.561         944.982 
       0.196428         913.798         876.572         906.667 
       0.202534         862.275         844.952         877.585 
       0.208729          844.23         809.494         839.016 
       0.214876         812.589          770.46         811.591 
       0.220989         757.923         729.364         775.945 
       0.227147         738.599         688.332         737.505 
        0.23329         708.054         650.449          709.88 
       0.239377         688.222         617.777         681.708 
       0.245482         653.739         590.489          650.37 
       0.251667         628.425          567.84         633.346 
       0.257832         621.942          548.81          613.38 
       0.263955         590.878         531.626         594.586 
       0.270079         573.223         514.521         576.442 
        0.27624         549.462         496.407         556.708 
       0.282372         536.557         477.202         539.598 
        0.28843         531.854         457.511         520.761 
       0.294538         505.813         437.785         505.561 
       0.300721         487.027         418.873         491.208 
        0.30691         479.062         401.734         477.344 
       0.313033         459.595         386.822          461.12 
       0.319153         451.652         373.865         450.245 
       0.325316         439.949         362.297         441.362 
        0.33145         430.014         351.682          426.45 
       0.337538         416.298         341.441         415.753 
       0.343633         403.854         331.103         408.704 
       0.349808         393.519         320.374         399.586 
       0.355968         385.017         309.506         391.153 
       0.362074         375.799         298.825         380.667 
       0.368217         370.216         288.468         368.427 
       0.374374         362.423          278.76         360.853 
       0.380519         347.964         269.861         351.875 
       0.386598         342.355         261.851         344.744 
       0.392688         334.926         254.495         338.011 
        0.39888         327.278         247.493         329.996 
       0.405048         321.616         240.807         325.584 
       0.411186         318.178         234.267         318.226 
       0.417313         311.669         227.755         309.487 
       0.423458          303.66         221.262         303.894 
       0.429607         297.828         214.845         297.822 
       0.435692         292.047         208.672         292.234 
       0.441815         286.468         202.737         289.133 
       0.447964         278.861         197.112         282.706 
       0.454126         274.412         191.816         275.834 
       0.460267         271.625         186.869         273.124 
       0.466387         266.609         182.203         267.574 
        0.47254         263.522         177.697         263.454 
       0.478662          255.61         173.339         258.563 
       0.484765         252.687          169.09         252.722 
       0.490885         249.045         164.898         249.799 
       0.497035         246.522         160.758         246.735 
       0.503198         242.597         156.717         242.429 
       0.509342           236.3         152.828         239.168 
       0.515458         234.145         149.112         237.138 
       0.521598         228.761          145.54         231.865 
       0.527764         226.302         142.115         227.304 
       0.533884         225.753         138.867         224.631 
           0.54         220.296         135.744         221.712 
       0.546137          215.43         132.706         219.404 
       0.552299         213.875         129.731         215.256 
       0.558452         210.161         126.833         212.126 
       0.564573         209.049          124.02         210.272 
       0.570708         204.189         121.273         207.259 
       0.576825         201.601          118.61         203.724 
       0.582926         199.519         116.034         201.071 
       0.589034         196.916         113.539          199.17 
       0.595184         195.267         111.118         196.133 
       0.601379         190.693         108.768          194.88 
       0.607522         188.115         106.515         191.388 
       0.613639         186.529         104.339         189.511 
       0.619772         184.363         102.215         186.644 
       0.625918         182.865         100.139         185.418 
       0.632068         179.119         98.1145          182.27 
       0.638161         176.735         96.1612          181.18 
         0.6443         176.158         94.2461         178.548 
       0.650464         173.086         92.3773         175.503 
       0.656582         172.223         90.5743         174.468 
       0.662703         170.373         88.8209         172.066 
       0.668861         167.069          87.106          170.48 
       0.675024         167.077         85.4372         168.235 
       0.681124         164.428         83.8313         166.693 
       0.687237         161.715         82.2654         164.595 
       0.693381         161.163         80.7335         162.805 
       0.699536         159.061         79.2387          161.76 
       0.705665         156.794         77.7884         160.639 
       0.711789         154.969         76.3755         157.659 
       0.717957         153.469         74.9872         156.627 
        0.72409         152.635         73.6407         155.999 
       0.730186         151.603         72.3352         154.083 
       0.736317         148.994         71.0545          152.13 
       0.742472         147.437         69.8004         150.807 
       0.748622          145.28         68.5784         149.155 
        0.75476         144.971         67.3893         147.738 
       0.760888         143.996          66.231         146.056 
       0.767043         141.662         65.0963         145.396 
       0.773185         140.095         63.9911          144.42 
       0.779291         138.646         62.9185         142.952 
       0.785407         137.001         61.8694          141.16 
       0.791564          136.75          60.838         140.078 
       0.797719         135.377         59.8308         139.135 
       0.803834         134.216         58.8529         137.388 
       0.809972         133.624         57.8937         136.461 
       0.816124         132.024         56.9539         135.706 
       0.822261          130.37         56.0378         134.201 
       0.828378         130.146         55.1448         132.518 
       0.834502          127.96         54.2707           132.3 
       0.840667         127.501         53.4102         131.437 
       0.846816         126.352          52.571         129.976 
       0.852925         125.183         51.7553         128.923 
       0.859047         124.365         50.9556         127.644 
       0.865192         122.871         50.1703         127.018 
       0.871341         121.639         49.4013         125.743 
       0.877463         121.014         48.6521         125.128 
       0.883569         120.627         47.9206         124.141 
       0.889708         119.643         47.2006         123.161 
       0.895864         118.452         46.4938         122.338 
       0.902008         117.563         45.8031          121.24 
       0.908149         116.182          45.127         120.341 
       0.914301         116.007         44.4637         119.807 
       0.920448         115.245         43.8144         118.753 
       0.926574         113.312         43.1806         117.312 
       0.932687         112.955         42.5609         116.806 
       0.938823         111.996         41.9512         115.891 
       0.944975         110.808         41.3523         115.112 
       0.951105         110.005         40.7673         114.442 
       0.957225         110.043         40.1948         113.785 
       0.963368         108.715         39.6315         112.468 
       0.969511         107.755         39.0791          111.85 
       0.975621         107.079         38.5403         111.935 
       0.981748         106.098         38.0104         110.636 
       0.987916         105.321         37.4873         110.164 
        0.99406         104.912          36.976         109.315 
        1.00019          103.76         36.4755         108.491 
        1.00632         103.216         35.9847           107.9 
        1.01246          102.44         35.5024         107.017 
        1.01859         101.985         35.0298         106.385 
        1.02471          100.91         34.5665          105.94 
        1.03085         100.232         34.1101         105.124 
        1.03698         99.6326          33.663         104.319 
        1.04314         98.9858          33.222         103.733 
        1.04929         98.4177         32.7901         103.398 
        1.05541         97.7433         32.3678         102.888 
        1.06154         97.1885         31.9519         102.087 
        1.06769         96.1052         31.5427         101.545 
        1.07382         95.5602         31.1421          100.88 
        1.07993         95.1577         30.7495         100.171 
        1.08607          94.316         30.3621          99.535 
        1.09222          94.028         29.9811         98.7997 
        1.09836         93.1103         29.6071         98.3435 
        1.10449         92.6148           29.24         97.7235 
        1.11063          91.822         28.8788         96.9782 
        1.11677         91.5544         28.5239         96.4855 
         1.1229         90.6877         28.1757         96.2197 
        1.12903         90.5315          27.833         95.4912 
        1.13518         90.1261         27.4958         94.9554 
        1.14131          89.303         27.1645          94.453 
        1.14745         88.4127         26.8388         93.9001 
        1.15359         87.6982         26.5185          93.617 
        1.15973         87.5568         26.2034         92.9371 
        1.16584         86.9415         25.8948          92.379 
        1.17197         86.0978         25.5908         91.8639 
        1.17811         85.7303         25.2908         91.1698 
        1.18424         84.9149         24.9965         90.7115 
        1.19038         84.8398         24.7062         90.5704 
        1.19652         84.3834         24.4206         89.7392 
        1.20267         83.6865         24.1395         89.5083 
        1.20881         83.1012          23.863         88.8876 
        1.21495         82.8086         23.5913         88.4893 
        1.22108         82.2814         23.3239         88.0124 
         1.2272         81.6832         23.0613         87.6367 
        1.23334         81.2361         22.8023         87.1133 
        1.23949          80.804         22.5466         86.5383 
        1.24562         80.1356         22.2956         86.1622 
        1.25174         79.6808         22.0488         85.8362 
        1.25789         79.7914          21.805         85.3226 
        1.26402         78.9912         21.5654         84.8091 
        1.27014         78.5056           21.33         84.4511 
        1.27628          77.846         21.0975         84.0431 
        1.28244         77.5894          20.868         83.5699 
        1.28858         77.1393         20.6422         83.1693 
        1.29471         76.8001         20.4203         82.8847 
        1.30084         76.1605          20.202         82.1895 
        1.30697         76.0454         19.9865         81.7611 
        1.31312         75.3181         19.7738         81.6407 
        1.31925          74.898          19.565         81.1355 
        1.32537          74.525         19.3594         80.6666 
        1.33151         74.1723         19.1561         80.3572 
        1.33765         73.6832         18.9558         79.9934 
        1.34378         73.5003         18.7589         79.5312 
        1.34992         72.9427         18.5646         79.1926 
        1.35606         72.4714         18.3726          78.913 
         1.3622         72.0036         18.1838         78.4928 
        1.36833         71.5797         17.9981         77.9744 
        1.37445         71.1072         17.8151         77.6887 
        1.38059          70.914         17.6341         77.5465 
        1.38675         70.1898         17.4552         76.9491 
        1.39288         70.1576         17.2795         76.7486 
        1.39901          69.589         17.1064         76.3505 
        1.40515         69.3178         16.9352         75.9321 
         1.4113         69.1484         16.7665          75.671 
        1.41742         68.7157         16.6007         75.4167 
        1.42355         68.0871         16.4369         74.8288 
         1.4297         67.7434         16.2748         74.4871 
        1.43585         67.2767          16.115         74.2953 
        1.44198         66.9197          15.958         74.0493 
        1.44809         66.6134         15.8034          73.411 
        1.45423         66.3223         15.6503         73.1452 
        1.46036         65.9118         15.4995          72.908 
        1.46649         65.7939         15.3506         72.6486 
        1.47263         65.2826         15.2036         72.3717 
        1.47877         64.9948         15.0586         71.9526 
        1.48491         64.7392         14.9153         71.5752 
        1.49104         64.2136         14.7742         71.2037 
        1.49718         63.8973         14.6348         70.9008 
        1.50333         63.7203          14.497         70.7034 
        1.50947         63.1744         14.3613         70.4558 
         1.5156          62.944         14.2275         70.1429 
        1.52172         62.5099         14.0955         69.8191 
        1.52787         62.1836         13.9648         69.4798 
          1.534         61.9783          13.836         69.2374 
        1.54013         61.6632          13.709         68.9034 
        1.54627         61.1543         13.5833         68.5438 
        1.55241         60.8662         13.4592         68.2841 
        1.55855         60.6931         13.3369         68.0171 
        1.56467         60.3217         13.2164         67.6525 
         1.5708         60.0796         13.0971         67.4844 
        1.57695         59.7647          12.979         67.2631 
        1.58308         59.2854         12.8627         66.8605 
        1.58922         59.0424         12.7478         66.6287 
        1.59535         58.8464         12.6344          66.401 
         1.6015         58.7199         12.5221         66.0535 
        1.60764         58.3323         12.4113         65.7612 
        1.61376         57.9219         12.3022         65.5553 
        1.61989         57.5839         12.1943         65.1897 
        1.62604         57.3566         12.0874         64.9303 
        1.63218         57.0449         11.9819         64.7369 
        1.63831         56.9055         11.8779         64.4613 
        1.64444         56.4704         11.7752         64.1468 
        1.65059         56.2996         11.6734         63.9135 
        1.65673         55.8342         11.5729          63.617 
        1.66285          55.776         11.4739         63.3687 
        1.66898          55.184          11.376          63.259 
        1.67512         55.1475         11.2791          63.026 
        1.68127         54.8162         11.1833         62.6573 
         1.6874         54.5114         11.0887         62.2975 
        1.69353         54.3007         10.9954         62.0815 
        1.69967         54.1108         10.9029         61.9133 
        1.70581         53.6115         10.8115         61.7941 
        1.71193         53.4105         10.7215         61.5712 
        1.71806         53.2342         10.6323         61.0835 
        1.72421         52.9618          10.544         60.8031 
        1.73035         52.6472         10.4568         60.7351 
        1.73649         52.3158         10.3706         60.5945 
        1.74262         51.9893         10.2855         60.1413 
        1.74876         51.7173         10.2013         59.8808 
        1.75489         51.5501         10.1182         59.7412 
        1.76101         51.3481          10.036         59.5024 
        1.76715         51.1544         9.95469         59.2607 
        1.77329         50.7454         9.87416         59.0469 
        1.77943         50.7423          9.7945         58.8335 
        1.78557         50.3928         9.71584         58.5973 
        1.79171         50.1587         9.63803         58.3442 
        1.79785          49.853         9.56106         58.1604 
        1.80399         49.6244         9.48496         58.0353 
        1.81012         49.4261          9.4098         57.6402 
        1.81625         49.0607         9.33549         57.3069 
        1.82239         48.8467         9.26187         57.2213 
        1.82853         48.7307         9.18909         57.0874 
        1.83466         48.4138         9.11717         56.8334 
        1.84078         48.1477          9.0461          56.576 
        1.84692         47.8668         8.97567          56.467 
        1.85306         47.6553         8.90592         56.2643 
         1.8592          47.498         8.83701         55.9945 
        1.86533         47.2785         8.76889         55.8298 
        1.87147         47.0202          8.7014         55.6192 
        1.87761         46.7164          8.6346         55.3605 
