# k  (h/Mpc)    P(k)  (Mpc/h)^3    P_linear(k)  (Mpc/h)^3     P_NL(k)  ShotnoiseSubtracted = false
     0.00783031         8628.63         8662.99         8655.24 
       0.013688           11325         11578.1         11518.9 
       0.019231         12341.8         12505.4         12404.4 
      0.0249154         12262.5         12282.3         12165.8 
      0.0312784         11160.6         11298.8         11165.8 
      0.0375637         9907.37         10106.4          9967.7 
      0.0433917         9003.46         9096.55         8944.45 
      0.0492413         8128.74         8288.62         8134.64 
      0.0555754          7539.4         7645.43         7491.71 
      0.0619321         6867.98         7166.07         7006.97 
       0.067871          6575.6         6778.39          6620.5 
      0.0738098         6217.95         6378.23         6178.88 
      0.0800417         5766.16         5908.11          5713.8 
      0.0862327         5243.58         5396.56         5246.91 
      0.0921407         4775.61         4902.14         4760.88 
      0.0982031         4372.93         4432.55         4344.47 
       0.104506         3927.57         4021.51         3979.11 
       0.110769         3636.97         3706.29         3646.31 
       0.116806         3481.88         3483.24         3425.05 
       0.122832          3276.5         3317.62         3273.06 
       0.129052         3134.34         3176.44          3134.5 
       0.135211         3045.05         3038.36         2995.68 
       0.141259          2852.9         2886.78         2864.72 
       0.147318         2653.15         2714.62          2713.6 
       0.153489         2507.98         2525.94         2503.03 
       0.159709         2391.78         2337.28         2350.21 
       0.165845         2182.04         2167.87         2235.62 
       0.171974         2120.48         2025.56         2102.66 
       0.178125          2041.4         1912.84         2030.03 
       0.184229         1894.01         1827.11          1939.2 
        0.19034         1865.39         1759.06         1872.85 
       0.196428          1815.2            1699         1796.37 
       0.202534         1711.29         1637.71         1743.03 
       0.208729         1681.05         1568.98         1662.27 
       0.214876         1616.44         1493.33         1618.04 
       0.220989         1523.51         1413.67         1557.79 
       0.227147         1487.02         1334.14         1491.86 
        0.23329         1429.71         1260.72         1445.25 
       0.239377         1410.25         1197.39         1391.39 
       0.245482         1343.23          1144.5         1330.66 
       0.251667         1294.24          1100.6         1302.14 
       0.257832         1280.52         1063.72          1262.9 
       0.263955         1220.88         1030.41         1227.33 
       0.270079         1189.27         997.259         1193.47 
        0.27624         1140.68         962.149         1156.67 
       0.282372         1123.95         924.926          1126.9 
        0.28843         1112.02         886.759         1093.95 
       0.294538         1058.27         848.526         1065.61 
       0.300721          1032.3         811.871         1036.45 
        0.30691         1013.91         778.651         1017.21 
       0.313033         973.853         749.749         985.721 
       0.319153         960.923         724.634         961.615 
       0.325316         947.626         702.213          947.08 
        0.33145         930.012         681.638         914.933 
       0.337538         898.902          661.79         898.026 
       0.343633         875.618         641.751         887.839 
       0.349808         857.555         620.958         870.952 
       0.355968         842.468         599.891         855.208 
       0.362074         817.458         579.191         835.949 
       0.368217           813.9         559.115         812.654 
       0.374374         801.022         540.299         798.501 
       0.380519         772.325         523.051         781.864 
       0.386598          765.68         507.525         771.106 
       0.392688         750.657         493.269         753.598 
        0.39888         731.585         479.698         743.255 
       0.405048         720.371         466.738         735.156 
       0.411186         717.367         454.062         717.097 
       0.417313         712.041          441.44         703.372 
       0.423458         690.334         428.855         693.215 
       0.429607         672.692         416.418         679.074 
       0.435692         664.488         404.453         667.718 
       0.441815          654.22          392.95         663.513 
       0.447964         642.984         382.046         651.893 
       0.454126         635.308         371.782         636.563 
       0.460267         625.869         362.194         634.107 
       0.466387         617.461          353.15         621.992 
        0.47254         607.264         344.416         615.056 
       0.478662         596.212          335.97         604.791 
       0.484765         591.214         327.734          593.98 
       0.490885         585.136         319.609         586.194 
       0.497035         574.487         311.585         580.658 
       0.503198         573.738         303.753          572.33 
       0.509342         561.253         296.215         565.353 
       0.515458         551.983         289.013         561.866 
       0.521598         545.156          282.09         552.774 
       0.527764         535.937         275.451         545.649 
       0.533884         533.868         269.155         539.566 
           0.54         527.028         263.102         532.853 
       0.546137         517.548         257.214         526.774 
       0.552299         516.698         251.448          519.78 
       0.558452         509.334          245.83         515.004 
       0.564573          503.45         240.378         510.646 
       0.570708          499.21         235.055         506.157 
       0.576825         489.888         229.893         497.441 
       0.582926         486.758         224.899         492.233 
       0.589034         480.476         220.064         485.951 
       0.595184         476.825         215.372         480.572 
       0.601379         469.106         210.817         477.552 
       0.607522         462.018          206.45         472.204 
       0.613639         459.963         202.232         468.305 
       0.619772         457.829         198.115         466.236 
       0.625918         450.566         194.092         460.727 
       0.632068         445.841         190.168         454.858 
       0.638161         441.417         186.382          450.33 
         0.6443         438.139          182.67         447.321 
       0.650464         432.643         179.048         440.123 
       0.656582           428.7         175.553         436.463 
       0.662703         425.353         172.155         434.993 
       0.668861         419.821         168.831         430.948 
       0.675024         416.681         165.596         426.938 
       0.681124         412.447         162.484         421.077 
       0.687237         409.274         159.449         417.471 
       0.693381         404.906         156.479         414.144 
       0.699536         401.198         153.582         411.451 
       0.705665         397.262         150.771         408.133 
       0.711789         395.945         148.033         404.172 
       0.717957         390.095         145.342         401.665 
        0.72409         386.815         142.732         398.833 
       0.730186         388.326         140.202         395.593 
       0.736317         381.354         137.719         391.248 
       0.742472         377.114         135.289         387.784 
       0.748622         373.366          132.92         384.544 
        0.75476         372.588         130.615          383.72 
       0.760888          368.87          128.37         379.087 
       0.767043         365.755         126.171         376.683 
       0.773185         363.959         124.029         373.849 
       0.779291         358.191          121.95         370.392 
       0.785407         357.108         119.917         367.942 
       0.791564         353.382         117.918         365.536 
       0.797719         348.374         115.965         362.872 
       0.803834         351.021          114.07         360.422 
       0.809972         345.965         112.211           357.8 
       0.816124         342.157         110.389         354.052 
       0.822261         338.627         108.614         351.987 
       0.828378         338.529         106.883         349.212 
       0.834502         333.244         105.189         347.615 
       0.840667         333.067         103.521         345.103 
       0.846816         328.014         101.894         342.741 
       0.852925         327.422         100.313         340.088 
       0.859047         323.943         98.7632         337.796 
       0.865192         323.708         97.2412         335.716 
       0.871341         319.063         95.7507         333.306 
       0.877463         316.026         94.2986         331.412 
       0.883569         314.904         92.8808         329.413 
       0.889708         312.288         91.4853          326.63 
       0.895864          310.05         90.1152          324.85 
       0.902008         307.808         88.7765         322.366 
       0.908149         305.367         87.4662         319.564 
       0.914301         303.723         86.1805         318.288 
       0.920448         301.868         84.9221         315.253 
       0.926574         299.656         83.6937         313.349 
       0.932687         297.336         82.4925         310.793 
       0.938823         294.845         81.3108         310.368 
       0.944975         293.205         80.1499          308.64 
       0.951105         290.728         79.0161         306.171 
       0.957225         288.104         77.9065          304.07 
       0.963368          287.55         76.8147         301.554 
       0.969511         282.779          75.744         299.798 
       0.975621         282.373         74.6997         299.211 
       0.981748         280.429         73.6727         296.804 
       0.987916          278.93         72.6587         295.438 
        0.99406         276.437         71.6678         293.728 
        1.00019         274.583         70.6976         291.012 
        1.00632         274.032         69.7464         288.924 
        1.01246         271.785         68.8116         287.133 
        1.01859         268.525         67.8956         285.931 
        1.02471         266.554         66.9976           284.8 
        1.03085          266.05         66.1129         283.045 
        1.03698         263.695         65.2463         281.515 
        1.04314         263.269         64.3917         279.585 
        1.04929         261.113         63.5546         277.596 
        1.05541         258.741         62.7359         276.062 
        1.06154         257.142         61.9298         274.595 
        1.06769         254.577         61.1368         273.153 
        1.07382         254.601         60.3604         271.279 
        1.07993          251.69         59.5994         269.926 
        1.08607         249.656         58.8485         268.588 
        1.09222         248.669           58.11         266.919 
        1.09836         247.351         57.3852         265.938 
        1.10449         245.042         56.6737         264.079 
        1.11063         243.303         55.9736         262.359 
        1.11677         242.358         55.2857          260.93 
         1.1229         240.291         54.6108         259.759 
        1.12903         239.579         53.9466         258.444 
        1.13518          237.66          53.293         256.819 
        1.14131         236.664         52.6508         255.386 
        1.14745          233.78         52.0196         253.991 
        1.15359         231.851         51.3988         252.522 
        1.15973         231.431         50.7879          251.01 
        1.16584         230.508         50.1898         249.087 
        1.17197         228.657         49.6006         248.044 
        1.17811         226.564         49.0192         247.291 
        1.18424         225.294         48.4488         245.853 
        1.19038         223.915          47.886         244.562 
        1.19652         221.767         47.3325         243.605 
        1.20267         221.197         46.7877         241.659 
        1.20881         219.358         46.2518         240.984 
        1.21495         218.825         45.7252         238.929 
        1.22108         217.005         45.2069         238.159 
         1.2272         215.172          44.698         236.191 
        1.23334         214.342         44.1958         235.406 
        1.23949         213.583         43.7003         234.669 
        1.24562         211.851         43.2137         232.979 
        1.25174         210.205         42.7354         232.138 
        1.25789         208.691          42.263         230.813 
        1.26402         208.349         41.7986         229.254 
        1.27014         206.966         41.3423         228.792 
        1.27628         204.513         40.8916         227.938 
        1.28244         203.959         40.4467         226.095 
        1.28858         202.605         40.0092         224.876 
        1.29471         201.495         39.5791         223.756 
        1.30084         200.146         39.1559         222.576 
        1.30697         198.788         38.7382         221.581 
        1.31312         197.499         38.3261         220.046 
        1.31925         196.098         37.9213          218.89 
        1.32537         195.573         37.5229         218.169 
        1.33151          194.01         37.1288         217.057 
        1.33765         192.296         36.7406          215.82 
        1.34378         191.799         36.3588         214.655 
        1.34992         190.725         35.9823         213.563 
        1.35606          189.42         35.6103         212.245 
         1.3622         188.634         35.2442         211.298 
        1.36833         186.472         34.8843         210.319 
        1.37445         186.292         34.5296         208.961 
        1.38059          184.69         34.1788         208.332 
        1.38675          183.63          33.832         207.169 
        1.39288         182.443         33.4915         205.778 
        1.39901         181.336         33.1559         205.192 
        1.40515         180.386         32.8242         204.342 
         1.4113         179.254         32.4972         203.137 
        1.41742         177.708         32.1759         202.229 
        1.42355         177.809         31.8584         201.543 
         1.4297         176.024         31.5443         200.313 
        1.43585         174.877         31.2345         199.254 
        1.44198         173.231         30.9302          198.29 
        1.44809         172.264         30.6305         197.232 
        1.45423         171.905         30.3337         196.238 
        1.46036         170.609         30.0414         195.314 
        1.46649         169.438         29.7529         194.654 
        1.47263         168.815          29.468         193.998 
        1.47877          167.53          29.187         192.743 
        1.48491         166.174         28.9092         191.831 
        1.49104         164.487         28.6357         191.079 
        1.49718         164.433         28.3655         189.642 
        1.50333         163.435         28.0985         188.914 
        1.50947         162.422         27.8354         188.155 
         1.5156          161.29         27.5761         187.182 
        1.52172         160.361         27.3201         186.418 
        1.52787         159.583         27.0669         185.401 
          1.534         158.643         26.8173         184.441 
        1.54013         157.702          26.571         183.676 
        1.54627         156.676         26.3275         182.911 
        1.55241         155.703          26.087         182.015 
        1.55855         154.911         25.8498         180.957 
        1.56467         153.617         25.6163         180.077 
         1.5708         152.772          25.385         179.589 
        1.57695         152.102         25.1562         178.746 
        1.58308         151.097         24.9309         177.611 
        1.58922         150.432         24.7081         176.838 
        1.59535         149.551         24.4882         176.056 
         1.6015         147.905         24.2706         175.171 
        1.60764         147.261         24.0559         174.355 
        1.61376         146.429         23.8443         173.732 
        1.61989         145.712         23.6352         173.046 
        1.62604         144.719         23.4281          172.07 
        1.63218         144.073         23.2236         171.225 
        1.63831         142.935         23.0221         170.542 
        1.64444         142.104         22.8229         169.615 
        1.65059          141.21         22.6256         168.906 
        1.65673         140.582         22.4308         168.153 
        1.66285         140.088         22.2389         167.363 
        1.66898         138.688         22.0492         166.663 
        1.67512          138.16         21.8614         165.958 
        1.68127         137.055         21.6756         165.157 
         1.6874         136.383         21.4924         164.437 
        1.69353         135.508         21.3114         163.875 
        1.69967         134.754         21.1322         162.943 
        1.70581         134.236          20.955         162.102 
        1.71193         133.073         20.7806         161.436 
        1.71806         132.284         20.6078           160.6 
        1.72421          131.64         20.4366         159.931 
        1.73035         130.879         20.2676         159.229 
        1.73649         129.818         20.1006         158.465 
        1.74262         129.347         19.9356         157.954 
        1.74876         128.345         19.7723         157.187 
        1.75489         127.762         19.6113         156.303 
        1.76101         127.033         19.4521         155.574 
        1.76715         125.908         19.2944          154.88 
        1.77329          125.58         19.1383         154.216 
        1.77943         124.424         18.9839         153.563 
        1.78557         123.963         18.8314         152.915 
        1.79171         123.272         18.6806         152.355 
        1.79785          122.26         18.5315         151.737 
        1.80399         121.859          18.384         150.929 
        1.81012         120.803         18.2383         150.199 
        1.81625         120.376         18.0942         149.616 
        1.82239         119.703         17.9516         149.039 
        1.82853         119.133         17.8105         148.354 
        1.83466         118.061         17.6711         147.597 
        1.84078         117.399         17.5333          146.94 
        1.84692         117.125         17.3968          146.51 
        1.85306         116.172         17.2616         145.842 
         1.8592         115.604         17.1281         145.138 
        1.86533         114.692          16.996         144.661 
        1.87147         114.158         16.8652         143.787 
        1.87761         113.451         16.7358         143.011 
