# k  (h/Mpc)    Pcb(k)  (Mpc/h)^3    Pcb_linear(k) (Mpc/h)^3    Pcb_NL(k) (Mpc/h)^3   ShotnoiseSubtracted = false
     0.00783031         4475.16          4496.1         4493.48 
       0.013688         5909.63         6010.09          5985.8 
       0.019231         6433.48         6491.91         6451.42 
      0.0249154         6374.09          6376.4         6336.54 
      0.0312784          5825.8         5865.97         5827.42 
      0.0375637         5185.86         5247.02         5208.23 
      0.0433917         4704.67         4722.79         4682.47 
      0.0492413          4258.5         4303.36         4263.17 
      0.0555754         3950.26         3969.45         3928.66 
      0.0619321         3625.19          3720.6          3678.1 
       0.067871         3464.38         3519.33          3476.2 
      0.0738098         3269.78         3311.57         3256.63 
      0.0800417         3035.75          3067.5          3013.9 
      0.0862327         2761.98         2801.91          2761.1 
      0.0921407         2510.92         2545.21         2506.92 
      0.0982031         2290.62          2301.4         2278.87 
       0.104506         2058.92         2087.99         2078.72 
       0.110769         1903.45         1924.32         1909.12 
       0.116806         1815.95         1808.52         1793.83 
       0.122832          1709.8         1722.53         1711.97 
       0.129052         1641.45         1649.23         1638.96 
       0.135211         1586.32         1577.54         1567.58 
       0.141259         1492.07         1498.84         1494.25 
       0.147318         1387.99         1409.45          1412.5 
       0.153489         1306.44         1311.49         1306.58 
       0.159709         1232.14         1213.53         1219.71 
       0.165845         1124.67         1125.58          1149.5 
       0.171974         1085.45         1051.69         1077.08 
       0.178125         1035.32         993.162         1031.35 
       0.184229         969.125         948.649         986.617 
        0.19034         948.586          913.32         950.979 
       0.196428         919.597         882.134          912.42 
       0.202534         867.747         850.314         883.154 
       0.208729         849.587         814.632         844.341 
       0.214876         817.746          775.35         816.742 
       0.220989         762.733         733.993          780.87 
       0.227147         743.286         692.701         742.185 
        0.23329         712.547         654.578         714.386 
       0.239377         692.589         621.697         686.034 
       0.245482         657.887         594.235         654.496 
       0.251667         632.413         571.442         637.364 
       0.257832         625.889         552.293         617.272 
       0.263955         594.627             535          598.36 
       0.270079         576.861         517.787         580.101 
        0.27624         552.949         499.558         560.241 
       0.282372         539.961         480.231         543.022 
        0.28843         535.229         460.414         524.066 
       0.294538         509.023         440.563          508.77 
       0.300721         490.118         421.532         494.326 
        0.30691         482.102         404.283         480.374 
       0.313033         462.512         389.278         464.047 
       0.319153         454.518         376.237         453.102 
       0.325316         442.741         364.596         444.163 
        0.33145         432.743         353.914         429.157 
       0.337538          418.94         343.608         418.391 
       0.343633         406.417         333.204         411.297 
       0.349808         396.016         322.408         402.123 
       0.355968          387.46         311.469         393.635 
       0.362074         378.184         300.722         383.083 
       0.368217         372.565         290.298         370.765 
       0.374374         364.723         280.528         363.142 
       0.380519         350.172         271.574         354.109 
       0.386598         344.528         263.512         346.931 
       0.392688         337.051          256.11         340.156 
        0.39888         329.355         249.064          332.09 
       0.405048         323.657         242.335         327.651 
       0.411186         320.197         235.754         320.245 
       0.417313         313.646           229.2         311.451 
       0.423458         305.587         222.666         305.822 
       0.429607         299.718         216.209         299.712 
       0.435692           293.9         209.996         294.089 
       0.441815         288.286         204.023         290.968 
       0.447964          280.63         198.362           284.5 
       0.454126         276.154         193.034         277.585 
       0.460267         273.349         188.055         274.856 
       0.466387         268.301         183.359         269.272 
        0.47254         265.195         178.824         265.126 
       0.478662         257.232         174.439         260.204 
       0.484765         254.291         170.163         254.325 
       0.490885         250.625         165.944         251.384 
       0.497035         248.087         161.778         248.301 
       0.503198         244.136         157.712         243.968 
       0.509342           237.8         153.798         240.686 
       0.515458         235.631         150.058         238.642 
       0.521598         230.213         146.464         233.337 
       0.527764         227.739         143.017         228.747 
       0.533884         227.185         139.748         226.057 
           0.54         221.694         136.605         223.119 
       0.546137         216.797         133.548         220.796 
       0.552299         215.232         130.555         216.623 
       0.558452         211.495         127.637         213.473 
       0.564573         210.375         124.807         211.607 
       0.570708         205.485         122.043         208.575 
       0.576825         202.881         119.363         205.017 
       0.582926         200.785          116.77         202.347 
       0.589034         198.165          114.26         200.434 
       0.595184         196.506         111.823         197.377 
       0.601379         191.903         109.458         196.116 
       0.607522         189.309         107.191         192.603 
       0.613639         187.713         105.001         190.713 
       0.619772         185.533         102.863         187.828 
       0.625918         184.026         100.775         186.594 
       0.632068         180.256         98.7371         183.427 
       0.638161         177.857         96.7714          182.33 
         0.6443         177.276         94.8442         179.681 
       0.650464         174.184         92.9635         176.617 
       0.656582         173.316         91.1491         175.575 
       0.662703         171.454         89.3845         173.158 
       0.668861          168.13         87.6587         171.562 
       0.675024         168.137         85.9794         169.302 
       0.681124         165.472         84.3633         167.751 
       0.687237         162.742         82.7874         165.639 
       0.693381         162.186         81.2458         163.838 
       0.699536          160.07         79.7416         162.787 
       0.705665         157.789         78.2821         161.658 
       0.711789         155.953         76.8601         158.659 
       0.717957         154.443         75.4631         157.621 
        0.72409         153.604          74.108         156.989 
       0.730186         152.565         72.7943          155.06 
       0.736317         149.939         71.5054         153.095 
       0.742472         148.372         70.2433         151.764 
       0.748622         146.202         69.0136         150.102 
        0.75476         145.891         67.8169         148.676 
       0.760888         144.909         66.6513         146.983 
       0.767043         142.561         65.5094         146.318 
       0.773185         140.984         64.3972         145.337 
       0.779291         139.526         63.3178         143.859 
       0.785407         137.871          62.262         142.056 
       0.791564         137.618          61.224         140.967 
       0.797719         136.236         60.2104         140.018 
       0.803834         135.068         59.2264          138.26 
       0.809972         134.472         58.2611         137.327 
       0.816124         132.862         57.3153         136.567 
       0.822261         131.197         56.3934         135.052 
       0.828378         130.972         55.4947         133.359 
       0.834502         128.772         54.6151         133.139 
       0.840667          128.31         53.7491         132.271 
       0.846816         127.154         52.9046         130.801 
       0.852925         125.977         52.0838         129.741 
       0.859047         125.155         51.2789         128.454 
       0.865192          123.65         50.4887         127.824 
       0.871341         122.411         49.7148         126.541 
       0.877463         121.782         48.9609         125.923 
       0.883569         121.392         48.2247         124.929 
       0.889708         120.402         47.5001         123.942 
       0.895864         119.203         46.7888         123.115 
       0.902008         118.309         46.0937         122.009 
       0.908149         116.919         45.4134         121.105 
       0.914301         116.743         44.7458         120.567 
       0.920448         115.976         44.0925         119.506 
       0.926574         114.031         43.4547         118.057 
       0.932687         113.672          42.831         117.547 
       0.938823         112.707         42.2175         116.626 
       0.944975         111.511         41.6147         115.843 
       0.951105         110.703          41.026         115.169 
       0.957225         110.742         40.4499         114.507 
       0.963368         109.405          39.883         113.181 
       0.969511         108.439         39.3271          112.56 
       0.975621         107.759         38.7849         112.646 
       0.981748         106.772         38.2516         111.338 
       0.987916          105.99         37.7252         110.863 
        0.99406         105.578         37.2107         110.009 
        1.00019         104.418         36.7069         109.179 
        1.00632         103.871         36.2131         108.585 
        1.01246          103.09         35.7277         107.696 
        1.01859         102.632         35.2521          107.06 
        1.02471         101.551         34.7859         106.613 
        1.03085         100.868         34.3265         105.791 
        1.03698         100.265         33.8766         104.981 
        1.04314          99.614         33.4329         104.391 
        1.04929         99.0422         32.9982         104.055 
        1.05541         98.3636         32.5732         103.541 
        1.06154         97.8052         32.1546         102.735 
        1.06769         96.7151         31.7429         102.189 
        1.07382         96.1666         31.3398          101.52 
        1.07993         95.7615         30.9447         100.806 
        1.08607         94.9145         30.5548         100.167 
        1.09222         94.6247         30.1713         99.4267 
        1.09836         93.7012          29.795         98.9676 
        1.10449         93.2025         29.4256         98.3436 
        1.11063         92.4047         29.0621         97.5936 
        1.11677         92.1354         28.7049         97.0978 
         1.1229         91.2632         28.3545         96.8303 
        1.12903          91.106         28.0097         96.0971 
        1.13518          90.698         27.6703          95.558 
        1.14131         89.8697         27.3369         95.0524 
        1.14745         88.9738         27.0091          94.496 
        1.15359         88.2547         26.6868         94.2111 
        1.15973         88.1124         26.3696         93.5269 
        1.16584         87.4932         26.0591         92.9652 
        1.17197         86.6441         25.7532         92.4469 
        1.17811         86.2744         25.4513         91.7484 
        1.18424         85.4537         25.1552         91.2872 
        1.19038         85.3782         24.8629         91.1451 
        1.19652         84.9189         24.5755         90.3087 
        1.20267         84.2176         24.2927         90.0763 
        1.20881         83.6286         24.0144         89.4517 
        1.21495          83.334          23.741         89.0508 
        1.22108         82.8036         23.4719          88.571 
         1.2272         82.2015         23.2077         88.1928 
        1.23334         81.7516          22.947         87.6661 
        1.23949         81.3168         22.6896         87.0875 
        1.24562         80.6442          22.437          86.709 
        1.25174         80.1864         22.1887         86.3809 
        1.25789         80.2977         21.9434         85.8641 
        1.26402         79.4924         21.7023         85.3473 
        1.27014         79.0038         21.4654         84.9871 
        1.27628           78.34         21.2313         84.5764 
        1.28244         78.0818         21.0004         84.1002 
        1.28858         77.6288         20.7732         83.6971 
        1.29471         77.2874         20.5499         83.4107 
        1.30084         76.6438         20.3302         82.7111 
        1.30697          76.528         20.1133           82.28 
        1.31312         75.7961         19.8993         82.1588 
        1.31925         75.3733         19.6892         81.6503 
        1.32537         74.9979         19.4823         81.1785 
        1.33151          74.643         19.2777         80.8671 
        1.33765         74.1507         19.0761          80.501 
        1.34378         73.9668         18.8779         80.0358 
        1.34992         73.4056         18.6824         79.6951 
        1.35606         72.9313         18.4892         79.4138 
         1.3622         72.4605         18.2992         78.9909 
        1.36833         72.0339         18.1123         78.4692 
        1.37445         71.5585         17.9281         78.1817 
        1.38059         71.3641          17.746         78.0386 
        1.38675         70.6352          17.566         77.4374 
        1.39288         70.6028         17.3892         77.2357 
        1.39901         70.0306         17.2149          76.835 
        1.40515         69.7576         17.0427         76.4139 
         1.4113         69.5872         16.8729         76.1512 
        1.41742         69.1517         16.7061         75.8953 
        1.42355         68.5191         16.5412         75.3036 
         1.4297         68.1733         16.3781         74.9598 
        1.43585         67.7037         16.2173         74.7668 
        1.44198         67.3443         16.0593         74.5192 
        1.44809         67.0361         15.9037         73.8769 
        1.45423         66.7432         15.7496         73.6094 
        1.46036           66.33         15.5978         73.3706 
        1.46649         66.2114          15.448         73.1096 
        1.47263         65.6969         15.3001          72.831 
        1.47877         65.4073         15.1542         72.4092 
        1.48491           65.15           15.01         72.0294 
        1.49104         64.6211          14.868         71.6555 
        1.49718         64.3027         14.7277         71.3507 
        1.50333         64.1247          14.589         71.1521 
        1.50947         63.5753         14.4524         70.9029 
         1.5156         63.3435         14.3178          70.588 
        1.52172         62.9066         14.1849         70.2621 
        1.52787         62.5782         14.0535         69.9207 
          1.534         62.3716         13.9238         69.6768 
        1.54013         62.0545          13.796         69.3407 
        1.54627         61.5424         13.6695         68.9787 
        1.55241         61.2525         13.5446         68.7174 
        1.55855         61.0783         13.4215         68.4487 
        1.56467         60.7044         13.3002         68.0818 
         1.5708         60.4608         13.1802         67.9126 
        1.57695         60.1439         13.0614         67.6899 
        1.58308         59.6617         12.9444         67.2848 
        1.58922         59.4171         12.8287         67.0515 
        1.59535         59.2198         12.7145         66.8224 
         1.6015         59.0925         12.6016         66.4727 
        1.60764         58.7024         12.4901         66.1785 
        1.61376         58.2895         12.3802         65.9713 
        1.61989         57.9494         12.2716         65.6034 
        1.62604         57.7206         12.1641         65.3423 
        1.63218         57.4069         12.0579         65.1477 
        1.63831         57.2666         11.9533         64.8703 
        1.64444         56.8288         11.8499         64.5538 
        1.65059         56.6569         11.7474         64.3191 
        1.65673         56.1885         11.6463         64.0207 
        1.66285           56.13         11.5467         63.7709 
        1.66898         55.5342         11.4482         63.6605 
        1.67512         55.4975         11.3507         63.4259 
        1.68127         55.1641         11.2542         63.0549 
         1.6874         54.8574         11.1591         62.6928 
        1.69353         54.6453         11.0651         62.4755 
        1.69967         54.4542          10.972         62.3062 
        1.70581         53.9517         10.8801         62.1862 
        1.71193         53.7494         10.7895         61.9619 
        1.71806          53.572         10.6998         61.4711 
        1.72421         53.2979         10.6109          61.189 
        1.73035         52.9813         10.5232         61.1205 
        1.73649         52.6478         10.4365          60.979 
        1.74262         52.3192         10.3508         60.5229 
        1.74876         52.0455          10.266         60.2608 
        1.75489         51.8773         10.1824         60.1203 
        1.76101         51.6739         10.0997           59.88 
        1.76715          51.479         10.0179         59.6368 
        1.77329         51.0674         9.93682         59.4216 
        1.77943         51.0643         9.85665         59.2069 
        1.78557         50.7125         9.77749         58.9692 
        1.79171          50.477         9.69919         58.7144 
        1.79785         50.1694         9.62174         58.5295 
        1.80399         49.9393         9.54515         58.4035 
        1.81012         49.7398         9.46951          58.006 
        1.81625          49.372         9.39473         57.6706 
        1.82239         49.1567         9.32065         57.5844 
        1.82853         49.0399          9.2474         57.4497 
        1.83466         48.7211         9.17503         57.1941 
        1.84078         48.4532          9.1035          56.935 
        1.84692         48.1706         9.03263         56.8253 
        1.85306         47.9577         8.96243         56.6213 
         1.8592         47.7994         8.89309         56.3499 
        1.86533         47.5785         8.82453         56.1841 
        1.87147         47.3186         8.75662         55.9721 
