# k  (h/Mpc)    Pcb(k)  (Mpc/h)^3    Pcb_linear(k) (Mpc/h)^3    Pcb_NL(k) (Mpc/h)^3   ShotnoiseSubtracted = false
     0.00783031          6520.4         6548.39         6543.69 
       0.013688         8582.96         8752.62         8712.76 
       0.019231         9349.25          9453.9         9386.54 
      0.0249154          9277.2         9285.46         9212.75 
      0.0312784         8460.87         8542.03         8464.13 
      0.0375637          7520.7         7640.63         7560.34 
      0.0433917         6829.53         6877.21         6790.73 
      0.0492413         6173.37         6266.42         6179.34 
      0.0555754         5727.04         5780.17         5692.68 
      0.0619321         5234.89         5417.78         5326.94 
       0.067871         5008.33         5124.68         5033.81 
      0.0738098         4731.45         4822.16         4707.06 
      0.0800417         4390.69         4466.74         4354.43 
      0.0862327         3993.28         4079.99         3993.85 
      0.0921407         3633.45          3706.2         3624.85 
      0.0982031         3321.07         3351.17         3301.52 
       0.104506         2983.44         3040.41         3017.67 
       0.110769         2760.49         2802.09         2768.07 
       0.116806         2639.12         2633.46         2600.55 
       0.122832         2483.08         2508.25         2483.56 
       0.129052         2380.02         2401.51         2377.92 
       0.135211         2306.68         2297.12         2273.64 
       0.141259         2165.03         2182.52         2170.69 
       0.147318         2012.73         2052.36         2054.39 
       0.153489          1898.8         1909.71          1897.2 
       0.159709         1801.32         1767.08         1776.39 
       0.165845         1643.02            1639         1682.44 
       0.171974         1592.62          1531.4         1579.22 
       0.178125         1526.38         1446.18         1518.88 
       0.184229         1421.59         1381.37         1452.12 
        0.19034            1396         1329.92         1400.99 
       0.196428         1356.15         1284.51         1343.38 
       0.202534         1277.98         1238.18         1301.95 
       0.208729         1254.34         1186.22         1243.08 
       0.214876         1206.87         1129.02         1206.99 
       0.220989         1130.79          1068.8         1158.12 
       0.227147         1103.72         1008.67         1104.77 
        0.23329         1060.09         953.156         1067.55 
       0.239377         1038.68         905.277         1026.82 
       0.245482         987.519         865.288         980.505 
       0.251667          950.67         832.099         957.614 
       0.257832         941.589         804.215         928.046 
       0.263955         895.272         779.034          900.65 
       0.270079         869.933          753.97         874.562 
        0.27624         834.173         727.425         846.114 
       0.282372         818.519         699.282         821.873 
        0.28843         811.788         670.426         795.206 
       0.294538         771.408         641.521         773.964 
       0.300721         747.954         613.808         752.954 
        0.30691         735.981         588.692         735.542 
       0.313033          706.03         566.843         711.585 
       0.319153         694.939         547.852         694.702 
       0.325316         682.285         530.902         682.787 
        0.33145         668.793         515.347         659.469 
       0.337538         646.254          500.34         645.058 
       0.343633         627.767          485.19         636.596 
       0.349808         613.272         469.471           623.6 
       0.355968         601.952         453.542         611.293 
       0.362074         585.018         437.892         596.373 
       0.368217         580.348         422.714         578.518 
       0.374374         569.552         408.488          567.56 
       0.380519         548.058         395.449         554.755 
       0.386598         541.533         383.709         545.648 
       0.392688         531.059         372.932         533.991 
        0.39888         517.233         362.671         524.362 
       0.405048         509.331         352.873         518.658 
       0.411186         506.274         343.289         505.569 
       0.417313         499.129         333.747          493.69 
       0.423458         485.025         324.232         485.921 
       0.429607         474.036          314.83         476.221 
       0.435692           465.8         305.783          467.83 
       0.441815          459.04         297.086          463.97 
       0.447964         448.743         288.843         454.962 
       0.454126         442.958         281.084          444.22 
       0.460267         436.674         273.833         441.304 
       0.466387         430.085         266.996         432.772 
        0.47254          424.24         260.393         427.138 
       0.478662         413.788         254.007         419.408 
       0.484765         409.888          247.78         410.636 
       0.490885         405.753         241.638         405.936 
       0.497035         399.058         235.571          401.63 
       0.503198         396.976          229.65         395.332 
       0.509342         386.741         223.951         390.728 
       0.515458         382.121         218.505         387.855 
       0.521598         374.941         213.272         380.262 
       0.527764         370.119         208.252         374.338 
       0.533884         369.512         203.492         370.215 
           0.54         362.901         198.916         365.529 
       0.546137         355.169         194.464         361.633 
       0.552299         354.441         190.105          356.07 
       0.558452         348.751         185.857         351.987 
       0.564573         345.425         181.736         348.993 
       0.570708         340.427         177.711         345.167 
       0.576825         334.888         173.808         338.933 
       0.582926         331.718         170.033         335.085 
       0.589034         327.719         166.378         331.627 
       0.595184         325.672          162.83         326.644 
       0.601379         319.542         159.386         325.327 
       0.607522         314.641         156.085         321.153 
       0.613639         312.503         152.896         317.804 
       0.619772         310.582         149.783         314.702 
       0.625918         306.912         146.741          312.02 
       0.632068         301.496         143.775         307.012 
       0.638161         298.557         140.912         305.231 
         0.6443          297.23         138.106          302.05 
       0.650464         292.369         135.368         297.128 
       0.656582         289.991         132.726         294.866 
       0.662703          287.92         130.156         292.731 
       0.668861          283.12         127.643         289.708 
       0.675024         282.202         125.198         286.418 
       0.681124         278.795         122.844         283.699 
       0.687237         275.827          120.55         280.666 
       0.693381         273.626         118.305         278.105 
       0.699536          270.31         116.115         276.014 
       0.705665           267.4         113.989         274.463 
       0.711789         265.262         111.919         270.586 
       0.717957         262.239         109.885         268.625 
        0.72409         260.341         107.911         267.403 
       0.730186         260.472         105.998         264.864 
       0.736317         256.097         104.122         261.812 
       0.742472         252.821         102.284         259.542 
       0.748622         249.542         100.493         256.932 
        0.75476         250.198         98.7507         255.355 
       0.760888         247.307         97.0534         252.356 
       0.767043         244.285         95.3906         251.086 
       0.773185         242.412         93.7711         249.477 
       0.779291         239.176         92.1994          247.07 
       0.785407         237.903          90.662         244.632 
       0.791564         235.805         89.1505         243.104 
       0.797719          232.79         87.6746         241.658 
       0.803834         233.342         86.2417         239.122 
       0.809972         231.526         84.8361          237.46 
       0.816124         228.553         83.4589          235.87 
       0.822261         225.963         82.1164         233.886 
       0.828378         226.257         80.8078         231.386 
       0.834502          222.24          79.527         230.616 
       0.840667         221.887          78.266         229.277 
       0.846816         219.439         77.0363         226.962 
       0.852925         217.766         75.8411          225.15 
       0.859047         215.474         74.6691         223.625 
       0.865192         215.011         73.5184         222.365 
       0.871341         212.175         72.3915         220.385 
       0.877463         210.629         71.2937         219.449 
       0.883569         210.313         70.2218         217.782 
       0.889708         208.647         69.1667         216.313 
       0.895864          206.65         68.1309         215.132 
       0.902008         204.862         67.1187         212.926 
       0.908149         202.717         66.1281         211.298 
       0.914301         202.556          65.156         210.607 
       0.920448         201.224         64.2047         208.805 
       0.926574          198.78         63.2759         206.778 
       0.932687          197.94         62.3677         205.325 
       0.938823         196.425         61.4744         204.681 
       0.944975         194.463         60.5967         203.647 
       0.951105         193.179         59.7395         202.002 
       0.957225         192.654         58.9006         200.643 
       0.963368         190.763         58.0751         198.593 
       0.969511         188.682         57.2656         197.719 
       0.975621         187.661         56.4761         197.875 
       0.981748          186.16         55.6996           195.7 
       0.987916         185.232          54.933         194.938 
        0.99406         184.074         54.1838         193.613 
        1.00019         182.744         53.4503         191.952 
        1.00632         182.043         52.7312         190.572 
        1.01246         180.438         52.0244         189.205 
        1.01859         178.944         51.3319         188.633 
        1.02471         177.661         50.6529         187.965 
        1.03085          176.64         49.9841          186.58 
        1.03698         175.273         49.3289         185.153 
        1.04314         174.547         48.6828         184.327 
        1.04929         173.716         48.0499         183.382 
        1.05541         172.462          47.431         182.361 
        1.06154         171.442         46.8215         181.464 
        1.06769         169.674         46.2219         180.422 
        1.07382         168.913          45.635         179.287 
        1.07993         167.974         45.0596          178.18 
        1.08607         166.432         44.4919         177.413 
        1.09222         165.828         43.9336         176.288 
        1.09836         164.309         43.3856         175.178 
        1.10449         163.115         42.8477           174.1 
        1.11063         162.162         42.3184         172.833 
        1.11677         161.433         41.7983         172.131 
         1.1229         160.088          41.288         171.438 
        1.12903         159.624         40.7859         170.309 
        1.13518         158.454         40.2918         169.407 
        1.14131         157.538         39.8062         168.311 
        1.14745          156.18          39.329         167.482 
        1.15359         154.764         38.8596         166.512 
        1.15973         154.255         38.3978         165.833 
        1.16584         153.416         37.9456         164.798 
        1.17197         152.556         37.5002          163.79 
        1.17811         151.287         37.0605          163.23 
        1.18424         150.399         36.6293         162.297 
        1.19038         149.918         36.2038         161.579 
        1.19652         148.544         35.7853         160.597 
        1.20267         147.696         35.3735         159.769 
        1.20881         146.761         34.9683         159.119 
        1.21495         146.387         34.5701         157.825 
        1.22108         145.054         34.1783         157.458 
         1.2272         144.068         33.7936         156.435 
        1.23334         143.611         33.4139          155.79 
        1.23949         142.981         33.0392         154.773 
        1.24562         141.634         32.6714         154.103 
        1.25174         140.434         32.3098          153.33 
        1.25789         140.326         31.9526         152.608 
        1.26402         139.412         31.6015         151.711 
        1.27014          138.54         31.2565         151.568 
        1.27628         137.004         30.9157         150.917 
        1.28244         136.818         30.5794         149.394 
        1.28858         135.692         30.2486         148.687 
        1.29471         134.877         29.9235         148.331 
        1.30084          134.18         29.6035         147.358 
        1.30697         133.897         29.2877         146.602 
        1.31312         132.774         28.9761          145.87 
        1.31925         131.785         28.6701         145.168 
        1.32537         131.182         28.3689         144.468 
        1.33151          130.75         28.0709         143.834 
        1.33765         129.329         27.7774         143.227 
        1.34378         129.412         27.4888         142.314 
        1.34992         128.623         27.2041         141.794 
        1.35606         127.604         26.9228         140.958 
         1.3622         127.231         26.6461         140.362 
        1.36833         125.868          26.374         139.534 
        1.37445         125.379         26.1058          138.75 
        1.38059         124.783         25.8406         138.482 
        1.38675         123.832         25.5784         137.513 
        1.39288         123.337          25.321         137.089 
        1.39901         122.127         25.0673         136.428 
        1.40515         122.019         24.8165         135.794 
         1.4113          121.27         24.5692         135.275 
        1.41742         120.384         24.3263         134.651 
        1.42355         119.813         24.0863         133.792 
         1.4297          119.08         23.8488         133.143 
        1.43585         118.173         23.6146         132.644 
        1.44198         117.545         23.3845         132.149 
        1.44809         116.785         23.1579         131.257 
        1.45423         116.254         22.9335         130.587 
        1.46036         115.337         22.7126         130.104 
        1.46649         114.811         22.4944         129.722 
        1.47263          114.42          22.279         129.196 
        1.47877         113.646         22.0666         128.283 
        1.48491         112.821         21.8566         127.943 
        1.49104         111.862         21.6498         127.259 
        1.49718         111.829         21.4455         126.449 
        1.50333         111.115         21.2436         126.066 
        1.50947         110.662         21.0447          125.54 
         1.5156          109.94         20.8487         124.966 
        1.52172         109.214         20.6552         124.556 
        1.52787         108.433         20.4637         123.758 
          1.534         108.226          20.275          123.28 
        1.54013          107.57         20.0888         122.706 
        1.54627         106.638         19.9047         122.162 
        1.55241         106.072         19.7228         121.752 
        1.55855         105.647         19.5435         120.951 
        1.56467          104.67          19.367         120.378 
         1.5708         104.449         19.1921          120.04 
        1.57695         103.939         19.0192         119.545 
        1.58308         103.315         18.8488          118.97 
        1.58922         102.907         18.6804         118.435 
        1.59535         102.328         18.5141         117.912 
         1.6015         101.844         18.3496         117.353 
        1.60764          101.13         18.1872         116.968 
        1.61376         100.442         18.0273         116.629 
        1.61989           99.76         17.8692         115.934 
        1.62604          99.372         17.7126         115.327 
        1.63218         98.9974          17.558         114.875 
        1.63831         98.2707         17.4056         114.514 
        1.64444         97.7982          17.255         114.043 
        1.65059         97.2333         17.1059         113.276 
        1.65673         96.4581         16.9586         112.879 
        1.66285         95.9751         16.8136         112.556 
        1.66898         95.3685         16.6701         111.948 
        1.67512         95.2307         16.5281         111.621 
        1.68127         94.5473         16.3877         111.093 
         1.6874         94.0051         16.2492         110.391 
        1.69353         93.4572         16.1123         109.936 
        1.69967         93.1631         15.9768         109.637 
        1.70581         92.5889         15.8429         109.151 
        1.71193         91.9988          15.711         108.627 
        1.71806         91.2877         15.5804         108.415 
        1.72421          90.964          15.451         107.848 
        1.73035         90.7216         15.3232          107.29 
        1.73649         90.0293         15.1969          106.96 
        1.74262          89.267         15.0721         106.483 
        1.74876         89.0392         14.9487         105.976 
        1.75489         88.2939         14.8269         105.527 
        1.76101          87.862         14.7066         105.071 
        1.76715          87.616         14.5874         104.515 
        1.77329         86.8856         14.4694         104.161 
        1.77943         86.6066         14.3526         103.799 
        1.78557         86.2627         14.2374         103.191 
        1.79171         85.6086         14.1233         102.782 
        1.79785         85.1553         14.0106         102.492 
        1.80399         84.6797          13.899         102.052 
        1.81012         84.1517         13.7889          101.64 
        1.81625         83.9498           13.68         101.201 
        1.82239         83.6355         13.5721         100.765 
        1.82853         82.8838         13.4655         100.474 
        1.83466         82.4278         13.3601         99.9993 
        1.84078         82.0377         13.2559         99.4764 
        1.84692         81.6753         13.1527         99.3268 
        1.85306         81.2537         13.0505         98.9238 
         1.8592         80.8235         12.9496          98.354 
        1.86533         80.2337         12.8497         98.0338 
        1.87147         79.8302         12.7508         97.5002 
