# k  (h/Mpc)    Pcb(k)  (Mpc/h)^3    Pcb_linear(k) (Mpc/h)^3    Pcb_NL(k) (Mpc/h)^3   ShotnoiseSubtracted = false
     0.00783031         5832.32         5858.04         5854.12 
       0.013688         7685.03         7830.12         7795.82 
       0.019231         8369.68          8457.6         8399.86 
      0.0249154         8301.24         8306.97         8246.32 
      0.0312784         7576.08         7641.92         7578.75 
      0.0375637         6737.31         6835.52          6770.8 
      0.0433917         6116.35         6152.56         6083.47 
      0.0492413         5531.09         5606.14         5536.75 
      0.0555754         5131.25         5171.13         5101.23 
      0.0619321         4696.12         4846.92         4774.27 
       0.067871         4491.45         4584.72         4511.76 
      0.0738098         4241.82         4314.07         4221.54 
      0.0800417         3937.05          3996.1          3905.8 
      0.0862327         3581.03         3650.11         3580.98 
      0.0921407         3257.38          3315.7         3250.48 
      0.0982031         2975.49         2998.08         2958.67 
       0.104506         2673.35         2720.06         2702.48 
       0.110769         2472.91         2506.85          2479.9 
       0.116806         2362.77         2355.99         2329.93 
       0.122832         2223.36         2243.97         2224.63 
       0.129052          2132.3         2148.48          2129.9 
       0.135211         2064.74         2055.09         2036.75 
       0.141259         1939.25         1952.56         1943.49 
       0.147318         1802.99         1836.11         1838.72 
       0.153489         1699.72          1708.5         1698.86 
       0.159709         1609.48         1580.89         1589.15 
       0.165845         1468.19         1466.31         1502.75 
       0.171974         1421.46         1370.05         1409.69 
       0.178125          1360.2         1293.81         1353.95 
       0.184229         1268.76         1235.82         1294.75 
        0.19034         1244.62          1189.8         1248.74 
       0.196428         1208.33         1149.17          1197.5 
       0.202534         1138.93         1107.72          1160.1 
       0.208729         1117.19         1061.23         1108.13 
       0.214876         1075.11         1010.06         1074.78 
       0.220989         1005.62         956.184         1030.06 
       0.227147         981.248         902.392         981.391 
        0.23329         942.009         852.729         947.267 
       0.239377         920.655         809.895         910.735 
       0.245482         874.918         774.119         869.325 
       0.251667         841.939         744.427         848.315 
       0.257832         833.919          719.48         821.937 
       0.263955         792.448         696.953         797.351 
       0.270079         769.549         674.529         773.848 
        0.27624         737.811         650.781         748.221 
       0.282372         722.886         625.604         726.217 
        0.28843         717.084         599.789         701.999 
       0.294538         681.438         573.928         682.821 
       0.300721         659.257         549.136         664.145 
        0.30691          648.81         526.666         647.697 
       0.313033          622.36         507.119         626.288 
       0.319153         612.164         490.129         611.515 
       0.325316         599.691         474.965         600.564 
        0.33145         587.409         461.049         580.075 
       0.337538         567.807         447.623         566.757 
       0.343633         551.199         434.069         558.739 
       0.349808         538.034         420.006         547.032 
       0.355968         527.686         405.756         535.957 
       0.362074         513.472         391.755         522.494 
       0.368217         508.368         378.176         506.503 
       0.374374         498.437         365.448         496.639 
       0.380519         479.303         353.784           485.1 
       0.386598         473.016         343.281         476.541 
       0.392688         463.627         333.639         466.695 
        0.39888         451.838         324.459         457.413 
       0.405048         444.747         315.694         452.212 
       0.411186         441.577          307.12         441.033 
       0.417313         434.348         298.582         430.056 
       0.423458         422.452          290.07         422.976 
       0.429607         413.381         281.658         414.626 
       0.435692         405.723         273.565         407.162 
       0.441815         399.548         265.784          403.53 
       0.447964         389.971          258.41         395.363 
       0.454126         384.593         251.468         385.947 
       0.460267         379.559         244.982         383.029 
       0.466387          373.46         238.864         375.549 
        0.47254         368.683         232.957         370.346 
       0.478662         358.902         227.245         363.587 
       0.484765         355.299         221.673         355.721 
       0.490885         351.426         216.178         351.701 
       0.497035         346.251         210.751         347.812 
       0.503198           343.4         205.453         342.211 
       0.509342         334.378         200.355         338.083 
       0.515458         330.841         195.483         335.483 
       0.521598         324.047         190.801         328.632 
       0.527764         320.178          186.31         323.108 
       0.533884         319.757         182.052         319.514 
           0.54         313.313         177.958         315.459 
       0.546137         306.521         173.975         312.156 
       0.552299          305.49         170.075             307 
       0.558452         300.457         166.275         303.199 
       0.564573         297.978         162.588         300.626 
       0.570708         292.844         158.987         296.985 
       0.576825         288.392         155.496         291.661 
       0.582926         285.482         152.118         288.245 
       0.589034         282.079         148.848          285.43 
       0.595184          280.24         145.674         280.993 
       0.601379         274.576         142.593          279.86 
       0.607522         270.453          139.64         275.855 
       0.613639         268.431         136.786         272.975 
       0.619772          266.39         134.002         269.755 
       0.625918         263.725          131.28         267.702 
       0.632068         258.503         128.626         263.289 
       0.638161         255.811         126.066         261.885 
         0.6443         254.871         123.555         258.812 
       0.650464         250.533         121.105         254.525 
       0.656582         248.776         118.741         252.732 
       0.662703         246.767         116.443         250.356 
       0.668861         242.404         114.194         247.849 
       0.675024          242.01         112.007         244.852 
       0.681124         238.738         109.901         242.755 
       0.687237         235.824         107.848         239.956 
       0.693381         234.295          105.84          237.65 
       0.699536         231.342          103.88         235.866 
       0.705665         228.588         101.979         234.597 
       0.711789         226.425         100.127         230.892 
       0.717957         224.052         98.3068         229.213 
        0.72409         222.622         96.5416         228.312 
       0.730186          222.19         94.8301         225.953 
       0.736317         218.507         93.1511         223.292 
       0.742472         215.778          91.507         221.378 
       0.748622         212.809          89.905         219.063 
        0.75476         213.298         88.3461         217.404 
       0.760888         211.086         86.8277         214.887 
       0.767043         208.203           85.34         213.858 
       0.773185         206.229         83.8912          212.56 
       0.779291         203.828          82.485         210.485 
       0.785407         202.331         81.1096         208.157 
       0.791564         200.943         79.7574         206.847 
       0.797719         198.571          78.437         205.584 
       0.803834         198.343         77.1551         203.198 
       0.809972         197.195         75.8975         201.836 
       0.816124          194.62         74.6655         200.643 
       0.822261         192.417         73.4645         198.797 
       0.828378         192.514         72.2937         196.491 
       0.834502          189.02         71.1479         195.963 
       0.840667         188.608         70.0197         194.913 
       0.846816         186.856         68.9195         192.754 
       0.852925         185.147         67.8503         191.193 
       0.859047         183.357         66.8018         189.776 
       0.865192         182.492         65.7723         188.786 
       0.871341         180.261         64.7642         186.997 
       0.877463         179.132          63.782         186.239 
       0.883569         178.787          62.823          184.71 
       0.889708         177.404         61.8791         183.521 
       0.895864         175.583         60.9524         182.457 
       0.902008         174.185          60.047         180.576 
       0.908149         172.116         59.1606         179.251 
       0.914301         172.233          58.291         178.614 
       0.920448         170.969         57.4399         177.173 
       0.926574         168.654          56.609         175.213 
       0.932687           168.1         55.7965         174.103 
       0.938823         166.742         54.9973         173.335 
       0.944975         164.925         54.2121           172.4 
       0.951105         163.918         53.4452         171.057 
       0.957225         163.751         52.6947         170.035 
       0.963368          161.85         51.9562         168.178 
       0.969511         160.305          51.232         167.415 
       0.975621         159.338         50.5256         167.692 
       0.981748         158.021         49.8309         165.715 
       0.987916         157.119         49.1451         165.102 
        0.99406         156.332         48.4749         163.865 
        1.00019         154.928         47.8187          162.49 
        1.00632         154.333         47.1753         161.481 
        1.01246         152.996          46.543         160.263 
        1.01859         151.947         45.9234         159.664 
        1.02471         150.791          45.316         159.092 
        1.03085         149.737         44.7177         157.901 
        1.03698         148.749         44.1315         156.621 
        1.04314         147.903         43.5535         155.965 
        1.04929         147.335         42.9873         155.313 
        1.05541         146.331         42.4335         154.447 
        1.06154         145.416         41.8883         153.614 
        1.06769         143.933         41.3519          152.73 
        1.07382         143.077         40.8268         151.764 
        1.07993         142.495          40.312         150.804 
        1.08607         141.135         39.8042         150.034 
        1.09222         140.739         39.3046         148.973 
        1.09836         139.202         38.8144          148.09 
        1.10449         138.449         38.3331         147.256 
        1.11063         137.524         37.8596          146.14 
        1.11677         136.814         37.3943         145.506 
         1.1229         135.767         36.9378         145.041 
        1.12903         135.388         36.4886         143.984 
        1.13518         134.441         36.0465         143.257 
        1.14131         133.669         35.6121         142.348 
        1.14745         132.495         35.1852         141.643 
        1.15359         131.331         34.7653         140.872 
        1.15973         130.869         34.3521         140.282 
        1.16584         130.061         33.9476         139.444 
        1.17197         129.285          33.549         138.626 
        1.17811         128.388         33.1558         137.919 
        1.18424         127.513           32.77         137.225 
        1.19038         127.342         32.3893         136.704 
        1.19652           126.2         32.0149         135.695 
        1.20267         125.325         31.6464         135.085 
        1.20881         124.565         31.2839         134.442 
        1.21495         124.156         30.9277         133.509 
        1.22108         123.159         30.5772         133.076 
         1.2272         122.256          30.233          132.33 
        1.23334         121.804         29.8933         131.703 
        1.23949         121.204         29.5581         130.822 
        1.24562         120.076         29.2291         130.352 
        1.25174         119.214         28.9055         129.683 
        1.25789         119.261          28.586         129.051 
        1.26402         118.231         28.2719         128.325 
        1.27014         117.607         27.9633         128.073 
        1.27628         116.417         27.6584         127.492 
        1.28244         116.159         27.3575         126.303 
        1.28858         115.288         27.0616         125.714 
        1.29471         114.622         26.7707         125.445 
        1.30084         113.916         26.4844         124.513 
        1.30697          113.86         26.2019         123.881 
        1.31312         112.785         25.9231         123.456 
        1.31925         112.146         25.6494         122.782 
        1.32537         111.451         25.3799         122.125 
        1.33151         111.261         25.1133         121.646 
        1.33765         110.102         24.8507         121.115 
        1.34378         110.048         24.5925         120.369 
        1.34992           109.3         24.3378         119.938 
        1.35606         108.507         24.0862         119.277 
         1.3622         108.093         23.8386         118.773 
        1.36833         107.122         23.5952         117.982 
        1.37445         106.449         23.3552         117.415 
        1.38059         106.108          23.118         117.231 
        1.38675          105.21         22.8834         116.323 
        1.39288         105.006         22.6531         116.034 
        1.39901         103.884         22.4261         115.437 
        1.40515          103.75         22.2017         114.924 
         1.4113         103.167         21.9805          114.53 
        1.41742         102.514         21.7632          113.93 
        1.42355         101.856         21.5485         113.124 
         1.4297         101.317          21.336         112.619 
        1.43585         100.616         21.1265         112.284 
        1.44198         100.113         20.9207         111.915 
        1.44809         99.5194         20.7179         111.037 
        1.45423         98.9315         20.5172          110.56 
        1.46036         98.1597         20.3195         110.189 
        1.46649         97.9248         20.1244          109.85 
        1.47263         97.4217         19.9317         109.405 
        1.47877         96.9408         19.7416         108.634 
        1.48491         96.2635         19.5537         108.355 
        1.49104         95.4977         19.3687         107.671 
        1.49718         95.2663          19.186         107.124 
        1.50333         94.7737         19.0053         106.768 
        1.50947         94.3462         18.8274          106.32 
         1.5156         93.7937          18.652         105.876 
        1.52172         93.1642         18.4789         105.477 
        1.52787         92.5128         18.3076         104.895 
          1.534         92.3308         18.1388         104.513 
        1.54013         91.8125         17.9722         104.002 
        1.54627         91.0093         17.8075         103.522 
        1.55241         90.4923         17.6448         103.158 
        1.55855         90.2343         17.4844          102.53 
        1.56467         89.3695         17.3264         102.035 
         1.5708          89.182           17.17         101.772 
        1.57695         88.7014         17.0153         101.411 
        1.58308         88.1827         16.8628         100.933 
        1.58922         87.7864         16.7122         100.494 
        1.59535          87.355         16.5634         100.043 
         1.6015         87.1267         16.4163         99.5379 
        1.60764         86.5546          16.271         99.2044 
        1.61376          85.912         16.1279         98.9444 
        1.61989         85.2035         15.9864         98.3594 
        1.62604         84.9695         15.8464         97.8365 
        1.63218         84.6366         15.7081         97.4549 
        1.63831         84.1884         15.5717         97.1441 
        1.64444         83.7012          15.437          96.745 
        1.65059         83.3168         15.3035          96.163 
        1.65673          82.558         15.1718         95.7963 
        1.66285         82.2115          15.042         95.4928 
        1.66898         81.6064         14.9137         95.0666 
        1.67512         81.5961         14.7867          94.816 
        1.68127         80.9891          14.661          94.349 
         1.6874         80.5012         14.5371         93.7281 
        1.69353         80.1798         14.4147         93.3441 
        1.69967         79.7938         14.2934          93.151 
        1.70581         79.3238         14.1736         92.8156 
        1.71193         78.8397         14.0556         92.3677 
        1.71806         78.3175         13.9388         92.0586 
        1.72421          78.049          13.823          91.566 
        1.73035          77.786         13.7087         91.2229 
        1.73649          77.271         13.5957         91.0338 
        1.74262         76.5708         13.4841         90.4714 
        1.74876          76.386         13.3737         90.0233 
        1.75489          75.756         13.2647         89.7373 
        1.76101         75.3983          13.157         89.3848 
        1.76715         75.3674         13.0504         88.8962 
        1.77329         74.5756         12.9448         88.5693 
        1.77943         74.4325         12.8404         88.2624 
        1.78557         74.1412         12.7373         87.7704 
        1.79171         73.5796         12.6353         87.4127 
        1.79785          73.253         12.5344         87.1811 
        1.80399         72.8161         12.4346         86.8781 
        1.81012         72.4351         12.3361         86.4578 
        1.81625         72.1692         12.2386         86.0429 
        1.82239         71.8688         12.1421         85.7619 
        1.82853         71.3799         12.0467         85.5726 
        1.83466         70.9572         11.9524         85.1512 
        1.84078         70.5579         11.8593         84.6652 
        1.84692         70.2283         11.7669         84.5565 
        1.85306         69.9122         11.6755         84.2344 
         1.8592         69.6174         11.5852         83.7576 
        1.86533         69.0532         11.4958         83.5281 
        1.87147         68.7932         11.4074         83.1455 
