# k  (h/Mpc)    Pcb(k)  (Mpc/h)^3    Pcb_linear(k) (Mpc/h)^3    Pcb_NL(k) (Mpc/h)^3   ShotnoiseSubtracted = false
     0.00783031         4124.11         4143.74          4141.4 
       0.013688         5449.39         5539.19         5517.28 
       0.019231         5931.71         5983.31          5946.9 
      0.0249154         5875.13         5876.87         5841.74 
      0.0312784         5371.92         5406.45          5373.3 
      0.0375637         4783.15            4836         4802.87 
      0.0433917         4338.41         4352.84         4318.73 
      0.0492413         3928.03         3966.27         3932.37 
      0.0555754          3643.5         3658.52         3624.02 
      0.0619321         3346.29         3429.16          3393.2 
       0.067871         3197.03         3243.65         3207.01 
      0.0738098         3016.95         3052.18         3005.42 
      0.0800417         2801.17         2827.22         2781.63 
      0.0862327         2548.79         2582.43         2547.79 
      0.0921407         2316.78         2345.84         2313.41 
      0.0982031         2112.74         2121.13         2102.23 
       0.104506         1899.34         1924.43          1916.9 
       0.110769         1755.63         1773.59         1760.92 
       0.116806         1674.14         1666.86         1654.61 
       0.122832         1576.66          1587.6         1578.91 
       0.129052         1513.97         1520.05         1511.55 
       0.135211         1462.32         1453.97         1445.78 
       0.141259         1375.99         1381.43         1377.77 
       0.147318         1280.31         1299.05         1302.07 
       0.153489         1204.53         1208.76         1204.84 
       0.159709         1134.77         1118.48          1124.1 
       0.165845         1036.07         1037.41         1058.39 
       0.171974         998.919          969.31         991.431 
       0.178125         951.959         915.369          948.53 
       0.184229         892.023         874.343         907.438 
        0.19034         872.575         841.781          874.54 
       0.196428         845.554         813.037         839.262 
       0.202534         798.249          783.71         812.138 
       0.208729         781.024         750.823         776.632 
       0.214876         751.739         714.618         750.628 
       0.220989         700.775           676.5         717.186 
       0.227147         682.538         638.442         681.245 
        0.23329         653.981         603.306         655.158 
       0.239377           634.7             573          628.91 
       0.245482         602.897         547.689         599.956 
       0.251667         579.357         526.682         583.882 
       0.257832         573.129         509.033          565.41 
       0.263955         544.606         493.094         547.989 
       0.270079         528.217          477.23         531.125 
        0.27624         506.303         460.428         512.801 
       0.282372         493.938         442.615          496.87 
        0.28843         489.366         424.351         479.349 
       0.294538         465.559         406.055         465.047 
       0.300721         447.694         388.514         451.636 
        0.30691         440.215         372.616         438.468 
       0.313033         422.353         358.787         423.464 
       0.319153         415.014         346.767         413.435 
       0.325316         403.554         336.038         405.047 
        0.33145         394.157         326.192         391.427 
       0.337538         381.805         316.693         381.398 
       0.343633         370.395         307.104         374.592 
       0.349808          360.73         297.155         366.076 
       0.355968         352.651         287.072         358.277 
       0.362074         344.493         277.167         348.485 
       0.368217         338.861          267.56         337.117 
       0.374374         331.651         258.555          330.09 
       0.380519         318.266         250.302         321.713 
       0.386598         312.838         242.871         314.975 
       0.392688         305.856          236.05          308.86 
        0.39888         299.138         229.555          301.26 
       0.405048         293.792         223.353         296.991 
       0.411186         290.288         217.287         290.505 
       0.417313         284.073         211.247         282.351 
       0.423458         276.881         205.225         277.128 
       0.429607         271.715         199.273         271.504 
       0.435692         266.451         193.547         266.352 
       0.441815         260.934         188.043         263.377 
       0.447964         253.888         182.825         257.371 
       0.454126          249.69         177.914         251.084 
       0.460267          247.35         173.325         248.443 
       0.466387         242.602         168.997         243.319 
        0.47254          239.85         164.817         239.496 
       0.478662         232.462         160.776         235.014 
       0.484765         229.689         156.834         229.666 
       0.490885         226.078         152.946         226.972 
       0.497035         224.046         149.106         224.094 
       0.503198         220.008         145.358         220.051 
       0.509342         214.368         141.751         217.005 
       0.515458          212.42         138.305         215.103 
       0.521598         207.458         134.992         210.195 
       0.527764         205.272         131.815         205.899 
       0.533884         204.589         128.802         203.419 
           0.54          199.51         125.905         200.737 
       0.546137         195.058         123.087         198.631 
       0.552299         193.431         120.329         194.767 
       0.558452         190.034          117.64         191.812 
       0.564573         189.159         115.031         190.093 
       0.570708         184.468         112.484         187.282 
       0.576825         182.258         110.013         184.144 
       0.582926         180.381         107.624         181.657 
       0.589034         177.922          105.31         179.914 
       0.595184         176.294         103.064           177.2 
       0.601379         172.041         100.885         175.885 
       0.607522         169.793         98.7952         172.577 
       0.613639         168.338         96.7764         170.901 
       0.619772         166.188         94.8063         168.225 
       0.625918         164.785          92.881         167.134 
       0.632068         161.577         91.0032         164.254 
       0.638161         159.251         89.1915         163.188 
         0.6443         158.682         87.4152         160.705 
       0.650464         155.881         85.6818         157.977 
       0.656582         155.151         84.0095         157.056 
       0.662703         153.401         82.3832         154.739 
       0.668861         150.367         80.7926         153.326 
       0.675024         150.351         79.2448         151.281 
       0.681124         147.943         77.7553         149.789 
       0.687237         145.328         76.3028         147.885 
       0.693381         144.875          74.882         146.222 
       0.699536         143.025         73.4955         145.337 
       0.705665         140.898         72.1504          144.21 
       0.711789          139.21         70.8398         141.464 
       0.717957         137.846         69.5522         140.581 
        0.72409         137.067         68.3032          139.96 
       0.730186         136.033         67.0924         138.171 
       0.736317         133.661         65.9045         136.385 
       0.742472         132.335         64.7413         135.177 
       0.748622         130.389         63.6079         133.668 
        0.75476         129.845         62.5049         132.378 
       0.760888         129.107         61.4306         130.876 
       0.767043         126.954         60.3781         130.266 
       0.773185          125.58         59.3531          129.33 
       0.779291         124.262         58.3582         128.004 
       0.785407         122.666         57.3851         126.376 
       0.791564         122.575         56.4284         125.325 
       0.797719         121.355         55.4942         124.463 
       0.803834         120.134         54.5873         122.918 
       0.809972         119.545         53.6976         122.059 
       0.816124         118.177         52.8259         121.338 
       0.822261         116.649         51.9762         119.924 
       0.828378         116.391         51.1479         118.422 
       0.834502         114.516         50.3372         118.246 
       0.840667         114.049          49.539         117.358 
       0.846816         112.928         48.7606         116.105 
       0.852925         111.975         48.0041         115.204 
       0.859047         111.308         47.2623         113.959 
       0.865192         109.789          46.534         113.366 
       0.871341          108.72         45.8207         112.249 
       0.877463          108.17         45.1258         111.633 
       0.883569         107.784         44.4474         110.801 
       0.889708         106.871         43.7795         109.839 
       0.895864         105.825         43.1239          109.08 
       0.902008         104.992         42.4833         108.147 
       0.908149         103.862         41.8562          107.33 
       0.914301         103.547          41.241         106.821 
       0.920448         102.908         40.6388         105.831 
       0.926574         101.101         40.0509         104.566 
       0.932687         100.754         39.4761         104.158 
       0.938823         99.9053         38.9106         103.251 
       0.944975         98.8749         38.3551         102.501 
       0.951105         98.1046         37.8125          101.98 
       0.957225         98.1097         37.2815         101.334 
       0.963368         96.9655          36.759         100.188 
       0.969511         96.1166         36.2467         99.6077 
       0.975621         95.5043         35.7469         99.5827 
       0.981748         94.5806         35.2554         98.4784 
       0.987916         93.8849         34.7702         98.0029 
        0.99406         93.4753          34.296         97.2837 
        1.00019         92.4873         33.8317         96.5723 
        1.00632         91.9568         33.3766         96.0188 
        1.01246         91.2812         32.9292         95.2251 
        1.01859         90.8676         32.4909         94.6169 
        1.02471          89.834         32.0611          94.193 
        1.03085         89.3216         31.6378         93.4684 
        1.03698         88.7395         31.2231         92.7667 
        1.04314         88.2022         30.8141          92.174 
        1.04929         87.5656         30.4135         91.8773 
        1.05541         86.9809         30.0218         91.4499 
        1.06154         86.5368          29.636         90.6608 
        1.06769         85.4872         29.2565         90.1813 
        1.07382         85.1043          28.885         89.6066 
        1.07993         84.6717         28.5208         88.9342 
        1.08607         83.9509         28.1615         88.3656 
        1.09222         83.6541         27.8081         87.7655 
        1.09836         82.9031         27.4612         87.3446 
        1.10449         82.4258         27.1207         86.7343 
        1.11063         81.7098         26.7857         86.1158 
        1.11677         81.5626         26.4565         85.6696 
         1.1229         80.7068         26.1335         85.3612 
        1.12903         80.5837         25.8157         84.7504 
        1.13518         80.2585         25.5029         84.2333 
        1.14131         79.4376         25.1956         83.8255 
        1.14745         78.6331         24.8936         83.3052 
        1.15359         78.0266         24.5965          83.098 
        1.15973         77.8859         24.3041         82.4437 
        1.16584         77.3557         24.0179         81.9321 
        1.17197         76.5315          23.736         81.4494 
        1.17811          76.246         23.4577         80.8239 
        1.18424         75.4592         23.1848         80.4078 
        1.19038         75.3502         22.9155         80.3102 
        1.19652         75.0085         22.6506         79.5574 
        1.20267         74.4208         22.3899         79.3819 
        1.20881         73.8879         22.1334         78.8058 
        1.21495         73.6187         21.8814         78.4808 
        1.22108         73.1894         21.6334          77.996 
         1.2272         72.6726         21.3899         77.6882 
        1.23334         72.2323         21.1496         77.2219 
        1.23949         71.8495         20.9124         76.6957 
        1.24562         71.2531         20.6796          76.338 
        1.25174         70.8541         20.4507         76.0587 
        1.25789         70.9334         20.2246         75.5813 
        1.26402         70.2484         20.0024         75.1324 
        1.27014         69.7806          19.784         74.7919 
        1.27628         69.2059         19.5683         74.4103 
        1.28244         69.0009         19.3555         74.0731 
        1.28858         68.5563         19.1461         73.6872 
        1.29471         68.2958         18.9403         73.3952 
        1.30084          67.713         18.7377         72.8087 
        1.30697         67.5515         18.5379         72.4145 
        1.31312         66.9269         18.3406         72.2902 
        1.31925         66.5375         18.1469          71.847 
        1.32537         66.2447         17.9563         71.4496 
        1.33151         65.8624         17.7677         71.1602 
        1.33765         65.4973         17.5819         70.8379 
        1.34378         65.3041         17.3992         70.4327 
        1.34992         64.8086          17.219         70.1155 
        1.35606          64.412          17.041          69.899 
         1.3622         63.9513         16.8658          69.521 
        1.36833         63.6073         16.6936         69.0963 
        1.37445         63.2197         16.5239         68.8053 
        1.38059         63.0177          16.356          68.646 
        1.38675         62.3682         16.1901         68.1789 
        1.39288         62.3433         16.0271         67.9809 
        1.39901         61.8653         15.8665         67.6301 
        1.40515         61.6055         15.7078         67.2292 
         1.4113         61.5164         15.5513         66.9862 
        1.41742         61.0967         15.3975         66.8077 
        1.42355         60.5147         15.2456         66.2637 
         1.4297         60.2077         15.0952         65.9551 
        1.43585         59.7845          14.947         65.7868 
        1.44198         59.4979         14.8014         65.5438 
        1.44809         59.2394          14.658         65.0194 
        1.45423          59.007         14.5159         64.7583 
        1.46036         58.6529         14.3761         64.5277 
        1.46649         58.4806          14.238         64.2903 
        1.47263         58.0221         14.1017         64.0558 
        1.47877          57.799         13.9672         63.7298 
        1.48491          57.591         13.8343         63.3421 
        1.49104         57.1265         13.7034         63.0615 
        1.49718         56.8538         13.5741         62.7803 
        1.50333         56.7161         13.4463         62.6141 
        1.50947         56.1921         13.3204         62.4048 
         1.5156         55.9973         13.1963          62.106 
        1.52172         55.5947         13.0738          61.801 
        1.52787          55.341         12.9527         61.5057 
          1.534         55.1319         12.8332          61.299 
        1.54013         54.8613         12.7154         60.9853 
        1.54627         54.4099         12.5988          60.661 
        1.55241         54.2033         12.4837         60.4552 
        1.55855         54.0053         12.3702         60.2451 
        1.56467         53.7587         12.2585         59.9265 
         1.5708         53.4974         12.1478         59.7556 
        1.57695         53.2071         12.0383         59.5254 
        1.58308         52.7627         11.9305         59.1652 
        1.58922         52.5386         11.8239         58.9944 
        1.59535         52.3777         11.7186         58.8132 
         1.6015         52.2465         11.6145         58.4934 
        1.60764         51.9414         11.5117         58.2181 
        1.61376         51.5564         11.4105         58.0319 
        1.61989         51.2773         11.3104          57.707 
        1.62604          51.082         11.2113         57.5229 
        1.63218         50.7791         11.1135         57.3734 
        1.63831          50.683          11.017         57.0937 
        1.64444         50.3071         10.9217          56.803 
        1.65059         50.1102         10.8273         56.6131 
        1.65673         49.7509         10.7341         56.3612 
        1.66285         49.6852         10.6423         56.1412 
        1.66898         49.2003         10.5515         56.0389 
        1.67512         49.1357         10.4616         55.8192 
        1.68127         48.8536         10.3727         55.5042 
         1.6874         48.5968          10.285         55.2053 
        1.69353         48.4159         10.1984         55.0019 
        1.69967         48.2199         10.1126         54.8304 
        1.70581         47.7396         10.0279         54.7258 
        1.71193         47.5799         9.94439         54.5442 
        1.71806           47.46          9.8617         54.1112 
        1.72421         47.2313         9.77979         53.8718 
        1.73035         46.9306         9.69892          53.798 
        1.73649         46.6212         9.61898         53.6521 
        1.74262         46.3575         9.54002         53.2923 
        1.74876          46.103          9.4619         53.0733 
        1.75489         45.9918         9.38482          52.938 
        1.76101         45.8375         9.30863         52.7319 
        1.76715         45.5957         9.23318         52.5272 
        1.77329         45.2894         9.15849         52.3311 
        1.77943         45.2685          9.0846         52.1404 
        1.78557         44.9319         9.01164         51.9506 
        1.79171         44.7617         8.93947         51.7295 
        1.79785         44.4826         8.86808         51.5584 
        1.80399          44.299          8.7975         51.4507 
        1.81012         44.1227         8.72778         51.1075 
        1.81625          43.784         8.65886         50.8085 
        1.82239         43.6053         8.59058         50.7182 
        1.82853         43.4778         8.52307         50.5915 
        1.83466         43.2292         8.45636          50.393 
        1.84078         42.9808         8.39044         50.1998 
        1.84692         42.7636         8.32512         50.0896 
        1.85306         42.5428         8.26042         49.8896 
         1.8592         42.4072         8.19651         49.6473 
        1.86533         42.2125         8.13332         49.5008 
        1.87147         42.0036         8.07073         49.3181 
