# k  (h/Mpc)    Pcb(k)  (Mpc/h)^3    Pcb_linear(k) (Mpc/h)^3    Pcb_NL(k) (Mpc/h)^3   ShotnoiseSubtracted = false
     0.00783031           13372         13418.7           13401 
       0.013688         17456.7         17932.1         17818.4 
       0.019231         19037.2         19367.1         19171.3 
      0.0249154         18955.6           19021         18774.6 
      0.0312784           17185         17497.4         17194.8 
      0.0375637         15218.6         15650.6         15332.1 
      0.0433917         13843.9         14086.7         13731.6 
      0.0492413         12474.2         12835.5         12474.6 
      0.0555754           11558         11839.4         11482.5 
      0.0619321         10469.3           11097         10729.9 
       0.067871         10030.2         10496.6         10135.6 
      0.0738098         9504.51         9876.94         9422.82 
      0.0800417         8797.86         9148.92         8708.76 
      0.0862327          8003.1         8356.76         8016.67 
      0.0921407         7304.35         7591.12         7273.16 
      0.0982031         6711.25         6863.93         6661.18 
       0.104506         6029.42         6227.41         6126.56 
       0.110769         5592.59         5739.28         5607.79 
       0.116806         5362.14         5393.88         5265.52 
       0.122832         5054.96         5137.41         5037.39 
       0.129052         4813.59         4918.79         4827.73 
       0.135211         4694.85         4704.97         4608.27 
       0.141259         4387.33         4470.24         4423.21 
       0.147318         4092.13         4203.64         4193.85 
       0.153489         3880.97         3911.47         3864.23 
       0.159709         3734.92         3619.32         3646.68 
       0.165845         3415.71         3356.99         3494.54 
       0.171974         3322.86         3136.62         3301.07 
       0.178125         3224.86         2962.07         3206.34 
       0.184229         2979.87         2829.31         3057.97 
        0.19034         2948.31         2723.94          2959.4 
       0.196428         2877.66         2630.92         2845.01 
       0.202534         2725.34         2536.02          2765.9 
       0.208729         2672.19          2429.6         2635.92 
       0.214876         2568.93         2312.44         2570.69 
       0.220989          2452.7          2189.1         2490.75 
       0.227147         2389.83         2065.94         2404.21 
        0.23329         2299.52         1952.25         2333.78 
       0.239377         2288.33         1854.18          2249.6 
       0.245482         2190.51         1772.28         2159.86 
       0.251667         2112.36          1704.3         2117.91 
       0.257832         2082.84         1647.18         2059.08 
       0.263955         1999.93         1595.61         2008.03 
       0.270079          1961.1         1544.27         1955.63 
        0.27624         1879.89          1489.9         1900.02 
       0.282372         1865.72         1432.26         1866.47 
        0.28843          1830.5         1373.16         1824.66 
       0.294538         1755.74         1313.96         1775.55 
       0.300721         1728.64         1257.19         1725.74 
        0.30691         1686.23         1205.75         1704.58 
       0.313033         1629.76            1161         1657.51 
       0.319153         1616.06          1122.1         1614.17 
       0.325316         1597.29         1087.39          1595.7 
        0.33145         1567.21         1055.53         1543.31 
       0.337538         1522.01         1024.79         1522.95 
       0.343633         1489.98         993.761         1506.36 
       0.349808         1468.17         961.564         1481.78 
       0.355968         1437.26         928.939         1459.25 
       0.362074          1402.9         896.885         1430.92 
       0.368217          1398.9         865.798          1397.9 
       0.374374         1376.86         836.659         1375.65 
       0.380519         1335.04         809.954         1352.47 
       0.386598         1332.81         785.908         1333.83 
       0.392688         1298.86         763.834         1308.62 
        0.39888          1277.2         742.818         1293.24 
       0.405048         1254.39          722.75          1275.4 
       0.411186          1246.7         703.121         1251.99 
       0.417313         1247.21         683.575         1237.67 
       0.423458          1209.6         664.087         1216.19 
       0.429607         1179.46         644.829         1195.81 
       0.435692            1172         626.301         1174.77 
       0.441815         1150.58         608.487          1173.5 
       0.447964         1141.29         591.603         1157.58 
       0.454126         1125.85         575.711         1127.61 
       0.460267         1114.14         560.862         1127.56 
       0.466387         1098.07         546.857         1106.39 
        0.47254         1077.54         533.332         1093.91 
       0.478662         1067.61         520.254         1081.74 
       0.484765         1058.37         507.499         1070.04 
       0.490885         1045.79         494.919         1051.15 
       0.497035         1029.01         482.494         1043.08 
       0.503198         1027.99         470.366         1032.09 
       0.509342         1009.69         458.693         1014.59 
       0.515458         989.948          447.54         1009.84 
       0.521598          991.15          436.82         1001.37 
       0.527764         967.359          426.54         991.363 
       0.533884         958.365         416.789         980.909 
           0.54         951.398         407.416         971.441 
       0.546137         941.895         398.298         960.707 
       0.552299         933.581         389.371         947.832 
       0.558452         926.044          380.67         941.069 
       0.564573         919.624         372.229         931.974 
       0.570708         910.109         363.985         922.152 
       0.576825         892.505         355.992         910.601 
       0.582926         890.437         348.259         904.273 
       0.589034         881.615         340.773         891.415 
       0.595184         870.683         333.506         885.181 
       0.601379         857.241         326.452         878.424 
       0.607522         847.794         319.691         866.426 
       0.613639         846.582         313.159         863.207 
       0.619772         837.382         306.784         860.893 
       0.625918         828.955         300.554         850.885 
       0.632068         822.281         294.477         845.534 
       0.638161         810.736         288.615         830.915 
         0.6443         804.651         282.867         827.324 
       0.650464         799.263         277.258         817.364 
       0.656582         793.382         271.846         811.655 
       0.662703         781.805         266.584         806.129 
       0.668861         775.043         261.437         802.683 
       0.675024         770.133         256.428         798.829 
       0.681124         757.978         251.608         785.273 
       0.687237         758.465         246.908         780.043 
       0.693381         744.679          242.31         772.635 
       0.699536         746.295         237.824         767.504 
       0.705665         736.499         233.471         760.586 
       0.711789         733.669          229.23         754.134 
       0.717957         725.353         225.064          752.54 
        0.72409         719.092         221.022         746.475 
       0.730186         715.643         217.104         739.053 
       0.736317         707.719          213.26         732.621 
       0.742472         698.682         209.496         727.742 
       0.748622         696.278         205.829          721.57 
        0.75476         688.313          202.26         721.739 
       0.760888         684.695         198.783         714.012 
       0.767043         682.078         195.377         705.254 
       0.773185         677.255         192.061         701.303 
       0.779291         669.288         188.841         695.144 
       0.785407         664.146         185.692         691.107 
       0.791564          659.66         182.597         689.915 
       0.797719         650.004         179.574         682.764 
       0.803834         650.532         176.639         678.746 
       0.809972         642.423          173.76         675.702 
       0.816124         637.876         170.939         667.016 
       0.822261          633.93          168.19         663.148 
       0.828378         631.266         165.509         659.095 
       0.834502         621.413         162.886         657.142 
       0.840667         619.971         160.303         652.444 
       0.846816         615.226         157.784         647.691 
       0.852925         611.815         155.336         643.374 
       0.859047         606.286         152.936         637.234 
       0.865192         602.558         150.579         633.807 
       0.871341         595.962         148.271         630.605 
       0.877463         594.883         146.023         626.863 
       0.883569         588.248         143.827         621.933 
       0.889708         581.993         141.666         616.802 
       0.895864         576.676         139.545         613.463 
       0.902008         575.743         137.472         610.013 
       0.908149         570.324         135.442           604.5 
       0.914301         568.058         133.451         600.346 
       0.920448         560.994         131.503         598.029 
       0.926574         558.529         129.601         593.626 
       0.932687         556.433         127.741         589.987 
       0.938823          549.77         125.911         587.734 
       0.944975         546.194         124.113         583.775 
       0.951105          542.62         122.357         578.298 
       0.957225         535.175         120.639         577.144 
       0.963368         536.199         118.948          573.01 
       0.969511         528.562          117.29         568.991 
       0.975621         526.737         115.673         565.436 
       0.981748         523.066         114.083         561.343 
       0.987916         520.107         112.513         560.308 
        0.99406         515.074         110.978          555.88 
        1.00019         510.414         109.476          550.24 
        1.00632         507.712         108.003          547.43 
        1.01246         504.283         106.556         544.514 
        1.01859         499.777         105.137         540.233 
        1.02471         498.036         103.747         538.365 
        1.03085         493.558         102.377         537.087 
        1.03698         491.962         101.035         534.081 
        1.04314         486.341         99.7113         530.426 
        1.04929         485.197         98.4151         525.835 
        1.05541         478.448         97.1473         522.105 
        1.06154         477.221          95.899         518.942 
        1.06769         472.903          94.671         515.517 
        1.07382         468.611         93.4688         512.947 
        1.07993         468.396         92.2904         510.254 
        1.08607         464.325         91.1277         506.727 
        1.09222           460.4          89.984         503.307 
        1.09836         456.689         88.8616         502.227 
        1.10449         452.694         87.7599         499.423 
        1.11063         450.966         86.6758         494.718 
        1.11677          446.35         85.6106         493.286 
         1.1229         444.301         84.5654         489.998 
        1.12903         440.258         83.5369         487.062 
        1.13518         438.667         82.5249         484.103 
        1.14131         436.056         81.5304         481.506 
        1.14745           431.1          80.553         478.505 
        1.15359         428.362         79.5916         476.687 
        1.15973         426.082         78.6457         473.696 
        1.16584         424.083         77.7196          471.22 
        1.17197         420.889         76.8072         468.448 
        1.17811         415.881         75.9068         465.729 
        1.18424         414.487         75.0236         463.738 
        1.19038         412.111         74.1521         460.995 
        1.19652          407.59         73.2949         458.063 
        1.20267          406.37         72.4514         455.396 
        1.20881         404.288         71.6214         452.574 
        1.21495         398.878          70.806          450.12 
        1.22108         398.664         70.0034         447.621 
         1.2272         393.129         69.2154         444.839 
        1.23334         392.224         68.4378         442.018 
        1.23949         388.574         67.6704         440.022 
        1.24562         388.434          66.917         437.956 
        1.25174         384.353         66.1763         435.848 
        1.25789         381.276         65.4447         433.466 
        1.26402         379.025         64.7256         431.469 
        1.27014         376.987         64.0191         427.944 
        1.27628         373.293         63.3211         426.952 
        1.28244           370.9         62.6323         425.106 
        1.28858         369.278         61.9547          422.16 
        1.29471         367.478         61.2888         419.512 
        1.30084         364.991         60.6333         416.998 
        1.30697         361.173         59.9866          415.22 
        1.31312         359.103         59.3484         413.239 
        1.31925         356.685         58.7216         410.532 
        1.32537         354.852         58.1046         408.148 
        1.33151         351.522         57.4943         406.775 
        1.33765         348.911         56.8933         404.739 
        1.34378         346.529         56.3021         401.736 
        1.34992         343.907          55.719         399.179 
        1.35606         341.556         55.1429         397.351 
         1.3622         340.088         54.5761         395.885 
        1.36833         338.766         54.0187         394.129 
        1.37445         336.593         53.4695         391.338 
        1.38059         332.696         52.9262         389.983 
        1.38675         331.221         52.3893         388.421 
        1.39288         329.454         51.8621          385.22 
        1.39901         326.665         51.3424         383.059 
        1.40515         325.006         50.8287         380.817 
         1.4113         322.576         50.3223         378.716 
        1.41742         319.532         49.8247         377.335 
        1.42355         318.886         49.3331         375.288 
         1.4297         316.627         48.8467         373.071 
        1.43585         312.456          48.367         371.875 
        1.44198         312.084         47.8957         369.679 
        1.44809         310.135         47.4317         368.074 
        1.45423           307.4         46.9721         364.959 
        1.46036         306.066         46.5195          363.52 
        1.46649         304.081         46.0727         362.074 
        1.47263         300.839         45.6316         359.549 
        1.47877         299.871         45.1964         357.646 
        1.48491         297.063         44.7663         355.648 
        1.49104         294.772         44.3427         353.783 
        1.49718         293.184         43.9244          353.19 
        1.50333         291.137         43.5108         351.391 
        1.50947         290.215         43.1034         349.236 
         1.5156         286.825         42.7019         347.244 
        1.52172         285.362         42.3056         345.097 
        1.52787         283.292         41.9135         343.546 
          1.534         282.581         41.5269         342.058 
        1.54013         279.938         41.1456         340.279 
        1.54627         278.052         40.7684         338.716 
        1.55241         276.553          40.396         337.425 
        1.55855         274.455         40.0287         335.898 
        1.56467         272.655         39.6671         333.411 
         1.5708         271.126          39.309         331.456 
        1.57695         269.558         38.9547         329.998 
        1.58308          268.34         38.6057         328.151 
        1.58922         266.019         38.2608         326.712 
        1.59535         263.436         37.9202         325.532 
         1.6015         262.384         37.5834         324.122 
        1.60764         260.675         37.2508         322.181 
        1.61376         258.624         36.9232         320.357 
        1.61989         257.172         36.5993         319.005 
        1.62604         255.157         36.2786         317.138 
        1.63218         253.572          35.962         315.678 
        1.63831         252.384         35.6499         314.505 
        1.64444         250.294         35.3415         312.446 
        1.65059         249.407         35.0359           311.1 
        1.65673         247.165         34.7344         309.856 
        1.66285         245.786         34.4372         308.065 
        1.66898         244.307         34.1435         306.076 
        1.67512         242.048         33.8527         305.112 
        1.68127         240.819          33.565         303.735 
         1.6874         239.177         33.2813         302.082 
        1.69353         238.396          33.001          300.99 
        1.69967         236.586         32.7234         299.246 
        1.70581         234.486         32.4491         297.725 
        1.71193         233.462          32.179         296.536 
        1.71806         231.237         31.9114         294.864 
        1.72421          230.17         31.6464         293.377 
        1.73035         228.211         31.3847         291.816 
        1.73649          226.65          31.126         290.263 
        1.74262         225.692         30.8705         289.372 
        1.74876         224.013         30.6177         287.906 
        1.75489         222.857         30.3683         286.363 
        1.76101         221.613         30.1217         285.338 
        1.76715         219.761         29.8776         284.099 
        1.77329          217.72         29.6359         282.779 
        1.77943         216.626         29.3968         281.393 
        1.78557         215.588         29.1607         279.868 
        1.79171         214.541         28.9272         278.568 
        1.79785         212.795         28.6962         277.291 
        1.80399         211.586         28.4678         275.836 
        1.81012         210.047         28.2422         274.883 
        1.81625         208.619         28.0191         273.664 
        1.82239         207.179         27.7982         272.037 
        1.82853         206.392         27.5798         270.883 
        1.83466         204.697         27.3639         269.609 
        1.84078         203.342         27.1506          268.26 
        1.84692         202.286         26.9392         267.414 
        1.85306         200.581         26.7298         266.094 
         1.8592         199.722          26.523         264.597 
        1.86533         197.779         26.3186         263.707 
        1.87147         197.178          26.116         262.582 
