#  k  (h/Mpc)          P(k)  (Mpc/h)^3     P_linear(k)   P_NL(k) (Mpc/h)^3
     0.00783031         10641.5         10714.9           10618 
       0.013688         11689.6         11940.8         11858.1 
       0.019231         10907.5         11025.5         10954.7 
      0.0249154         9343.76         9282.69         9239.21 
      0.0312784         7279.19         7283.13          7271.7 
      0.0375637         5703.79         5734.26         5734.53 
      0.0433917         4794.54          4772.2         4771.73 
      0.0492413         4182.68         4183.48         4184.59 
      0.0555754         3835.87         3810.55         3808.77 
      0.0619321         3480.33         3541.17         3536.74 
       0.067871         3256.48         3270.31         3266.88 
      0.0738098         2944.23         2936.45         2922.51 
      0.0800417         2564.26         2537.44         2536.41 
      0.0862327         2171.88         2148.64         2170.68 
      0.0921407         1871.86         1835.76         1865.23 
      0.0982031         1658.57          1600.2         1646.42 
       0.104506         1476.42         1445.35         1500.42 
       0.110769         1392.28         1358.71         1397.81 
       0.116806         1351.47         1306.78         1336.67 
       0.122832          1282.9         1256.05          1282.8 
       0.129052         1210.23         1184.13         1206.33 
       0.135211         1135.43         1088.46         1114.15 
       0.141259         1018.98         980.162         1015.97 
       0.147318         910.509         873.143         923.891 
       0.153489         826.639         780.008         826.023 
       0.159709          771.94         710.012         762.796 
       0.165845         707.892         664.174         725.698 
       0.171974         694.508         635.402         689.135 
       0.178125         669.928          614.79         670.259 
       0.184229         630.631         594.082         643.243 
        0.19034         612.167         567.548         612.243 
       0.196428         583.323         534.018          574.95 
       0.202534         533.355         495.714         541.113 
       0.208729          512.77         456.611         502.995 
       0.214876         481.861         421.905         478.835 
       0.220989         446.164         393.996         454.149 
       0.227147         432.868         372.925         432.807 
        0.23329         415.558         357.502         418.967 
       0.239377         408.062         345.344         403.245 
       0.245482         387.885         333.789         385.467 
       0.251667         371.361         320.887         374.334 
       0.257832         364.218         306.167         357.002 
       0.263955         341.313         290.163         340.603 
       0.270079         324.915         273.893         325.864 
        0.27624         309.368         258.557         310.281 
       0.282372         299.302         245.195         299.094 
        0.28843         295.214         234.182         288.519 
       0.294538         279.779         225.022         279.154 
       0.300721         269.979         217.103         271.219 
        0.30691         264.944         209.786         263.893 
       0.313033         251.974         202.532         253.933 
       0.319153         247.067         194.961         245.659 
       0.325316         239.884         187.014         238.205 
        0.33145         232.104         179.045         228.464 
       0.337538         222.739         171.415          220.68 
       0.343633         215.172         164.339         215.904 
       0.349808         208.436         157.922          210.27 
       0.355968         203.579         152.237         205.082 
       0.362074         197.039         147.188         198.935 
       0.368217         193.816         142.473         192.098 
       0.374374         188.615         137.922         186.927 
       0.380519         180.631         133.426         181.434 
       0.386598         177.143         128.969         177.842 
       0.392688         171.361         124.546         172.339 
        0.39888         167.668         120.165         167.784 
       0.405048         163.167         116.005         164.361 
       0.411186         161.098         112.139         159.678 
       0.417313         157.174         108.559         155.185 
       0.423458         153.081         105.221         151.913 
       0.429607         148.616          102.09         148.603 
       0.435692         146.043         99.1324          144.68 
       0.441815         142.432         96.2429         142.432 
       0.447964         137.772         93.4101         139.035 
       0.454126         135.376         90.6359          134.78 
       0.460267         133.698         87.9417         133.232 
       0.466387         129.978         85.3523         130.038 
        0.47254         128.365         82.8674         127.307 
       0.478662         124.137         80.5194         124.721 
       0.484765         122.047         78.2945         121.281 
       0.490885         119.636         76.1717         119.424 
       0.497035         118.018         74.1321         117.458 
       0.503198         116.057         72.1646           115.1 
       0.509342         112.984          70.262         113.133 
       0.515458         110.883         68.4209         111.465 
       0.521598         108.011         66.6286         108.561 
       0.527764         107.069         64.8881         106.593 
       0.533884         105.928         63.2215         104.961 
           0.54         103.069         61.6174         102.874 
       0.546137         100.556         60.0696         101.489 
       0.552299         98.8506         58.5772         99.0907 
       0.558452         97.1649          57.145          97.243 
       0.564573         96.5037         55.7704         96.1674 
       0.570708         93.7585         54.4369         94.6686 
       0.576825         92.5239         53.1471         92.6325 
       0.582926         91.4581         51.8986         91.1584 
       0.589034         89.6773         50.6869         90.2075 
       0.595184         88.4259         49.5056         88.2896 
       0.601379         86.6856         48.3552         87.2795 
       0.607522         84.6114         47.2521         85.4464 
       0.613639         83.9246         46.1892         84.5686 
       0.619772         82.4798         45.1573         83.2152 
       0.625918         81.7598         44.1557         81.9494 
       0.632068         79.7423         43.1843         80.5837 
       0.638161         78.8101         42.2511         79.7526 
         0.6443         78.1702         41.3389         78.4591 
       0.650464         76.2928         40.4504         76.7791 
       0.656582         75.8525         39.5942         76.1527 
       0.662703         74.7864         38.7625         74.8539 
       0.668861         73.1608         37.9498         74.0082 
       0.675024         72.9662         37.1598         72.8329 
       0.681124         71.6493         36.4004         71.8445 
       0.687237         70.5639         35.6608         70.8722 
       0.693381         69.5284         34.9386         69.7692 
       0.699536         68.8308         34.2354         69.0836 
       0.705665          67.895         33.5548          68.478 
       0.711789         66.7647         32.8936         67.2134 
       0.717957         65.8654         32.2459         66.4251 
        0.72409         65.0953         31.6193          65.879 
       0.730186         64.7603         31.0134         65.0925 
       0.736317         63.7878           30.42         64.0373 
       0.742472         62.5438         29.8401         63.3339 
       0.748622         61.5973          29.276           62.49 
        0.75476         61.5226         28.7276         61.6533 
       0.760888         60.8526         28.1943         60.7876 
       0.767043         59.5811         27.6724         60.4265 
       0.773185         58.6761         27.1649         59.8499 
       0.779291          58.118         26.6731         59.0599 
       0.785407         57.5223         26.1928         58.2158 
       0.791564         57.0735         25.7213         57.6599 
       0.797719         56.0521         25.2618         57.2527 
       0.803834         55.7896         24.8165         56.3649 
       0.809972         55.2348         24.3803         55.7505 
       0.816124          54.305         23.9538         55.2688 
       0.822261         53.6189         23.5387         54.5807 
       0.828378         53.4474         23.1347         53.8427 
       0.834502         52.7811         22.7399         53.3701 
       0.840667          52.257         22.3518         53.0515 
       0.846816         51.6531         21.9738          52.448 
       0.852925         51.0128         21.6071         51.8719 
       0.859047         50.6497          21.248         51.2936 
       0.865192         49.9871         20.8959         50.8293 
       0.871341          49.484         20.5516          50.254 
       0.877463         48.9507         20.2166         49.7862 
       0.883569         48.8365           19.89          49.494 
       0.889708         48.2382         19.5689         48.9223 
       0.895864          47.837         19.2542         48.5218 
       0.902008          47.191          18.947         47.9042 
       0.908149         46.5992         18.6468         47.5491 
       0.914301         46.3147         18.3526         47.1801 
       0.920448         46.2294         18.0651         46.7171 
       0.926574         45.2109         17.7847         46.2177 
       0.932687         44.9509         17.5109         45.8348 
       0.938823         44.5662          17.242         45.3019 
       0.944975         43.9942          16.978         44.9407 
       0.951105         43.6073         16.7206         44.5713 
       0.957225          43.373          16.469         44.1753 
       0.963368         42.9281         16.2217         43.7399 
       0.969511          42.583         15.9795         43.3568 
       0.975621         42.0526         15.7436         43.1925 
       0.981748         41.7586         15.5119         42.8012 
       0.987916          41.311         15.2834         42.4797 
        0.99406         41.1551         15.0603         41.9738 
        1.00019         40.5932         14.8422         41.5558 
        1.00632         40.2572         14.6286         41.2404 
        1.01246         39.9826          14.419         40.8702 
        1.01859         39.7093         14.2137         40.7215 
        1.02471         39.3445         14.0128         40.4495 
        1.03085         38.9432          13.815         39.9915 
        1.03698         38.6929         13.6215         39.6379 
        1.04314         38.3596         13.4309         39.2971 
        1.04929         37.9464         13.2445         39.0738 
        1.05541         37.7427         13.0622         38.8837 
        1.06154         37.3856          12.883         38.5269 
        1.06769         37.0733         12.7069          38.209 
        1.07382         36.6756         12.5347         37.9447 
        1.07993         36.5447          12.366         37.6579 
        1.08607         36.1798         12.1998         37.3936 
        1.09222         35.9963         12.0364         37.0578 
        1.09836         35.6965         11.8763         36.7624 
        1.10449         35.4295         11.7192          36.538 
        1.11063         35.1027         11.5648         36.1471 
        1.11677         34.9964         11.4133         35.8781 
         1.1229         34.5763         11.2648         35.7602 
        1.12903         34.3726         11.1187         35.4662 
        1.13518         34.1497         10.9752         35.1945 
        1.14131         33.8586         10.8343         34.9351 
        1.14745         33.6427         10.6959         34.7617 
        1.15359         33.2079         10.5599         34.4414 
        1.15973         33.1825         10.4263         34.2779 
        1.16584         32.8849         10.2955         33.9163 
        1.17197         32.5852         10.1668         33.8077 
        1.17811         32.3743           10.04          33.542 
        1.18424         31.9334         9.91564         33.3327 
        1.19038         31.7772         9.79305         33.0777 
        1.19652         31.6559          9.6726          32.804 
        1.20267         31.3453         9.55417         32.6625 
        1.20881          31.148         9.43776         32.4601 
        1.21495         31.0293         9.32347         32.2047 
        1.22108         30.9215          9.2111         32.0323 
         1.2272         30.5243         9.10085         31.8445 
        1.23334         30.4167         8.99216         31.6308 
        1.23949         30.1733         8.88499         31.3539 
        1.24562         29.9538         8.77986         31.1594 
        1.25174         29.7707          8.6766         31.0287 
        1.25789           29.57         8.57468         30.8073 
        1.26402         29.3759         8.47459         30.6019 
        1.27014         29.2491         8.37634         30.4784 
        1.27628         28.9577         8.27935         30.2508 
        1.28244         28.9624         8.18372         30.0429 
        1.28858         28.6025         8.08972         29.8513 
        1.29471         28.3387         7.99741         29.7418 
        1.30084         28.1214         7.90663         29.5108 
        1.30697         28.1131         7.81712         29.3125 
        1.31312         27.8971         7.72887         29.1693 
        1.31925         27.6574         7.64227         28.9707 
        1.32537         27.4598         7.55708         28.8444 
        1.33151         27.2712         7.47288           28.64 
        1.33765         27.2023         7.39002         28.4679 
        1.34378         27.0427         7.30859         28.3374 
        1.34992         26.8012         7.22832         28.1587 
        1.35606         26.5363         7.14909         27.9963 
         1.3622         26.4775         7.07119         27.8574 
        1.36833         26.3992         6.99464          27.738 
        1.37445         26.1088         6.91926         27.5679 
        1.38059         25.9563         6.84477         27.4222 
        1.38675         25.8334         6.77119         27.2553 
        1.39288         25.7039         6.69898         27.1139 
        1.39901         25.4715         6.62787         26.9444 
        1.40515          25.358         6.55762         26.8225 
         1.4113         25.2826         6.48842         26.6744 
        1.41742         25.0862         6.42049         26.4683 
        1.42355         24.8628          6.3534         26.3785 
         1.4297         24.8457         6.28707         26.2005 
        1.43585         24.6607         6.22171         26.0858 
        1.44198         24.4572         6.15753          25.957 
        1.44809         24.2681         6.09438         25.7856 
        1.45423         24.2137         6.03188         25.6409 
        1.46036         24.1207         5.97038         25.5192 
        1.46649         23.8832         5.90971         25.4162 
        1.47263         23.7606         5.84983         25.3038 
        1.47877         23.6378         5.79081         25.1431 
        1.48491         23.4662         5.73252         25.0211 
        1.49104         23.3516         5.67515         24.9023 
        1.49718         23.2627         5.61852         24.7844 
        1.50333         23.1653         5.56258         24.6298 
        1.50947         22.9136         5.50751         24.4981 
         1.5156         22.9049         5.45327         24.3956 
        1.52172         22.6973         5.39976         24.2836 
        1.52787         22.6826         5.34686         24.1564 
          1.534         22.4316         5.29473         24.0272 
        1.54013         22.4654         5.24335         23.8865 
        1.54627         22.2346         5.19256         23.7668 
        1.55241         22.1499         5.14243         23.6671 
        1.55855         21.9951         5.09303         23.5519 
        1.56467          21.819         5.04442         23.4607 
         1.5708         21.8127         4.99631          23.346 
        1.57695          21.686         4.94876         23.2235 
        1.58308         21.5118         4.90193         23.1204 
        1.58922         21.3935         4.85567         23.0008 
        1.59535         21.3352         4.81003         22.8922 
         1.6015         21.2687         4.76492         22.7642 
        1.60764         21.0604          4.7204         22.6516 
        1.61376         20.9391         4.67658         22.5787 
        1.61989         20.8314         4.63328         22.4762 
        1.62604         20.7061         4.59043         22.3629 
        1.63218         20.5236         4.54814         22.2658 
        1.63831         20.5088         4.50649         22.1794 
        1.64444         20.4156         4.46535         22.0676 
        1.65059         20.2722         4.42462         21.9491 
        1.65673         20.2014         4.38444         21.8598 
        1.66285         20.1055         4.34488         21.7876 
        1.66898         20.0039         4.30578          21.693 
        1.67512         19.8759          4.2671         21.5668 
        1.68127         19.7902         4.22885         21.4666 
         1.6874         19.7233         4.19116         21.3705 
        1.69353         19.5645         4.15395          21.241 
        1.69967         19.4938          4.1171         21.1661 
        1.70581         19.4035         4.08072         21.1015 
        1.71193         19.2968         4.04491         21.0125 
        1.71806         19.2223         4.00946         20.9105 
        1.72421          19.096         3.97436         20.8151 
        1.73035         19.0267         3.93972         20.7466 
        1.73649         18.8923          3.9055         20.6753 
        1.74262         18.7761         3.87171         20.5381 
        1.74876         18.8041         3.83831         20.4213 
        1.75489         18.5966         3.80536         20.3585 
        1.76101          18.572         3.77282         20.3091 
        1.76715         18.3932          3.7406         20.2036 
        1.77329         18.3126         3.70873         20.1001 
        1.77943         18.2951         3.67721         20.0153 
        1.78557         18.2295         3.64611         19.9273 
        1.79171         18.1011         3.61536          19.848 
        1.79785         18.0191         3.58496         19.7773 
        1.80399         17.8929         3.55491         19.7042 
        1.81012         17.8428         3.52525         19.6159 
        1.81625         17.6999         3.49594         19.5237 
        1.82239         17.6346         3.46692         19.4479 
        1.82853         17.5724         3.43824         19.3889 
        1.83466         17.4605         3.40992         19.3058 
        1.84078         17.3891         3.38194         19.2022 
        1.84692          17.282         3.35423         19.1214 
        1.85306         17.2107          3.3268         19.0638 
         1.8592         17.1672         3.29971         18.9977 
        1.86533         17.0752         3.27294         18.9076 
        1.87147         16.9819         3.24644         18.8222 
        1.87761         16.8958         3.22022         18.7459 
