# k  (h/Mpc)    P(k)  (Mpc/h)^3    P_linear(k)  (Mpc/h)^3     P_NL(k)  ShotnoiseSubtracted = false
     0.00783031         2318.93         2343.47         2343.47 
       0.013688         2966.35         2963.86         2963.86 
       0.019231         3057.26         3055.37         3055.37 
      0.0249154         2854.93         2877.85         2877.85 
      0.0312784         2544.03         2549.79         2549.79 
      0.0375637         2230.07         2224.92         2224.92 
      0.0433917         1970.75         1979.38         1979.38 
      0.0492413         1795.56         1796.36         1796.36 
      0.0555754         1638.44          1652.9          1652.9 
      0.0619321         1544.09         1537.34         1537.34 
       0.067871         1422.21         1432.01         1432.01 
      0.0738098         1307.61         1317.75         1317.75 
      0.0800417          1175.1         1188.97         1188.97 
      0.0862327         1055.39         1061.87         1061.87 
      0.0921407         951.875         952.568         952.568 
      0.0982031         856.656         860.422         860.422 
       0.104506         794.633         788.227         788.227 
       0.110769          741.17         736.496         736.496 
       0.116806         697.696         698.465         698.465 
       0.122832         667.601         664.612         664.612 
       0.129052         625.448         628.034         628.034 
       0.135211         585.666         587.604         587.604 
       0.141259         548.073         544.806         544.806 
       0.147318         508.737         502.007         502.007 
       0.153489         466.584         462.131         462.131 
       0.159709         435.184         428.352         428.352 
       0.165845         413.648         402.055         402.055 
       0.171974         389.207         381.755         381.755 
       0.178125         373.051         365.269         365.269 
       0.184229         359.241         350.415         350.415 
        0.19034         338.371         335.204         335.204 
       0.196428         326.641         318.838         318.838 
       0.202534         312.889         301.364         301.364 
       0.208729         293.741         283.466         283.466 
       0.214876         275.288         266.678         266.678 
       0.220989         264.665         251.834         251.834 
       0.227147         248.778          239.14          239.14 
        0.23329         238.624         228.584         228.584 
       0.239377         231.293         219.654         219.654 
       0.245482          219.37         211.524         211.524 
       0.251667         214.549         203.504         203.504 
       0.257832         206.556         195.343         195.343 
       0.263955         198.089         187.002         187.002 
       0.270079         190.263         178.619         178.619 
        0.27624         184.685         170.454         170.454 
       0.282372          176.93         162.897         162.897 
        0.28843         169.547          156.16          156.16 
       0.294538         162.966         150.118         150.118 
       0.300721         159.583          144.66          144.66 
        0.30691         152.731         139.649         139.649 
       0.313033         148.248         134.939         134.939 
       0.319153         141.548         130.322         130.322 
       0.325316         139.012         125.703         125.703 
        0.33145         133.764         121.146         121.146 
       0.337538         130.534         116.738         116.738 
       0.343633         125.921          112.52          112.52 
       0.349808         122.102         108.515         108.515 
       0.355968         118.876         104.817         104.817 
       0.362074         115.239         101.423         101.423 
       0.368217         111.995         98.2406         98.2406 
       0.374374         108.714         95.2169         95.2169 
       0.380519         106.054         92.3115         92.3115 
       0.386598         103.176         89.5146         89.5146 
       0.392688         101.088         86.7746         86.7746 
        0.39888         98.1757         84.0649         84.0649 
       0.405048          95.836         81.4603         81.4603 
       0.411186          93.639         78.9807         78.9807 
       0.417313         90.7295         76.6326         76.6326 
       0.423458         88.5457         74.4038         74.4038 
       0.429607         86.2202         72.2887         72.2887 
       0.435692         83.5467         70.2955         70.2955 
       0.441815         82.4711         68.3703         68.3703 
       0.447964         81.0847         66.5017         66.5017 
       0.454126         77.7331         64.6871         64.6871 
       0.460267         76.5003         62.9343         62.9343 
       0.466387          74.561         61.2425         61.2425 
        0.47254         73.3894          59.601          59.601 
       0.478662         72.1376         58.0318         58.0318 
       0.484765         70.1746          56.532          56.532 
       0.490885         68.6879         55.0889         55.0889 
       0.497035         67.7222         53.6961         53.6961 
       0.503198         65.9662         52.3538         52.3538 
       0.509342         64.3413         51.0625         51.0625 
       0.515458         63.1596         49.8184         49.8184 
       0.521598         62.2142         48.6075         48.6075 
       0.527764         61.0024         47.4293         47.4293 
       0.533884          59.939         46.2977         46.2977 
           0.54         58.7395         45.2044         45.2044 
       0.546137         57.8958         44.1439         44.1439 
       0.552299         57.0133         43.1152         43.1152 
       0.558452         55.3297         42.1233         42.1233 
       0.564573         54.4608         41.1697         41.1697 
       0.570708         53.7406          40.245          40.245 
       0.576825         52.5139         39.3519         39.3519 
       0.582926         51.5443         38.4877         38.4877 
       0.589034         50.2597         37.6477         37.6477 
       0.595184         49.6475          36.827          36.827 
       0.601379         48.9003         36.0252         36.0252 
       0.607522         47.8449         35.2543         35.2543 
       0.613639         47.5501         34.5099         34.5099 
       0.619772         46.3299         33.7859         33.7859 
       0.625918         46.0799         33.0818         33.0818 
       0.632068         45.3599         32.3979         32.3979 
       0.638161         44.5017         31.7397         31.7397 
         0.6443         43.6873         31.0954         31.0954 
       0.650464         42.9718         30.4669         30.4669 
       0.656582         42.6777         29.8605         29.8605 
       0.662703         41.8409         29.2707         29.2707 
       0.668861         41.1744         28.6936         28.6936 
       0.675024         40.5071         28.1318         28.1318 
       0.681124         39.8207         27.5909         27.5909 
       0.687237         39.1519         27.0634         27.0634 
       0.693381         38.8375         26.5474         26.5474 
       0.699536         37.9459         26.0442         26.0442 
       0.705665         37.9218         25.5565         25.5565 
       0.711789         37.0201         25.0818         25.0818 
       0.717957         36.5993         24.6162         24.6162 
        0.72409         36.0753         24.1652         24.1652 
       0.730186         35.5571         23.7285         23.7285 
       0.736317         35.2358         23.3003         23.3003 
       0.742472         34.6177         22.8812         22.8812 
       0.748622         34.3112          22.473          22.473 
        0.75476         33.7403         22.0757         22.0757 
       0.760888         33.2816         21.6888         21.6888 
       0.767043         32.9024         21.3097         21.3097 
       0.773185          32.359         20.9406         20.9406 
       0.779291         32.1885         20.5825         20.5825 
       0.785407         31.8239         20.2323         20.2323 
       0.791564          31.238         19.8882         19.8882 
       0.797719         30.6354         19.5524         19.5524 
       0.803834         30.5863         19.2265         19.2265 
       0.809972         30.2609          18.907          18.907 
       0.816124         29.5611         18.5942         18.5942 
       0.822261         29.4072         18.2894         18.2894 
       0.828378         29.1149         17.9924         17.9924 
       0.834502         28.7849         17.7019         17.7019 
       0.840667         28.4473          17.416          17.416 
       0.846816         27.9783         17.1372         17.1372 
       0.852925         27.7404         16.8665         16.8665 
       0.859047         27.4131          16.601          16.601 
       0.865192         27.1568         16.3405         16.3405 
       0.871341         26.9722         16.0855         16.0855 
       0.877463         26.4664         15.8371         15.8371 
       0.883569         26.1699         15.5947         15.5947 
       0.889708         25.8521         15.3562         15.3562 
       0.895864          25.668         15.1221         15.1221 
       0.902008         25.4651         14.8935         14.8935 
       0.908149         25.1844         14.6698         14.6698 
       0.914301         25.0502         14.4503         14.4503 
       0.920448          24.536         14.2356         14.2356 
       0.926574         24.3807         14.0261         14.0261 
       0.932687         24.1117         13.8213         13.8213 
       0.938823         23.8121         13.6199         13.6199 
       0.944975         23.5782         13.4221         13.4221 
       0.951105         23.3984          13.229          13.229 
       0.957225         23.1389         13.0401         13.0401 
       0.963368          22.945         12.8543         12.8543 
       0.969511         22.7588         12.6721         12.6721 
       0.975621         22.5752         12.4945         12.4945 
       0.981748         22.2671         12.3198         12.3198 
       0.987916         22.1188         12.1475         12.1475 
        0.99406         21.8585         11.9791         11.9791 
        1.00019         21.5721         11.8143         11.8143 
        1.00632         21.5139         11.6527         11.6527 
        1.01246         21.3085          11.494          11.494 
        1.01859         20.9954         11.3385         11.3385 
        1.02471         20.9293         11.1862         11.1862 
        1.03085         20.7269         11.0361         11.0361 
        1.03698         20.3928         10.8891         10.8891 
        1.04314         20.2826         10.7442         10.7442 
        1.04929           20.05         10.6024         10.6024 
        1.05541         19.8485         10.4636         10.4636 
        1.06154         19.7215         10.3271         10.3271 
        1.06769         19.6081         10.1928         10.1928 
        1.07382         19.3784         10.0613         10.0613 
        1.07993         19.2769         9.93253         9.93253 
        1.08607         19.0377         9.80547         9.80547 
        1.09222         18.9123         9.68052         9.68052 
        1.09836         18.6776         9.55792         9.55792 
        1.10449         18.5908         9.43761         9.43761 
        1.11063          18.377         9.31926         9.31926 
        1.11677         18.3045           9.203           9.203 
         1.1229         18.1931         9.08894         9.08894 
        1.12903         17.9611         8.97674         8.97674 
        1.13518         17.7691         8.86636         8.86636 
        1.14131         17.6919         8.75792         8.75792 
        1.14745         17.5525         8.65138         8.65138 
        1.15359         17.4361          8.5466          8.5466 
        1.15973         17.2726         8.44354         8.44354 
        1.16584         17.0432         8.34265         8.34265 
        1.17197         17.0112         8.24328         8.24328 
        1.17811         16.8477         8.14525         8.14525 
        1.18424         16.6934         8.04911         8.04911 
        1.19038         16.6292         7.95426         7.95426 
        1.19652         16.4784         7.86099         7.86099 
        1.20267         16.3178         7.76923         7.76923 
        1.20881         16.2679         7.67897         7.67897 
        1.21495         16.1386         7.59031         7.59031 
        1.22108         15.9668         7.50307         7.50307 
         1.2272         15.8317         7.41742         7.41742 
        1.23334         15.7118         7.33292         7.33292 
        1.23949         15.5789         7.24956         7.24956 
        1.24562         15.5293         7.16773         7.16773 
        1.25174         15.4259          7.0873          7.0873 
        1.25789          15.309         7.00787         7.00787 
        1.26402         15.2404         6.92981         6.92981 
        1.27014         15.0915         6.85314         6.85314 
        1.27628         14.9093         6.77741         6.77741 
        1.28244         14.8453         6.70269         6.70269 
        1.28858         14.8099         6.62921         6.62921 
        1.29471         14.6511         6.55699         6.55699 
        1.30084         14.5203         6.48593         6.48593 
        1.30697         14.4611         6.41582         6.41582 
        1.31312         14.2956         6.34666         6.34666 
        1.31925         14.2024         6.27874         6.27874 
        1.32537         14.1522         6.21189         6.21189 
        1.33151         14.0397         6.14578         6.14578 
        1.33765         13.9451         6.08069         6.08069 
        1.34378         13.8552         6.01667         6.01667 
        1.34992         13.7211         5.95354         5.95354 
        1.35606         13.6833         5.89119         5.89119 
         1.3622         13.5982         5.82985         5.82985 
        1.36833         13.4709         5.76954         5.76954 
        1.37445         13.4119         5.71012         5.71012 
        1.38059         13.3391         5.65136         5.65136 
        1.38675         13.2033         5.59329         5.59329 
        1.39288         13.1435         5.53628         5.53628 
        1.39901         13.0241          5.4801          5.4801 
        1.40515         12.9773         5.42457         5.42457 
         1.4113          12.889         5.36985         5.36985 
        1.41742         12.7993         5.31609         5.31609 
        1.42355          12.717         5.26298         5.26298 
         1.4297          12.639         5.21043         5.21043 
        1.43585         12.5945         5.15864         5.15864 
        1.44198         12.4987         5.10774         5.10774 
        1.44809         12.4183         5.05764         5.05764 
        1.45423         12.3242         5.00803         5.00803 
        1.46036         12.2687         4.95919         4.95919 
        1.46649         12.2062         4.91098         4.91098 
        1.47263          12.093         4.86338         4.86338 
        1.47877          12.035         4.81644         4.81644 
        1.48491         11.9646         4.77004         4.77004 
        1.49104         11.9017         4.72437         4.72437 
        1.49718         11.8296         4.67926         4.67926 
        1.50333         11.7596         4.63467         4.63467 
        1.50947         11.6854         4.59076         4.59076 
         1.5156         11.6114         4.54749         4.54749 
        1.52172         11.5501         4.50478         4.50478 
        1.52787         11.4697         4.46254         4.46254 
          1.534         11.4055          4.4209          4.4209 
        1.54013         11.3366         4.37983         4.37983 
        1.54627         11.2568         4.33921         4.33921 
        1.55241         11.2105         4.29911         4.29911 
        1.55855          11.157         4.25957         4.25957 
        1.56467         11.0749         4.22064         4.22064 
         1.5708          11.054         4.18209         4.18209 
        1.57695         10.9457         4.14397         4.14397 
        1.58308         10.8918         4.10641         4.10641 
        1.58922         10.8473          4.0693          4.0693 
        1.59535         10.7985         4.03266         4.03266 
         1.6015         10.7119         3.99643         3.99643 
        1.60764         10.6462         3.96066         3.96066 
        1.61376         10.6243         3.92543         3.92543 
        1.61989         10.5345         3.89061         3.89061 
        1.62604         10.4966         3.85613         3.85613 
        1.63218         10.4425          3.8221          3.8221 
        1.63831         10.3957         3.78855         3.78855 
        1.64444         10.3197          3.7554          3.7554 
        1.65059         10.2473         3.72258         3.72258 
        1.65673         10.2256         3.69018         3.69018 
        1.66285          10.122         3.65826         3.65826 
        1.66898         10.0952         3.62671         3.62671 
        1.67512         10.0553         3.59548         3.59548 
        1.68127          9.9864         3.56459         3.56459 
         1.6874         9.94542         3.53413         3.53413 
        1.69353         9.88638         3.50404         3.50404 
        1.69967         9.82631         3.47424         3.47424 
        1.70581         9.77879          3.4448          3.4448 
        1.71193         9.72098         3.41582         3.41582 
        1.71806          9.7019         3.38711         3.38711 
        1.72421         9.62321         3.35867         3.35867 
        1.73035         9.60143          3.3306          3.3306 
        1.73649         9.55152         3.30285         3.30285 
        1.74262         9.48737         3.27545         3.27545 
        1.74876         9.45085         3.24834         3.24834 
        1.75489         9.41147          3.2216          3.2216 
        1.76101         9.33283         3.19517         3.19517 
        1.76715         9.32063           3.169           3.169 
        1.77329         9.25552         3.14309         3.14309 
        1.77943         9.20101         3.11746         3.11746 
        1.78557         9.17965         3.09216         3.09216 
        1.79171         9.13485         3.06714         3.06714 
        1.79785         9.07163         3.04239         3.04239 
        1.80399         9.02201         3.01792         3.01792 
        1.81012         8.98886         2.99376         2.99376 
        1.81625         8.93313         2.96987         2.96987 
        1.82239         8.90261         2.94621         2.94621 
        1.82853         8.84066         2.92282         2.92282 
        1.83466         8.80769         2.89971         2.89971 
        1.84078         8.75437         2.87688         2.87688 
        1.84692         8.74295         2.85425         2.85425 
        1.85306         8.68212         2.83185         2.83185 
         1.8592          8.6366         2.80971         2.80971 
        1.86533          8.5986         2.78783         2.78783 
        1.87147         8.56501         2.76616         2.76616 
        1.87761         8.52907         2.74471         2.74471 
