# k  (h/Mpc)    P(k)  (Mpc/h)^3    P_linear(k)  (Mpc/h)^3     P_NL(k)  ShotnoiseSubtracted = false
     0.00783031         790.381         797.975         797.975 
       0.013688         1007.72          1009.5          1009.5 
       0.019231         1040.61         1040.79         1040.79 
      0.0249154         975.342         980.368         980.368 
      0.0312784           867.9         868.645         868.645 
      0.0375637         759.659         757.986         757.986 
      0.0433917         673.392         674.344         674.344 
      0.0492413         612.439         611.999         611.999 
      0.0555754         560.913         563.127         563.127 
      0.0619321         525.556          523.76          523.76 
       0.067871         486.385         487.876         487.876 
      0.0738098         447.243         448.953         448.953 
      0.0800417         402.671         405.078         405.078 
      0.0862327          360.79         361.776         361.776 
      0.0921407         324.489         324.538         324.538 
      0.0982031         292.425         293.144         293.144 
       0.104506         269.729         268.548         268.548 
       0.110769         251.706         250.923         250.923 
       0.116806         237.442         237.967         237.967 
       0.122832         226.792         226.433         226.433 
       0.129052         213.255         213.971         213.971 
       0.135211          199.44         200.197         200.197 
       0.141259         185.833         185.616         185.616 
       0.147318         171.999         171.034         171.034 
       0.153489         157.933         157.448         157.448 
       0.159709         146.668          145.94          145.94 
       0.165845         138.726          136.98          136.98 
       0.171974         130.731         130.064         130.064 
       0.178125          125.24         124.448         124.448 
       0.184229         120.461         119.387         119.387 
        0.19034         114.196         114.204         114.204 
       0.196428         109.392         108.628         108.628 
       0.202534         104.274         102.675         102.675 
       0.208729         97.7697         96.5771         96.5771 
       0.214876         91.6069         90.8574         90.8574 
       0.220989          87.509         85.8001         85.8001 
       0.227147          82.346         81.4755         81.4755 
        0.23329         78.8074          77.879          77.879 
       0.239377         75.9768         74.8364         74.8364 
       0.245482         72.7009         72.0664         72.0664 
       0.251667          70.557         69.3343         69.3343 
       0.257832         67.7004         66.5535         66.5535 
       0.263955         64.8742          63.712          63.712 
       0.270079         62.1413         60.8558         60.8558 
        0.27624         59.8229         58.0741         58.0741 
       0.282372         57.2272         55.4994         55.4994 
        0.28843         54.6838         53.2039         53.2039 
       0.294538         52.5997         51.1456         51.1456 
       0.300721         51.0863         49.2859         49.2859 
        0.30691         49.0221         47.5787         47.5787 
       0.313033         47.4374         45.9739         45.9739 
       0.319153          45.334          44.401          44.401 
       0.325316          44.447         42.8273         42.8273 
        0.33145         42.7337         41.2748         41.2748 
       0.337538         41.3298         39.7727         39.7727 
       0.343633         39.7863         38.3359         38.3359 
       0.349808         38.5366         36.9712         36.9712 
       0.355968         37.3181         35.7112         35.7112 
       0.362074         36.1051         34.5551         34.5551 
       0.368217         35.0204         33.4708         33.4708 
       0.374374         33.8577         32.4406         32.4406 
       0.380519         32.9939         31.4507         31.4507 
       0.386598         32.0652         30.4978         30.4978 
       0.392688         31.2634         29.5643         29.5643 
        0.39888         30.2607         28.6411         28.6411 
       0.405048         29.4465         27.7537         27.7537 
       0.411186         28.6621         26.9089         26.9089 
       0.417313         27.6874         26.1089         26.1089 
       0.423458         26.9745         25.3495         25.3495 
       0.429607         26.1807         24.6289         24.6289 
       0.435692         25.4446         23.9498         23.9498 
       0.441815         24.8664         23.2939         23.2939 
       0.447964         24.3853         22.6573         22.6573 
       0.454126          23.512          22.039          22.039 
       0.460267         22.9763         21.4418         21.4418 
       0.466387         22.2764         20.8654         20.8654 
        0.47254         21.8483         20.3062         20.3062 
       0.478662         21.3797         19.7716         19.7716 
       0.484765         20.7686         19.2606         19.2606 
       0.490885         20.2641         18.7689         18.7689 
       0.497035         19.9472         18.2944         18.2944 
       0.503198         19.4163          17.837          17.837 
       0.509342         18.9516         17.3971         17.3971 
       0.515458         18.4752         16.9733         16.9733 
       0.521598         18.1063         16.5607         16.5607 
       0.527764         17.6629         16.1593         16.1593 
       0.533884         17.3434         15.7737         15.7737 
           0.54         16.9465         15.4013         15.4013 
       0.546137         16.6137         15.0399         15.0399 
       0.552299          16.281         14.6894         14.6894 
       0.558452         15.7911         14.3515         14.3515 
       0.564573         15.5605         14.0266         14.0266 
       0.570708         15.2497         13.7116         13.7116 
       0.576825         14.8497         13.4073         13.4073 
       0.582926         14.5941         13.1128         13.1128 
       0.589034         14.1685         12.8267         12.8267 
       0.595184         13.9483          12.547          12.547 
       0.601379         13.6504         12.2739         12.2739 
       0.607522         13.4358         12.0112         12.0112 
       0.613639         13.2461         11.7576         11.7576 
       0.619772         12.8906         11.5109         11.5109 
       0.625918         12.7493         11.2711         11.2711 
       0.632068         12.5368          11.038          11.038 
       0.638161         12.2263         10.8138         10.8138 
         0.6443         11.9761         10.5943         10.5943 
       0.650464         11.7236         10.3802         10.3802 
       0.656582         11.6118         10.1736         10.1736 
       0.662703         11.3915         9.97259         9.97259 
       0.668861         11.1834         9.77597         9.77597 
       0.675024         10.9492         9.58457         9.58457 
       0.681124         10.7533          9.4003          9.4003 
       0.687237         10.5842         9.22057         9.22057 
       0.693381          10.425         9.04477         9.04477 
       0.699536         10.1427         8.87333         8.87333 
       0.705665         10.0154         8.70714         8.70714 
       0.711789         9.84778         8.54544         8.54544 
       0.717957         9.67362         8.38681         8.38681 
        0.72409         9.50494         8.23316         8.23316 
       0.730186           9.374         8.08434         8.08434 
       0.736317         9.26371         7.93845         7.93845 
       0.742472         9.10979         7.79567         7.79567 
       0.748622         8.94886         7.65659         7.65659 
        0.75476         8.74585         7.52124         7.52124 
       0.760888         8.64261         7.38941         7.38941 
       0.767043         8.53383         7.26026         7.26026 
       0.773185         8.35271         7.13451         7.13451 
       0.779291         8.26988          7.0125          7.0125 
       0.785407         8.13349         6.89319         6.89319 
       0.791564         7.99896         6.77595         6.77595 
       0.797719         7.87059         6.66153         6.66153 
       0.803834         7.79126         6.55052         6.55052 
       0.809972         7.69464         6.44167         6.44167 
       0.816124         7.52691         6.33509         6.33509 
       0.822261         7.40876         6.23124         6.23124 
       0.828378         7.32174         6.13006         6.13006 
       0.834502         7.24363         6.03107         6.03107 
       0.840667         7.10218         5.93366         5.93366 
       0.846816         6.98431          5.8387          5.8387 
       0.852925         6.91837         5.74644         5.74644 
       0.859047         6.81923         5.65601         5.65601 
       0.865192         6.74538         5.56725         5.56725 
       0.871341         6.65954         5.48036         5.48036 
       0.877463          6.5593         5.39575         5.39575 
       0.883569         6.44109         5.31316         5.31316 
       0.889708         6.33534         5.23189         5.23189 
       0.895864         6.27568         5.15214         5.15214 
       0.902008         6.19111         5.07424         5.07424 
       0.908149         6.11731         4.99802         4.99802 
       0.914301         6.01391         4.92326         4.92326 
       0.920448         5.92758         4.85012         4.85012 
       0.926574          5.8474         4.77874         4.77874 
       0.932687         5.79106         4.70896         4.70896 
       0.938823         5.71395         4.64035         4.64035 
       0.944975         5.63254         4.57296         4.57296 
       0.951105         5.57269         4.50716         4.50716 
       0.957225         5.53843          4.4428          4.4428 
       0.963368         5.44967         4.37948         4.37948 
       0.969511          5.3775         4.31741         4.31741 
       0.975621         5.30044         4.25689         4.25689 
       0.981748         5.24693          4.1974          4.1974 
       0.987916         5.18302         4.13867         4.13867 
        0.99406         5.09639          4.0813          4.0813 
        1.00019         5.03015         4.02515         4.02515 
        1.00632         4.98977         3.97011         3.97011 
        1.01246         4.93306         3.91603         3.91603 
        1.01859         4.86719         3.86306         3.86306 
        1.02471         4.81028         3.81115         3.81115 
        1.03085         4.75536         3.76002         3.76002 
        1.03698         4.68875         3.70995         3.70995 
        1.04314         4.64436         3.66059         3.66059 
        1.04929          4.5827         3.61225         3.61225 
        1.05541          4.5292         3.56499         3.56499 
        1.06154         4.48336         3.51846         3.51846 
        1.06769         4.44988         3.47271         3.47271 
        1.07382         4.37947         3.42792         3.42792 
        1.07993         4.32202         3.38404         3.38404 
        1.08607         4.29513         3.34075         3.34075 
        1.09222         4.24165         3.29818         3.29818 
        1.09836         4.20177         3.25641         3.25641 
        1.10449         4.15183         3.21542         3.21542 
        1.11063         4.10248         3.17509         3.17509 
        1.11677         4.06132         3.13548         3.13548 
         1.1229         4.01564         3.09662         3.09662 
        1.12903         3.96906          3.0584          3.0584 
        1.13518         3.93267         3.02079         3.02079 
        1.14131         3.87393         2.98385         2.98385 
        1.14745         3.82063         2.94755         2.94755 
        1.15359         3.80172         2.91185         2.91185 
        1.15973         3.74838         2.87673         2.87673 
        1.16584         3.72035         2.84236         2.84236 
        1.17197         3.67963         2.80851         2.80851 
        1.17811         3.64505         2.77511         2.77511 
        1.18424         3.61634         2.74235         2.74235 
        1.19038         3.57773         2.71004         2.71004 
        1.19652         3.54019         2.67826         2.67826 
        1.20267         3.50306           2.647           2.647 
        1.20881         3.46492         2.61625         2.61625 
        1.21495         3.43742         2.58604         2.58604 
        1.22108         3.40007         2.55631         2.55631 
         1.2272         3.37681         2.52713         2.52713 
        1.23334         3.32842         2.49834         2.49834 
        1.23949         3.29459         2.46994         2.46994 
        1.24562         3.27529         2.44206         2.44206 
        1.25174         3.23111         2.41466         2.41466 
        1.25789         3.20654          2.3876          2.3876 
        1.26402         3.16914           2.361           2.361 
        1.27014         3.13767         2.33488         2.33488 
        1.27628         3.11989         2.30908         2.30908 
        1.28244         3.07588         2.28362         2.28362 
        1.28858         3.05804         2.25859         2.25859 
        1.29471         3.02333         2.23398         2.23398 
        1.30084         2.99203         2.20977         2.20977 
        1.30697         2.97954         2.18589         2.18589 
        1.31312         2.92442         2.16232         2.16232 
        1.31925         2.91246         2.13918         2.13918 
        1.32537         2.88431         2.11641         2.11641 
        1.33151         2.86688         2.09388         2.09388 
        1.33765         2.82707         2.07171         2.07171 
        1.34378         2.80273          2.0499          2.0499 
        1.34992         2.78978         2.02839         2.02839 
        1.35606         2.74877         2.00714         2.00714 
         1.3622         2.73548         1.98624         1.98624 
        1.36833         2.70873          1.9657          1.9657 
        1.37445         2.68217         1.94545         1.94545 
        1.38059         2.66542         1.92543         1.92543 
        1.38675         2.64814         1.90565         1.90565 
        1.39288         2.61446         1.88622         1.88622 
        1.39901          2.5885         1.86708         1.86708 
        1.40515         2.56973         1.84817         1.84817 
         1.4113          2.5488         1.82952         1.82952 
        1.41742         2.52851         1.81121         1.81121 
        1.42355         2.51105         1.79311         1.79311 
         1.4297         2.48045         1.77521         1.77521 
        1.43585         2.46864         1.75756         1.75756 
        1.44198         2.45069         1.74022         1.74022 
        1.44809         2.41874         1.72315         1.72315 
        1.45423         2.40014         1.70625         1.70625 
        1.46036         2.37991         1.68961         1.68961 
        1.46649         2.35858         1.67318         1.67318 
        1.47263         2.33727         1.65697         1.65697 
        1.47877         2.31483         1.64097         1.64097 
        1.48491         2.29898         1.62517         1.62517 
        1.49104         2.28437          1.6096          1.6096 
        1.49718         2.26606         1.59424         1.59424 
        1.50333         2.24624         1.57905         1.57905 
        1.50947         2.22982         1.56409         1.56409 
         1.5156         2.21135         1.54934         1.54934 
        1.52172         2.19431         1.53479         1.53479 
        1.52787         2.17552          1.5204          1.5204 
          1.534         2.15994         1.50621         1.50621 
        1.54013         2.14052         1.49222         1.49222 
        1.54627         2.11902         1.47838         1.47838 
        1.55241         2.10322         1.46472         1.46472 
        1.55855         2.09188         1.45125         1.45125 
        1.56467          2.0751         1.43798         1.43798 
         1.5708          2.0521         1.42485         1.42485 
        1.57695         2.04188         1.41186         1.41186 
        1.58308         2.02433         1.39906         1.39906 
        1.58922          2.0118         1.38642         1.38642 
        1.59535         1.99553         1.37394         1.37394 
         1.6015         1.98101         1.36159         1.36159 
        1.60764         1.96804         1.34941         1.34941 
        1.61376         1.95272          1.3374          1.3374 
        1.61989         1.93544         1.32554         1.32554 
        1.62604         1.92009         1.31379         1.31379 
        1.63218         1.91216          1.3022          1.3022 
        1.63831         1.89073         1.29077         1.29077 
        1.64444         1.87633         1.27948         1.27948 
        1.65059         1.86624         1.26829         1.26829 
        1.65673         1.85202         1.25725         1.25725 
        1.66285         1.83481         1.24638         1.24638 
        1.66898         1.82599         1.23563         1.23563 
        1.67512         1.80727         1.22499         1.22499 
        1.68127         1.79648         1.21446         1.21446 
         1.6874         1.78794         1.20409         1.20409 
        1.69353         1.76628         1.19384         1.19384 
        1.69967         1.75556         1.18368         1.18368 
        1.70581         1.74953         1.17365         1.17365 
        1.71193         1.73325         1.16378         1.16378 
        1.71806          1.7243           1.154           1.154 
        1.72421         1.71074         1.14431         1.14431 
        1.73035         1.69667         1.13474         1.13474 
        1.73649         1.68552         1.12529         1.12529 
        1.74262         1.67365         1.11595         1.11595 
        1.74876         1.66401         1.10672         1.10672 
        1.75489         1.64835         1.09761         1.09761 
        1.76101         1.63732          1.0886          1.0886 
        1.76715         1.62727         1.07968         1.07968 
        1.77329         1.61644         1.07086         1.07086 
        1.77943         1.60259         1.06213         1.06213 
        1.78557         1.59306         1.05351         1.05351 
        1.79171         1.58568         1.04498         1.04498 
        1.79785         1.57066         1.03655         1.03655 
        1.80399          1.5623         1.02821         1.02821 
        1.81012         1.55404         1.01998         1.01998 
        1.81625         1.53992         1.01184         1.01184 
        1.82239         1.52955         1.00378         1.00378 
        1.82853         1.51499        0.995814        0.995814 
        1.83466         1.51005         0.98794         0.98794 
        1.84078         1.49926         0.98016         0.98016 
        1.84692         1.49094        0.972452        0.972452 
        1.85306         1.47813        0.964817        0.964817 
         1.8592         1.47017        0.957277        0.957277 
        1.86533         1.45917        0.949823        0.949823 
        1.87147         1.45197        0.942439        0.942439 
        1.87761         1.44186        0.935131        0.935131 
