# k  (h/Mpc)    Pcb(k)  (Mpc/h)^3    Pcb_linear(k) (Mpc/h)^3    Pcb_NL(k) (Mpc/h)^3   ShotnoiseSubtracted = false
     0.00783031         166.216         167.698         167.698 
       0.013688         211.408         212.229         212.229 
       0.019231         218.618         218.834         218.834 
      0.0249154         205.466         206.145         206.145 
      0.0312784         182.611          182.66          182.66 
      0.0375637         159.656         159.394         159.394 
      0.0433917         141.838         141.807         141.807 
      0.0492413         128.829         128.698         128.698 
      0.0555754         118.284         118.421         118.421 
      0.0619321         110.337         110.143         110.143 
       0.067871         102.463         102.598         102.598 
      0.0738098         94.2451         94.4125         94.4125 
      0.0800417         84.9673         85.1862         85.1862 
      0.0862327          76.008         76.0802         76.0802 
      0.0921407         68.2558         68.2492         68.2492 
      0.0982031         61.5945         61.6473         61.6473 
       0.104506         56.5889         56.4749         56.4749 
       0.110769          52.831         52.7685         52.7685 
       0.116806         49.9562         50.0438         50.0438 
       0.122832         47.6159         47.6183         47.6183 
       0.129052         44.8931         44.9976         44.9976 
       0.135211         41.9802         42.1009         42.1009 
       0.141259         39.0064         39.0346         39.0346 
       0.147318         36.0212         35.9681         35.9681 
       0.153489         33.1199         33.1111         33.1111 
       0.159709         30.7045         30.6909         30.6909 
       0.165845         28.9226         28.8068         28.8068 
       0.171974         27.3448         27.3523         27.3523 
       0.178125         26.1745         26.1711         26.1711 
       0.184229         25.1423         25.1069         25.1069 
        0.19034         23.9542          24.017          24.017 
       0.196428         22.8408         22.8444         22.8444 
       0.202534          21.676         21.5925         21.5925 
       0.208729         20.3438           20.31           20.31 
       0.214876         19.0939         19.1072         19.1072 
       0.220989         18.1309         18.0437         18.0437 
       0.227147         17.1289         17.1342         17.1342 
        0.23329         16.3744         16.3778         16.3778 
       0.239377         15.7445          15.738          15.738 
       0.245482         15.1353         15.1555         15.1555 
       0.251667         14.6119         14.5809         14.5809 
       0.257832         14.0057         13.9961         13.9961 
       0.263955         13.4197         13.3986         13.3986 
       0.270079         12.8299         12.7979         12.7979 
        0.27624         12.2861         12.2129         12.2129 
       0.282372          11.742         11.6714         11.6714 
        0.28843         11.2266         11.1887         11.1887 
       0.294538         10.7959         10.7559         10.7559 
       0.300721         10.4362         10.3648         10.3648 
        0.30691         10.0417         10.0057         10.0057 
       0.313033         9.70793         9.66826         9.66826 
       0.319153         9.32246         9.33749         9.33749 
       0.325316         9.07026         9.00652         9.00652 
        0.33145         8.73158         8.68005         8.68005 
       0.337538         8.41375         8.36417         8.36417 
       0.343633         8.09849           8.062           8.062 
       0.349808         7.82623         7.77501         7.77501 
       0.355968           7.566         7.51003         7.51003 
       0.362074         7.31439         7.26692         7.26692 
       0.368217         7.08788         7.03887         7.03887 
       0.374374         6.84834         6.82222         6.82222 
       0.380519         6.66191         6.61405         6.61405 
       0.386598         6.46799         6.41365         6.41365 
       0.392688         6.28363         6.21734         6.21734 
        0.39888         6.07917         6.02318         6.02318 
       0.405048         5.89724         5.83658         5.83658 
       0.411186         5.72467         5.65891         5.65891 
       0.417313         5.54183         5.49067         5.49067 
       0.423458         5.39396         5.33098         5.33098 
       0.429607          5.2289         5.17943         5.17943 
       0.435692         5.08564         5.03662         5.03662 
       0.441815          4.9504         4.89869         4.89869 
       0.447964         4.83438          4.7648          4.7648 
       0.454126         4.68346         4.63479         4.63479 
       0.460267         4.55708          4.5092          4.5092 
       0.466387         4.42896         4.38798         4.38798 
        0.47254         4.31831         4.27037         4.27037 
       0.478662         4.21175         4.15794         4.15794 
       0.484765         4.09614         4.05048         4.05048 
       0.490885         3.99495         3.94708         3.94708 
       0.497035         3.91395         3.84729         3.84729 
       0.503198         3.80755         3.75111         3.75111 
       0.509342         3.72075         3.65859         3.65859 
       0.515458         3.62218         3.56946         3.56946 
       0.521598         3.53794         3.48269         3.48269 
       0.527764         3.44523         3.39828         3.39828 
       0.533884         3.37778          3.3172          3.3172 
           0.54          3.2953         3.23887         3.23887 
       0.546137         3.22341         3.16288         3.16288 
       0.552299         3.14764         3.08917         3.08917 
       0.558452          3.0668          3.0181          3.0181 
       0.564573          3.0057         2.94978         2.94978 
       0.570708          2.9396         2.88353         2.88353 
       0.576825         2.87005         2.81953         2.81953 
       0.582926          2.8157         2.75762         2.75762 
       0.589034         2.73849         2.69744         2.69744 
       0.595184         2.68458         2.63863         2.63863 
       0.601379         2.62718         2.58119         2.58119 
       0.607522         2.57908         2.52595         2.52595 
       0.613639         2.53298         2.47261         2.47261 
       0.619772         2.46861         2.42074         2.42074 
       0.625918         2.42246         2.37029         2.37029 
       0.632068         2.37893         2.32129         2.32129 
       0.638161         2.32524         2.27413         2.27413 
         0.6443         2.27838         2.22797         2.22797 
       0.650464         2.22726         2.18294         2.18294 
       0.656582         2.19048         2.13949         2.13949 
       0.662703         2.14843         2.09723         2.09723 
       0.668861         2.11269         2.05588         2.05588 
       0.675024         2.06622         2.01563         2.01563 
       0.681124         2.02246         1.97687         1.97687 
       0.687237         1.99089         1.93908         1.93908 
       0.693381         1.95469         1.90211         1.90211 
       0.699536         1.90724         1.86605         1.86605 
       0.705665         1.87473          1.8311          1.8311 
       0.711789         1.84487          1.7971          1.7971 
       0.717957         1.80727         1.76374         1.76374 
        0.72409         1.77647         1.73143         1.73143 
       0.730186         1.74368         1.70013         1.70013 
       0.736317         1.72057         1.66945         1.66945 
       0.742472         1.68848         1.63942         1.63942 
       0.748622         1.65639         1.61017         1.61017 
        0.75476         1.62276         1.58171         1.58171 
       0.760888           1.595         1.55399         1.55399 
       0.767043         1.57674         1.52683         1.52683 
       0.773185         1.54374         1.50038         1.50038 
       0.779291         1.51917         1.47472         1.47472 
       0.785407         1.49415         1.44963         1.44963 
       0.791564         1.47003         1.42498         1.42498 
       0.797719         1.44805         1.40091         1.40091 
       0.803834         1.42494         1.37757         1.37757 
       0.809972         1.40046         1.35468         1.35468 
       0.816124         1.37557         1.33226         1.33226 
       0.822261         1.35125         1.31042         1.31042 
       0.828378         1.33332         1.28915         1.28915 
       0.834502         1.31481         1.26833         1.26833 
       0.840667         1.28847         1.24784         1.24784 
       0.846816         1.26898         1.22787         1.22787 
       0.852925          1.2541         1.20847         1.20847 
       0.859047          1.2342         1.18945         1.18945 
       0.865192         1.21312         1.17079         1.17079 
       0.871341         1.19441         1.15252         1.15252 
       0.877463         1.18076         1.13472         1.13472 
       0.883569         1.15938         1.11735         1.11735 
       0.889708          1.1419         1.10026         1.10026 
       0.895864         1.12495         1.08349         1.08349 
       0.902008         1.10695         1.06711         1.06711 
       0.908149         1.09092         1.05108         1.05108 
       0.914301         1.07072         1.03536         1.03536 
       0.920448         1.05735         1.01998         1.01998 
       0.926574         1.04156         1.00496         1.00496 
       0.932687         1.02655         0.99029         0.99029 
       0.938823         1.01607         0.97586         0.97586 
       0.944975          1.0004        0.961689        0.961689 
       0.951105        0.987024        0.947853        0.947853 
       0.957225        0.975756        0.934316        0.934316 
       0.963368        0.960757        0.921001        0.921001 
       0.969511        0.945337        0.907948        0.907948 
       0.975621         0.93106        0.895221        0.895221 
       0.981748        0.922342        0.882708        0.882708 
       0.987916        0.908454        0.870359        0.870359 
        0.99406        0.894902        0.858294        0.858294 
        1.00019        0.885417        0.846485        0.846485 
        1.00632        0.870173        0.834911        0.834911 
        1.01246        0.858839        0.823538        0.823538 
        1.01859        0.849241        0.812399        0.812399 
        1.02471        0.837018        0.801481        0.801481 
        1.03085        0.828835        0.790729        0.790729 
        1.03698        0.815822        0.780199        0.780199 
        1.04314        0.806067        0.769819        0.769819 
        1.04929        0.794495        0.759653        0.759653 
        1.05541        0.786115        0.749714        0.749714 
        1.06154        0.774472         0.73993         0.73993 
        1.06769        0.763932        0.730308        0.730308 
        1.07382        0.755437        0.720889        0.720889 
        1.07993         0.74417         0.71166         0.71166 
        1.08607        0.738368        0.702556        0.702556 
        1.09222        0.727043        0.693604        0.693604 
        1.09836        0.720856         0.68482         0.68482 
        1.10449        0.711606        0.676199        0.676199 
        1.11063        0.700463        0.667719        0.667719 
        1.11677        0.691206        0.659389        0.659389 
         1.1229        0.684164        0.651217        0.651217 
        1.12903        0.674957        0.643178        0.643178 
        1.13518        0.668517         0.63527         0.63527 
        1.14131        0.659228          0.6275          0.6275 
        1.14745        0.648387        0.619866        0.619866 
        1.15359        0.643417        0.612359        0.612359 
        1.15973        0.633665        0.604974        0.604974 
        1.16584        0.629816        0.597746        0.597746 
        1.17197        0.621231        0.590627        0.590627 
        1.17811        0.614896        0.583602        0.583602 
        1.18424        0.609372        0.576714        0.576714 
        1.19038        0.600253        0.569918        0.569918 
        1.19652         0.59198        0.563236        0.563236 
        1.20267        0.587804        0.556661        0.556661 
        1.20881        0.579709        0.550194        0.550194 
        1.21495        0.574928        0.543841        0.543841 
        1.22108        0.567817         0.53759         0.53759 
         1.2272        0.562334        0.531454        0.531454 
        1.23334        0.555068          0.5254          0.5254 
        1.23949        0.549058        0.519427        0.519427 
        1.24562        0.543225        0.513564        0.513564 
        1.25174        0.537649        0.507801        0.507801 
        1.25789        0.532444         0.50211         0.50211 
        1.26402         0.52463        0.496517        0.496517 
        1.27014         0.51952        0.491024        0.491024 
        1.27628        0.515334        0.485598        0.485598 
        1.28244         0.50752        0.480244        0.480244 
        1.28858        0.503145        0.474979        0.474979 
        1.29471        0.499202        0.469805        0.469805 
        1.30084        0.492514        0.464713        0.464713 
        1.30697        0.487447         0.45969         0.45969 
        1.31312        0.480577        0.454734        0.454734 
        1.31925        0.476717        0.449868        0.449868 
        1.32537        0.472531        0.445078        0.445078 
        1.33151        0.468312        0.440342        0.440342 
        1.33765        0.463154        0.435678        0.435678 
        1.34378        0.457124        0.431091        0.431091 
        1.34992        0.453397        0.426568        0.426568 
        1.35606         0.44851          0.4221          0.4221 
         1.3622        0.444115        0.417705        0.417705 
        1.36833         0.43935        0.413384        0.413384 
        1.37445         0.43374        0.409127        0.409127 
        1.38059        0.429756        0.404917        0.404917 
        1.38675        0.428059        0.400756        0.400756 
        1.39288        0.422397        0.396671        0.396671 
        1.39901        0.418381        0.392646        0.392646 
        1.40515        0.414694        0.388668        0.388668 
         1.4113        0.409472        0.384747        0.384747 
        1.41742        0.405662        0.380895        0.380895 
        1.42355         0.40315        0.377089        0.377089 
         1.4297        0.397899        0.373325        0.373325 
        1.43585        0.394549        0.369613        0.369613 
        1.44198        0.391911        0.365967        0.365967 
        1.44809        0.386907        0.362377        0.362377 
        1.45423        0.383621        0.358823        0.358823 
        1.46036        0.379712        0.355323        0.355323 
        1.46649        0.376887        0.351869        0.351869 
        1.47263        0.372767        0.348458        0.348458 
        1.47877        0.368556        0.345095        0.345095 
        1.48491        0.365763        0.341771        0.341771 
        1.49104        0.361337        0.338498        0.338498 
        1.49718        0.358508        0.335266        0.335266 
        1.50333        0.355874        0.332072        0.332072 
        1.50947        0.352238        0.328926        0.328926 
         1.5156        0.348721        0.325825        0.325825 
        1.52172        0.345799        0.322765        0.322765 
        1.52787        0.342486        0.319739        0.319739 
          1.534        0.339266        0.316755        0.316755 
        1.54013        0.335755        0.313812        0.313812 
        1.54627        0.333538        0.310902        0.310902 
        1.55241        0.329901        0.308029        0.308029 
        1.55855        0.326518        0.305196        0.305196 
        1.56467        0.325309        0.302406        0.302406 
         1.5708        0.321573        0.299644        0.299644 
        1.57695        0.318863        0.296913        0.296913 
        1.58308        0.315728        0.294222        0.294222 
        1.58922        0.313277        0.291563        0.291563 
        1.59535        0.310291        0.288938        0.288938 
         1.6015        0.307452        0.286342        0.286342 
        1.60764        0.305112        0.283779        0.283779 
        1.61376        0.301625        0.281255        0.281255 
        1.61989        0.299691         0.27876         0.27876 
        1.62604        0.297326         0.27629         0.27629 
        1.63218        0.294845        0.273851        0.273851 
        1.63831        0.292375        0.271448        0.271448 
        1.64444        0.289691        0.269073        0.269073 
        1.65059        0.287285        0.266721        0.266721 
        1.65673         0.28491        0.264399        0.264399 
        1.66285         0.28283        0.262113        0.262113 
        1.66898        0.280414        0.259852        0.259852 
        1.67512        0.277459        0.257614        0.257614 
        1.68127        0.274994        0.255401        0.255401 
         1.6874        0.273543        0.253218        0.253218 
        1.69353        0.270569        0.251063        0.251063 
        1.69967         0.26912        0.248928        0.248928 
        1.70581        0.266037        0.246818        0.246818 
        1.71193        0.264192        0.244742        0.244742 
        1.71806        0.261645        0.242685        0.242685 
        1.72421        0.260248        0.240647        0.240647 
        1.73035        0.257653        0.238636        0.238636 
        1.73649         0.25607        0.236648        0.236648 
        1.74262        0.253758        0.234684        0.234684 
        1.74876        0.251614        0.232742        0.232742 
        1.75489        0.249929        0.230826        0.230826 
        1.76101        0.247327        0.228932        0.228932 
        1.76715        0.245551        0.227057        0.227057 
        1.77329        0.243338        0.225201        0.225201 
        1.77943        0.241503        0.223365        0.223365 
        1.78557        0.240106        0.221552        0.221552 
        1.79171        0.238101        0.219759        0.219759 
        1.79785        0.236172        0.217986        0.217986 
        1.80399        0.234252        0.216233        0.216233 
        1.81012        0.232642        0.214501        0.214501 
        1.81625        0.230641         0.21279         0.21279 
        1.82239        0.229027        0.211095        0.211095 
        1.82853        0.226806        0.209419        0.209419 
        1.83466        0.225422        0.207763        0.207763 
        1.84078        0.223531        0.206127        0.206127 
        1.84692        0.221748        0.204506        0.204506 
        1.85306        0.220519          0.2029          0.2029 
         1.8592        0.218376        0.201315        0.201315 
        1.86533        0.217118        0.199747        0.199747 
        1.87147         0.21531        0.198194        0.198194 
