# k  (h/Mpc)    P(k)  (Mpc/h)^3    P_linear(k)  (Mpc/h)^3     P_NL(k)  ShotnoiseSubtracted = false
     0.00783031          2880.6          2911.9          2911.9 
       0.013688         3688.18         3682.57         3682.57 
       0.019231         3799.12         3796.18         3796.18 
      0.0249154         3543.96         3575.56         3575.56 
      0.0312784         3159.12         3167.95         3167.95 
      0.0375637         2770.37         2764.29         2764.29 
      0.0433917         2446.03         2459.22         2459.22 
      0.0492413         2229.68         2231.83         2231.83 
      0.0555754         2032.32         2053.59         2053.59 
      0.0619321         1918.29         1910.01         1910.01 
       0.067871         1764.47         1779.14         1779.14 
      0.0738098          1622.3         1637.19         1637.19 
      0.0800417          1457.1         1477.19         1477.19 
      0.0862327         1309.56         1319.28         1319.28 
      0.0921407         1182.18         1183.48         1183.48 
      0.0982031         1063.61            1069            1069 
       0.104506         988.166         979.301         979.301 
       0.110769         921.547          915.03          915.03 
       0.116806         867.175          867.78          867.78 
       0.122832         829.983          825.72          825.72 
       0.129052         776.769         780.276         780.276 
       0.135211         727.725         730.045         730.045 
       0.141259         681.871         676.872         676.872 
       0.147318         633.422         623.698         623.698 
       0.153489         580.798         574.155         574.155 
       0.159709         542.499         532.188         532.188 
       0.165845         516.306         499.517         499.517 
       0.171974         485.816         474.296         474.296 
       0.178125         465.622         453.814         453.814 
       0.184229         448.475         435.359         435.359 
        0.19034         421.762         416.461         416.461 
       0.196428         408.015         396.126         396.126 
       0.202534         391.258         374.418         374.418 
       0.208729         367.579          352.18          352.18 
       0.214876         344.679         331.322         331.322 
       0.220989         331.836          312.88          312.88 
       0.227147         312.064          297.11          297.11 
        0.23329         299.511         283.995         283.995 
       0.239377         290.776           272.9           272.9 
       0.245482         275.092         262.798         262.798 
       0.251667         269.598         252.835         252.835 
       0.257832         259.762         242.695         242.695 
       0.263955          249.25         232.333         232.333 
       0.270079         239.555         221.917         221.917 
        0.27624         233.079         211.774         211.774 
       0.282372         223.346         202.385         202.385 
        0.28843         214.338         194.014         194.014 
       0.294538         205.885         186.508         186.508 
       0.300721         202.116         179.726         179.726 
        0.30691         193.311         173.501         173.501 
       0.313033         187.868         167.649         167.649 
       0.319153          179.55         161.913         161.913 
       0.325316         176.136         156.174         156.174 
        0.33145         169.636         150.513         150.513 
       0.337538         165.949         145.036         145.036 
       0.343633         160.176         139.796         139.796 
       0.349808          155.31          134.82          134.82 
       0.355968         151.527         130.225         130.225 
       0.362074         147.004         126.009         126.009 
       0.368217         142.941         122.055         122.055 
       0.374374         138.798         118.298         118.298 
       0.380519         135.519         114.689         114.689 
       0.386598         131.891         111.214         111.214 
       0.392688         129.394         107.809         107.809 
        0.39888         125.788         104.443         104.443 
       0.405048         122.844         101.207         101.207 
       0.411186         120.084         98.1262         98.1262 
       0.417313         116.614         95.2089         95.2089 
       0.423458         113.902         92.4398         92.4398 
       0.429607         110.971          89.812          89.812 
       0.435692         107.497         87.3356         87.3356 
       0.441815         106.351         84.9438         84.9438 
       0.447964         104.576         82.6223         82.6223 
       0.454126         100.147         80.3678         80.3678 
       0.460267         98.7185           78.19           78.19 
       0.466387          96.503         76.0881         76.0881 
        0.47254           94.92         74.0487         74.0487 
       0.478662         93.4177         72.0991         72.0991 
       0.484765         90.9236         70.2357         70.2357 
       0.490885         89.1141         68.4429         68.4429 
       0.497035         87.8767         66.7124         66.7124 
       0.503198         85.5608         65.0447         65.0447 
       0.509342         83.5687         63.4404         63.4404 
       0.515458          82.177         61.8948         61.8948 
       0.521598         81.0284         60.3903         60.3903 
       0.527764         79.5445         58.9266         58.9266 
       0.533884         78.1643         57.5206         57.5206 
           0.54         76.6553         56.1623         56.1623 
       0.546137          75.683         54.8448         54.8448 
       0.552299          74.562         53.5666         53.5666 
       0.558452         72.4788         52.3342         52.3342 
       0.564573         71.2498         51.1496         51.1496 
       0.570708         70.4122         50.0007         50.0007 
       0.576825         68.9566          48.891          48.891 
       0.582926         67.6735         47.8174         47.8174 
       0.589034         66.0959         46.7738         46.7738 
       0.595184         65.3133         45.7541         45.7541 
       0.601379         64.4528          44.758          44.758 
       0.607522         62.9364         43.8002         43.8002 
       0.613639         62.6954         42.8754         42.8754 
       0.619772          61.118         41.9759         41.9759 
       0.625918         60.7393         41.1011         41.1011 
       0.632068         59.8587         40.2514         40.2514 
       0.638161         58.8395         39.4337         39.4337 
         0.6443         57.8564         38.6332         38.6332 
       0.650464         56.9574         37.8523         37.8523 
       0.656582         56.5064         37.0989         37.0989 
       0.662703         55.3782         36.3661         36.3661 
       0.668861          54.635         35.6491         35.6491 
       0.675024         53.8081         34.9512         34.9512 
       0.681124         52.9297         34.2792         34.2792 
       0.687237         52.0434         33.6238         33.6238 
       0.693381         51.6306         32.9827         32.9827 
       0.699536         50.5709         32.3575         32.3575 
       0.705665         50.6675         31.7515         31.7515 
       0.711789         49.3733         31.1619         31.1619 
       0.717957         48.8923         30.5834         30.5834 
        0.72409          48.208         30.0231         30.0231 
       0.730186         47.4831         29.4804         29.4804 
       0.736317         47.1605         28.9484         28.9484 
       0.742472         46.3495         28.4278         28.4278 
       0.748622         45.9717         27.9206         27.9206 
        0.75476         45.2974          27.427          27.427 
       0.760888         44.6563         26.9463         26.9463 
       0.767043         44.1702         26.4753         26.4753 
       0.773185         43.5203         26.0168         26.0168 
       0.779291         43.2988         25.5718         25.5718 
       0.785407         42.8481         25.1368         25.1368 
       0.791564         42.0826         24.7092         24.7092 
       0.797719         41.3302          24.292          24.292 
       0.803834         41.2631         23.8872         23.8872 
       0.809972         40.7265         23.4902         23.4902 
       0.816124         39.9172         23.1016         23.1016 
       0.822261         39.7343         22.7229         22.7229 
       0.828378         39.3768         22.3539         22.3539 
       0.834502         38.9085         21.9929         21.9929 
       0.840667         38.5125         21.6377         21.6377 
       0.846816         37.9251         21.2914         21.2914 
       0.852925          37.615          20.955          20.955 
       0.859047         37.1364         20.6252         20.6252 
       0.865192         36.8376         20.3016         20.3016 
       0.871341         36.6285         19.9847         19.9847 
       0.877463         35.9123         19.6762         19.6762 
       0.883569         35.5831          19.375          19.375 
       0.889708         35.2532         19.0786         19.0786 
       0.895864         34.9565         18.7878         18.7878 
       0.902008         34.6771         18.5038         18.5038 
       0.908149         34.3167         18.2258         18.2258 
       0.914301         34.1653         17.9532         17.9532 
       0.920448         33.5041         17.6865         17.6865 
       0.926574         33.3174         17.4262         17.4262 
       0.932687           32.95         17.1717         17.1717 
       0.938823         32.5385         16.9215         16.9215 
       0.944975          32.314         16.6758         16.6758 
       0.951105         32.0459         16.4359         16.4359 
       0.957225         31.6667         16.2011         16.2011 
       0.963368         31.4774         15.9702         15.9702 
       0.969511          31.216         15.7439         15.7439 
       0.975621         30.9783         15.5232         15.5232 
       0.981748         30.5509         15.3062         15.3062 
       0.987916         30.3721         15.0921         15.0921 
        0.99406         30.0744         14.8829         14.8829 
        1.00019         29.6985         14.6781         14.6781 
        1.00632         29.5887         14.4774         14.4774 
        1.01246         29.3442         14.2802         14.2802 
        1.01859         28.9368         14.0871         14.0871 
        1.02471         28.8851         13.8978         13.8978 
        1.03085         28.6017         13.7113         13.7113 
        1.03698         28.1571         13.5287         13.5287 
        1.04314         27.9786         13.3487         13.3487 
        1.04929         27.7365         13.1724         13.1724 
        1.05541         27.4538         13.0001         13.0001 
        1.06154         27.3156         12.8304         12.8304 
        1.06769         27.1229         12.6636         12.6636 
        1.07382          26.865         12.5003         12.5003 
        1.07993           26.75         12.3403         12.3403 
        1.08607         26.3868         12.1824         12.1824 
        1.09222         26.2598         12.0272         12.0272 
        1.09836         25.9386         11.8748         11.8748 
        1.10449         25.8405         11.7254         11.7254 
        1.11063         25.5089         11.5783         11.5783 
        1.11677         25.4281         11.4339         11.4339 
         1.1229         25.3059         11.2922         11.2922 
        1.12903         24.9636         11.1528         11.1528 
        1.13518         24.7509         11.0156         11.0156 
        1.14131         24.6786         10.8809         10.8809 
        1.14745         24.4751         10.7485         10.7485 
        1.15359         24.3367         10.6184         10.6184 
        1.15973         24.0793         10.4903         10.4903 
        1.16584         23.8076          10.365          10.365 
        1.17197         23.8309         10.2415         10.2415 
        1.17811         23.5154         10.1197         10.1197 
        1.18424         23.3082         10.0003         10.0003 
        1.19038         23.2484         9.88243         9.88243 
        1.19652         23.0785         9.76655         9.76655 
        1.20267         22.8825         9.65255         9.65255 
        1.20881         22.7638         9.54041         9.54041 
        1.21495         22.5865         9.43025         9.43025 
        1.22108          22.399         9.32186         9.32186 
         1.2272         22.1716         9.21545         9.21545 
        1.23334         22.0638         9.11047         9.11047 
        1.23949         21.8759          9.0069          9.0069 
        1.24562         21.8132         8.90524         8.90524 
        1.25174          21.682         8.80531         8.80531 
        1.25789         21.5193         8.70663         8.70663 
        1.26402         21.4258         8.60965         8.60965 
        1.27014         21.1971          8.5144          8.5144 
        1.27628         20.9935         8.42031         8.42031 
        1.28244         20.9371         8.32747         8.32747 
        1.28858         20.8556         8.23617         8.23617 
        1.29471         20.6534         8.14645         8.14645 
        1.30084         20.4937         8.05816         8.05816 
        1.30697         20.3675         7.97106         7.97106 
        1.31312         20.1843         7.88513         7.88513 
        1.31925          20.065         7.80075         7.80075 
        1.32537         20.0118          7.7177          7.7177 
        1.33151         19.8182         7.63557         7.63557 
        1.33765         19.7328         7.55469         7.55469 
        1.34378         19.6374         7.47516         7.47516 
        1.34992         19.3963         7.39672         7.39672 
        1.35606         19.3672         7.31925         7.31925 
         1.3622         19.2535         7.24304         7.24304 
        1.36833          19.088         7.16811         7.16811 
        1.37445         19.0305         7.09429         7.09429 
        1.38059          18.906         7.02129         7.02129 
        1.38675         18.7122         6.94915         6.94915 
        1.39288         18.6475         6.87831         6.87831 
        1.39901         18.4983         6.80851         6.80851 
        1.40515         18.4278         6.73953         6.73953 
         1.4113         18.2924         6.67154         6.67154 
        1.41742         18.1575         6.60475         6.60475 
        1.42355         18.0885         6.53876         6.53876 
         1.4297          17.984         6.47348         6.47348 
        1.43585         17.9281         6.40912         6.40912 
        1.44198         17.7408          6.3459          6.3459 
        1.44809         17.6755         6.28365         6.28365 
        1.45423         17.5599         6.22202         6.22202 
        1.46036         17.4946         6.16133         6.16133 
        1.46649         17.3934         6.10143         6.10143 
        1.47263         17.2453          6.0423          6.0423 
        1.47877         17.1699         5.98397         5.98397 
        1.48491         17.0724         5.92634         5.92634 
        1.49104         17.0184         5.86959         5.86959 
        1.49718          16.879         5.81354         5.81354 
        1.50333         16.7956         5.75815         5.75815 
        1.50947          16.723          5.7036          5.7036 
         1.5156         16.5827         5.64984         5.64984 
        1.52172         16.4825         5.59677         5.59677 
        1.52787         16.4163         5.54429         5.54429 
          1.534         16.3172         5.49255         5.49255 
        1.54013         16.1944         5.44153         5.44153 
        1.54627         16.1244         5.39107         5.39107 
        1.55241         16.0375         5.34124         5.34124 
        1.55855         15.9653         5.29212         5.29212 
        1.56467         15.8752         5.24375         5.24375 
         1.5708         15.8361         5.19586         5.19586 
        1.57695         15.6816         5.14849         5.14849 
        1.58308         15.6426         5.10183         5.10183 
        1.58922         15.5535         5.05572         5.05572 
        1.59535         15.4746         5.01021         5.01021 
         1.6015         15.3665         4.96519         4.96519 
        1.60764         15.3047         4.92075         4.92075 
        1.61376          15.254         4.87698         4.87698 
        1.61989         15.1064         4.83372         4.83372 
        1.62604         15.0977         4.79088         4.79088 
        1.63218         14.9869          4.7486          4.7486 
        1.63831          14.936         4.70693         4.70693 
        1.64444         14.8121         4.66574         4.66574 
        1.65059         14.7501         4.62496         4.62496 
        1.65673         14.7077         4.58471         4.58471 
        1.66285         14.5747         4.54505         4.54505 
        1.66898         14.5449         4.50585         4.50585 
        1.67512         14.4808         4.46705         4.46705 
        1.68127         14.3761         4.42867         4.42867 
         1.6874         14.3103         4.39082         4.39082 
        1.69353         14.2574         4.35345         4.35345 
        1.69967         14.1608         4.31642         4.31642 
        1.70581         14.0827         4.27985         4.27985 
        1.71193         14.0111         4.24384         4.24384 
        1.71806         13.9809         4.20817         4.20817 
        1.72421         13.8806         4.17284         4.17284 
        1.73035         13.8467         4.13796         4.13796 
        1.73649         13.7665         4.10349         4.10349 
        1.74262         13.7161         4.06944         4.06944 
        1.74876         13.6401         4.03576         4.03576 
        1.75489          13.583         4.00254         4.00254 
        1.76101         13.4797          3.9697          3.9697 
        1.76715         13.4847         3.93718         3.93718 
        1.77329         13.3796         3.90499         3.90499 
        1.77943         13.3028         3.87316         3.87316 
        1.78557         13.2577         3.84172         3.84172 
        1.79171         13.2204         3.81064         3.81064 
        1.79785         13.1212         3.77989         3.77989 
        1.80399         13.0679         3.74949         3.74949 
        1.81012         13.0105         3.71947         3.71947 
        1.81625         12.9369         3.68979         3.68979 
        1.82239         12.8924          3.6604          3.6604 
        1.82853         12.7887         3.63134         3.63134 
        1.83466         12.7556         3.60262         3.60262 
        1.84078         12.6632         3.57425         3.57425 
        1.84692         12.6491         3.54614         3.54614 
        1.85306         12.5815          3.5183          3.5183 
         1.8592         12.5271         3.49081         3.49081 
        1.86533         12.4704         3.46362         3.46362 
        1.87147         12.4144          3.4367          3.4367 
        1.87761         12.3672         3.41005         3.41005 
