# k  (h/Mpc)    Pcb(k)  (Mpc/h)^3    Pcb_linear(k) (Mpc/h)^3    Pcb_NL(k) (Mpc/h)^3   ShotnoiseSubtracted = false
     0.00783031         11281.9         11438.7         11438.7 
       0.013688         14577.1         14471.7         14471.7 
       0.019231         14933.1         14918.3         14918.3 
      0.0249154         13783.4           14051           14051 
      0.0312784         12316.3         12448.8         12448.8 
      0.0375637         10841.6         10862.4         10862.4 
      0.0433917         9484.66         9663.44         9663.44 
      0.0492413         8684.46         8769.82         8769.82 
      0.0555754         7820.11         8069.34         8069.34 
      0.0619321         7483.09         7505.12         7505.12 
       0.067871         6790.01         6990.85         6990.85 
      0.0738098         6246.99         6433.06         6433.06 
      0.0800417         5580.21         5804.33         5804.33 
      0.0862327            5050         5183.83         5183.83 
      0.0921407         4607.36         4650.23         4650.23 
      0.0982031         4143.17         4200.38         4200.38 
       0.104506         3903.16         3847.93         3847.93 
       0.110769         3635.21         3595.38         3595.38 
       0.116806         3425.41         3409.72         3409.72 
       0.122832         3270.93         3244.45         3244.45 
       0.129052         3034.06         3065.89         3065.89 
       0.135211         2858.62         2868.52         2868.52 
       0.141259         2712.12         2659.59         2659.59 
       0.147318         2540.78         2450.65         2450.65 
       0.153489         2328.86         2255.99         2255.99 
       0.159709          2204.7         2091.08         2091.08 
       0.165845         2125.06         1962.71         1962.71 
       0.171974         2010.71         1863.61         1863.61 
       0.178125          1919.9         1783.13         1783.13 
       0.184229         1845.47         1710.62         1710.62 
        0.19034         1734.41         1636.36         1636.36 
       0.196428         1698.08         1556.46         1556.46 
       0.202534         1632.89         1471.17         1471.17 
       0.208729         1551.99         1383.79         1383.79 
       0.214876         1478.54         1301.83         1301.83 
       0.220989          1431.2         1229.37         1229.37 
       0.227147          1365.2         1167.41         1167.41 
        0.23329         1314.64         1115.87         1115.87 
       0.239377         1293.44         1072.28         1072.28 
       0.245482         1212.43         1032.59         1032.59 
       0.251667         1204.01         993.442         993.442 
       0.257832         1157.97         953.597         953.597 
       0.263955          1119.4         912.883         912.883 
       0.270079         1080.77         871.959         871.959 
        0.27624          1068.3         832.102         832.102 
       0.282372         1022.82         795.209         795.209 
        0.28843         1009.91         762.318         762.318 
       0.294538          960.49         732.829         732.829 
       0.300721         957.174         706.181         706.181 
        0.30691         915.994         681.719         681.719 
       0.313033         898.809         658.725         658.725 
       0.319153         879.409         636.189         636.189 
       0.325316          851.53          613.64          613.64 
        0.33145         830.447         591.396         591.396 
       0.337538         818.528         569.874         569.874 
       0.343633         796.141         549.286         549.286 
       0.349808         769.649         529.733         529.733 
       0.355968          765.11         511.679         511.679 
       0.362074         754.461         495.115         495.115 
       0.368217         732.879         479.577         479.577 
       0.374374         702.821         464.817         464.817 
       0.380519         701.565         450.633         450.633 
       0.386598         683.942         436.979         436.979 
       0.392688         681.324         423.604         423.604 
        0.39888         661.487         410.376         410.376 
       0.405048         650.318         397.661         397.661 
       0.411186         640.352         385.557         385.557 
       0.417313         628.009         374.094         374.094 
       0.423458         617.276         363.214         363.214 
       0.429607         606.998         352.888         352.888 
       0.435692         593.408         343.158         343.158 
       0.441815         589.397          333.76          333.76 
       0.447964         576.804         324.639         324.639 
       0.454126          565.68          315.78          315.78 
       0.460267         555.735         307.223         307.223 
       0.466387         549.836         298.965         298.965 
        0.47254         540.004         290.951         290.951 
       0.478662         538.465         283.292         283.292 
       0.484765         521.951         275.969         275.969 
       0.490885         517.579         268.925         268.925 
       0.497035         507.767         262.126         262.126 
       0.503198          501.69         255.573         255.573 
       0.509342         497.366         249.269         249.269 
       0.515458         493.267         243.196         243.196 
       0.521598         482.051         237.285         237.285 
       0.527764         472.627         231.534         231.534 
       0.533884         471.088         226.009         226.009 
           0.54         464.887         220.672         220.672 
       0.546137         462.718         215.495         215.495 
       0.552299         453.905         210.473         210.473 
       0.558452         451.605         205.631         205.631 
       0.564573         444.683         200.976         200.976 
       0.570708         438.281         196.462         196.462 
       0.576825         428.439         192.102         192.102 
       0.582926         427.635         187.884         187.884 
       0.589034         423.598         183.783         183.783 
       0.595184         419.532         179.776         179.776 
       0.601379         414.316         175.863         175.863 
       0.607522         408.306         172.099         172.099 
       0.613639         406.914         168.465         168.465 
       0.619772         396.723         164.931         164.931 
       0.625918         395.946         161.494         161.494 
       0.632068         389.899         158.155         158.155 
       0.638161         388.422         154.942         154.942 
         0.6443         381.328         151.797         151.797 
       0.650464         378.645         148.729         148.729 
       0.656582         377.045         145.769         145.769 
       0.662703         374.739         142.889         142.889 
       0.668861         367.906         140.072         140.072 
       0.675024         364.458          137.33          137.33 
       0.681124         362.316         134.689         134.689 
       0.687237         358.536         132.114         132.114 
       0.693381         353.674         129.595         129.595 
       0.699536         350.077         127.139         127.139 
       0.705665         347.602         124.758         124.758 
       0.711789         344.918         122.441         122.441 
       0.717957         342.033         120.168         120.168 
        0.72409         339.035         117.966         117.966 
       0.730186         335.218         115.834         115.834 
       0.736317         332.097         113.744         113.744 
       0.742472          330.65         111.698         111.698 
       0.748622         327.137         109.705         109.705 
        0.75476         323.807         107.766         107.766 
       0.760888         320.076         105.877         105.877 
       0.767043          320.48         104.026         104.026 
       0.773185         316.095         102.225         102.225 
       0.779291         311.242         100.476         100.476 
       0.785407         310.295         98.7671         98.7671 
       0.791564         306.679         97.0872         97.0872 
       0.797719         304.288         95.4478         95.4478 
       0.803834         302.008         93.8571         93.8571 
       0.809972         300.332         92.2975         92.2975 
       0.816124         300.194         90.7704         90.7704 
       0.822261         295.395         89.2824         89.2824 
       0.828378         293.455         87.8327         87.8327 
       0.834502         292.139         86.4144         86.4144 
       0.840667         288.156         85.0186         85.0186 
       0.846816         286.642          83.658          83.658 
       0.852925         284.797         82.3361         82.3361 
       0.859047         282.936         81.0404         81.0404 
       0.865192         279.969         79.7686         79.7686 
       0.871341         277.741         78.5237         78.5237 
       0.877463         275.896         77.3113         77.3113 
       0.883569         274.498         76.1279         76.1279 
       0.889708         271.773         74.9636         74.9636 
       0.895864         268.614         73.8209         73.8209 
       0.902008         267.869         72.7047         72.7047 
       0.908149         266.394         71.6126         71.6126 
       0.914301         262.924         70.5414         70.5414 
       0.920448         261.061         69.4934         69.4934 
       0.926574         259.055         68.4706         68.4706 
       0.932687         259.181         67.4709         67.4709 
       0.938823         255.908         66.4878         66.4878 
       0.944975         254.651         65.5222         65.5222 
       0.951105          252.91         64.5795         64.5795 
       0.957225         250.734         63.6572         63.6572 
       0.963368         247.584           62.75           62.75 
       0.969511          246.53         61.8607         61.8607 
       0.975621         244.328         60.9936         60.9936 
       0.981748          244.52         60.1411         60.1411 
       0.987916         241.865         59.2996         59.2996 
        0.99406         239.004         58.4777         58.4777 
        1.00019         238.976         57.6731         57.6731 
        1.00632         236.949         56.8845         56.8845 
        1.01246         235.026         56.1097         56.1097 
        1.01859         234.751         55.3507         55.3507 
        1.02471         231.877         54.6069         54.6069 
        1.03085         229.496         53.8743         53.8743 
        1.03698         228.726         53.1569         53.1569 
        1.04314         226.652         52.4496         52.4496 
        1.04929         225.166          51.757          51.757 
        1.05541         224.901         51.0798         51.0798 
        1.06154         222.227         50.4132         50.4132 
        1.06769         221.722         49.7576         49.7576 
        1.07382         220.056         49.1159         49.1159 
        1.07993          218.07         48.4871         48.4871 
        1.08607         217.436         47.8669         47.8669 
        1.09222         215.956         47.2569         47.2569 
        1.09836         213.993         46.6584         46.6584 
        1.10449         211.851         46.0711         46.0711 
        1.11063         210.106         45.4933         45.4933 
        1.11677         209.803         44.9258         44.9258 
         1.1229         208.139          44.369          44.369 
        1.12903         206.868         43.8213         43.8213 
        1.13518         205.683         43.2825         43.2825 
        1.14131         203.891         42.7531         42.7531 
        1.14745         203.535          42.233          42.233 
        1.15359         201.781         41.7215         41.7215 
        1.15973          200.78         41.2184         41.2184 
        1.16584         198.648         40.7259         40.7259 
        1.17197         198.285         40.2408         40.2408 
        1.17811         196.592         39.7622         39.7622 
        1.18424         195.453         39.2929         39.2929 
        1.19038         194.782         38.8299         38.8299 
        1.19652          193.25         38.3746         38.3746 
        1.20267         192.528         37.9267         37.9267 
        1.20881         190.605          37.486          37.486 
        1.21495         189.749         37.0532         37.0532 
        1.22108         188.676         36.6273         36.6273 
         1.2272         187.003         36.2092         36.2092 
        1.23334          186.21         35.7967         35.7967 
        1.23949         184.871         35.3898         35.3898 
        1.24562         183.932         34.9903         34.9903 
        1.25174         181.862         34.5977         34.5977 
        1.25789         180.833           34.21           34.21 
        1.26402         179.892         33.8289         33.8289 
        1.27014         178.614         33.4546         33.4546 
        1.27628         177.735         33.0849         33.0849 
        1.28244         177.339         32.7202         32.7202 
        1.28858         175.698         32.3614         32.3614 
        1.29471         174.001         32.0089         32.0089 
        1.30084         173.336          31.662          31.662 
        1.30697         172.129         31.3198         31.3198 
        1.31312         171.168         30.9821         30.9821 
        1.31925         170.318         30.6506         30.6506 
        1.32537         169.229         30.3243         30.3243 
        1.33151         167.638         30.0015         30.0015 
        1.33765         167.019         29.6838         29.6838 
        1.34378         165.982         29.3713         29.3713 
        1.34992         165.233         29.0631         29.0631 
        1.35606         164.659         28.7587         28.7587 
         1.3622         163.188         28.4593         28.4593 
        1.36833         161.829         28.1648         28.1648 
        1.37445         160.813         27.8748         27.8748 
        1.38059         160.039         27.5879         27.5879 
        1.38675         159.151         27.3045         27.3045 
        1.39288         158.275         27.0262         27.0262 
        1.39901             158         26.7519         26.7519 
        1.40515         156.356         26.4809         26.4809 
         1.4113         155.028         26.2137         26.2137 
        1.41742         154.399         25.9513         25.9513 
        1.42355         153.336          25.692          25.692 
         1.4297         152.499         25.4355         25.4355 
        1.43585         151.154         25.1826         25.1826 
        1.44198         150.755         24.9342         24.9342 
        1.44809         149.877         24.6896         24.6896 
        1.45423          148.72         24.4474         24.4474 
        1.46036         147.991          24.209          24.209 
        1.46649         146.887         23.9737         23.9737 
        1.47263         146.215         23.7413         23.7413 
        1.47877         145.492         23.5121         23.5121 
        1.48491         143.895         23.2857         23.2857 
        1.49104         143.777         23.0627         23.0627 
        1.49718         142.131         22.8425         22.8425 
        1.50333         141.682         22.6248         22.6248 
        1.50947          141.06         22.4105         22.4105 
         1.5156         139.956         22.1992         22.1992 
        1.52172          139.04         21.9908         21.9908 
        1.52787         138.202         21.7845         21.7845 
          1.534         137.528         21.5812         21.5812 
        1.54013         136.464         21.3808         21.3808 
        1.54627         135.927         21.1825         21.1825 
        1.55241         134.814         20.9867         20.9867 
        1.55855         134.171         20.7937         20.7937 
        1.56467         133.537         20.6037         20.6037 
         1.5708         132.559         20.4155         20.4155 
        1.57695         131.872         20.2294         20.2294 
        1.58308         131.188          20.046          20.046 
        1.58922         130.528         19.8649         19.8649 
        1.59535          129.39          19.686          19.686 
         1.6015         128.925         19.5091         19.5091 
        1.60764         128.088         19.3345         19.3345 
        1.61376         127.503         19.1626         19.1626 
        1.61989         126.457         18.9926         18.9926 
        1.62604         125.883         18.8243         18.8243 
        1.63218         125.155         18.6581         18.6581 
        1.63831         124.193         18.4944         18.4944 
        1.64444         123.815         18.3325         18.3325 
        1.65059         123.159         18.1723         18.1723 
        1.65673         121.852         18.0141         18.0141 
        1.66285         121.762         17.8583         17.8583 
        1.66898         120.892         17.7043         17.7043 
        1.67512         120.319         17.5518         17.5518 
        1.68127         119.305          17.401          17.401 
         1.6874         118.275         17.2523         17.2523 
        1.69353         117.965         17.1055         17.1055 
        1.69967         117.366           16.96           16.96 
        1.70581         116.585         16.8163         16.8163 
        1.71193         115.996         16.6748         16.6748 
        1.71806          115.32         16.5347         16.5347 
        1.72421          114.57         16.3958         16.3958 
        1.73035         114.139         16.2588         16.2588 
        1.73649          113.31         16.1234         16.1234 
        1.74262         112.547         15.9896         15.9896 
        1.74876         112.202         15.8572         15.8572 
        1.75489         111.128         15.7267         15.7267 
        1.76101         110.689         15.5977         15.5977 
        1.76715         109.824         15.4699         15.4699 
        1.77329         109.616         15.3434         15.3434 
        1.77943         108.599         15.2183         15.2183 
        1.78557         108.054         15.0948         15.0948 
        1.79171          107.41         14.9727         14.9727 
        1.79785         106.781         14.8519         14.8519 
        1.80399         106.157         14.7324         14.7324 
        1.81012         105.636         14.6145         14.6145 
        1.81625         104.908         14.4979         14.4979 
        1.82239          104.62         14.3824         14.3824 
        1.82853         104.043         14.2682         14.2682 
        1.83466         103.167         14.1554         14.1554 
        1.84078         102.886         14.0439         14.0439 
        1.84692         101.992         13.9334         13.9334 
        1.85306         101.444         13.8241         13.8241 
         1.8592         100.804          13.716          13.716 
        1.86533         100.214         13.6092         13.6092 
        1.87147          99.476         13.5034         13.5034 
