# k  (h/Mpc)    P(k)  (Mpc/h)^3    P_linear(k)  (Mpc/h)^3     P_NL(k)  ShotnoiseSubtracted = false
     0.00783031         13191.2         13383.1         13383.1 
       0.013688         17085.9         16947.4         16947.4 
       0.019231         17488.4         17474.2         17474.2 
      0.0249154         16111.4         16459.6         16459.6 
      0.0312784         14401.1         14583.4         14583.4 
      0.0375637         12685.6         12725.2         12725.2 
      0.0433917         11078.8         11320.8         11320.8 
      0.0492413           10152           10274           10274 
      0.0555754         9119.88         9453.42         9453.42 
      0.0619321         8745.89         8792.46         8792.46 
       0.067871         7916.55            8190            8190 
      0.0738098         7285.36         7536.54         7536.54 
      0.0800417         6501.56         6799.98         6799.98 
      0.0862327         5891.42         6073.05         6073.05 
      0.0921407         5386.51         5447.91         5447.91 
      0.0982031         4845.85          4920.9          4920.9 
       0.104506         4574.67            4508            4508 
       0.110769         4260.35         4212.13         4212.13 
       0.116806         4018.42         3994.62         3994.62 
       0.122832         3833.41         3801.01         3801.01 
       0.129052         3551.59         3591.81         3591.81 
       0.135211         3348.72         3360.58         3360.58 
       0.141259         3184.64         3115.81         3115.81 
       0.147318         2989.13         2871.04         2871.04 
       0.153489         2740.67         2642.98         2642.98 
       0.159709         2598.88         2449.79         2449.79 
       0.165845         2511.83          2299.4          2299.4 
       0.171974         2379.19          2183.3          2183.3 
       0.178125         2270.68         2089.01         2089.01 
       0.184229         2179.37         2004.06         2004.06 
        0.19034          2055.4         1917.07         1917.07 
       0.196428         2012.29         1823.46         1823.46 
       0.202534         1933.32         1723.53         1723.53 
       0.208729          1842.5         1621.17         1621.17 
       0.214876         1762.91         1525.15         1525.15 
       0.220989         1705.93         1440.26         1440.26 
       0.227147         1632.69         1367.66         1367.66 
        0.23329         1572.71         1307.29         1307.29 
       0.239377         1550.39         1256.22         1256.22 
       0.245482         1455.15         1209.72         1209.72 
       0.251667         1446.71         1163.86         1163.86 
       0.257832          1390.5         1117.18         1117.18 
       0.263955         1344.62         1069.48         1069.48 
       0.270079          1299.6         1021.54         1021.54 
        0.27624         1285.08         974.842         974.842 
       0.282372         1230.87         931.623         931.623 
        0.28843          1222.3         893.089         893.089 
       0.294538         1162.82         858.539         858.539 
       0.300721         1158.08          827.32          827.32 
        0.30691         1111.02         798.664         798.664 
       0.313033         1090.05         771.725         771.725 
       0.319153         1071.36         745.321         745.321 
       0.325316         1036.38         718.905         718.905 
        0.33145         1012.88         692.845         692.845 
       0.337538         996.791         667.631         667.631 
       0.343633         973.043         643.512         643.512 
       0.349808          940.96         620.605         620.605 
       0.355968         935.233         599.453         599.453 
       0.362074         924.968         580.047         580.047 
       0.368217         897.257         561.845         561.845 
       0.374374         862.178         544.552         544.552 
       0.380519         863.185         527.936         527.936 
       0.386598         840.458         511.941         511.941 
       0.392688         837.433          496.27          496.27 
        0.39888          813.45         480.773         480.773 
       0.405048          801.95         465.877         465.877 
       0.411186         790.739         451.696         451.696 
       0.417313         774.757         438.267         438.267 
       0.423458         761.654          425.52          425.52 
       0.429607         750.838         413.424         413.424 
       0.435692         734.782         402.025         402.025 
       0.441815         729.757         391.015         391.015 
       0.447964         714.018         380.328         380.328 
       0.454126         705.269          369.95          369.95 
       0.460267         690.064         359.925         359.925 
       0.466387         682.578          350.25          350.25 
        0.47254         674.058         340.862         340.862 
       0.478662         670.118         331.888         331.888 
       0.484765         650.483          323.31          323.31 
       0.490885         646.017         315.057         315.057 
       0.497035         632.948         307.092         307.092 
       0.503198         627.945         299.415         299.415 
       0.509342          621.71          292.03          292.03 
       0.515458          617.76         284.915         284.915 
       0.521598         602.989         277.989         277.989 
       0.527764         591.091         271.251         271.251 
       0.533884         590.164          264.78          264.78 
           0.54         583.056         258.527         258.527 
       0.546137         579.375         252.462         252.462 
       0.552299         569.957         246.578         246.578 
       0.558452         566.909         240.906         240.906 
       0.564573         558.712         235.452         235.452 
       0.570708         552.164         230.164         230.164 
       0.576825         537.459         225.056         225.056 
       0.582926         539.131         220.114         220.114 
       0.589034         533.978          215.31          215.31 
       0.595184         528.791         210.616         210.616 
       0.601379         521.586         206.031         206.031 
       0.607522         514.657         201.622         201.622 
       0.613639         514.195         197.364         197.364 
       0.619772         501.564         193.224         193.224 
       0.625918         500.094         189.197         189.197 
       0.632068         492.875         185.286         185.286 
       0.638161         491.153         181.522         181.522 
         0.6443         482.047         177.837         177.837 
       0.650464         479.701         174.242         174.242 
       0.656582         477.152         170.774         170.774 
       0.662703          474.64         167.401         167.401 
       0.668861         466.131           164.1           164.1 
       0.675024         462.377         160.888         160.888 
       0.681124         459.342         157.794         157.794 
       0.687237         455.044         154.777         154.777 
       0.693381         449.288         151.826         151.826 
       0.699536         443.077         148.949         148.949 
       0.705665         441.477         146.159         146.159 
       0.711789         438.619         143.445         143.445 
       0.717957         434.491         140.782         140.782 
        0.72409         431.854         138.203         138.203 
       0.730186         425.944         135.705         135.705 
       0.736317         422.763         133.256         133.256 
       0.742472         420.989         130.859         130.859 
       0.748622         415.969         128.524         128.524 
        0.75476          410.69         126.252         126.252 
       0.760888         406.577         124.039         124.039 
       0.767043         407.339         121.871         121.871 
       0.773185         402.151         119.761         119.761 
       0.779291         397.214         117.712         117.712 
       0.785407         395.149          115.71          115.71 
       0.791564         390.307         113.742         113.742 
       0.797719         388.086         111.821         111.821 
       0.803834         384.557         109.958         109.958 
       0.809972         383.229          108.13          108.13 
       0.816124         382.359         106.341         106.341 
       0.822261          376.59         104.598         104.598 
       0.828378         374.366           102.9           102.9 
       0.834502         371.174         101.238         101.238 
       0.840667         367.452          99.603          99.603 
       0.846816         365.762         98.0089         98.0089 
       0.852925         362.769         96.4603         96.4603 
       0.859047         361.347         94.9423         94.9423 
       0.865192         357.085         93.4524         93.4524 
       0.871341         354.343         91.9939         91.9939 
       0.877463         352.914         90.5735         90.5735 
       0.883569         350.292         89.1871         89.1871 
       0.889708         347.261          87.823          87.823 
       0.895864         344.405         86.4843         86.4843 
       0.902008         342.423         85.1767         85.1767 
       0.908149         339.541         83.8972         83.8972 
       0.914301         336.176         82.6423         82.6423 
       0.920448         334.048         81.4145         81.4145 
       0.926574         329.896         80.2163         80.2163 
       0.932687         330.425          79.045          79.045 
       0.938823         326.362         77.8932         77.8932 
       0.944975         326.103          76.762          76.762 
       0.951105         322.482         75.6577         75.6577 
       0.957225         320.289         74.5772         74.5772 
       0.963368         316.489         73.5143         73.5143 
       0.969511         315.248         72.4725         72.4725 
       0.975621         312.731         71.4566         71.4566 
       0.981748         312.081         70.4578         70.4578 
       0.987916         309.673         69.4721         69.4721 
        0.99406         304.754         68.5091         68.5091 
        1.00019         304.292         67.5664         67.5664 
        1.00632         302.525         66.6426         66.6426 
        1.01246         299.937         65.7349         65.7349 
        1.01859         300.301         64.8457         64.8457 
        1.02471         295.774         63.9743         63.9743 
        1.03085         293.574          63.116          63.116 
        1.03698         292.835         62.2755         62.2755 
        1.04314         289.726          61.447          61.447 
        1.04929         287.573         60.6355         60.6355 
        1.05541         287.755         59.8422         59.8422 
        1.06154          283.12         59.0612         59.0612 
        1.06769         282.297         58.2932         58.2932 
        1.07382         280.497         57.5414         57.5414 
        1.07993         278.359         56.8047         56.8047 
        1.08607         277.578         56.0781         56.0781 
        1.09222         275.141         55.3635         55.3635 
        1.09836         273.146         54.6623         54.6623 
        1.10449         270.246         53.9742         53.9742 
        1.11063          267.98         53.2974         53.2974 
        1.11677         267.543         52.6325         52.6325 
         1.1229         265.746         51.9802         51.9802 
        1.12903         263.807         51.3385         51.3385 
        1.13518         261.881         50.7073         50.7073 
        1.14131         260.036         50.0871         50.0871 
        1.14745         259.294         49.4777         49.4777 
        1.15359          257.08         48.8785         48.8785 
        1.15973         255.395         48.2891         48.2891 
        1.16584         253.331         47.7121         47.7121 
        1.17197         253.086         47.1438         47.1438 
        1.17811          250.13         46.5832         46.5832 
        1.18424         248.486         46.0333         46.0333 
        1.19038         247.568         45.4909         45.4909 
        1.19652         245.532         44.9575         44.9575 
        1.20267         244.978         44.4327         44.4327 
        1.20881          242.72         43.9165         43.9165 
        1.21495         241.056         43.4094         43.4094 
        1.22108         239.651         42.9105         42.9105 
         1.2272         237.927         42.4206         42.4206 
        1.23334         236.562         41.9374         41.9374 
        1.23949         235.243         41.4606         41.4606 
        1.24562         233.942         40.9927         40.9927 
        1.25174         231.759         40.5327         40.5327 
        1.25789         229.971         40.0784         40.0784 
        1.26402         228.525          39.632          39.632 
        1.27014         227.065         39.1935         39.1935 
        1.27628         225.822         38.7604         38.7604 
        1.28244         225.375         38.3331         38.3331 
        1.28858         222.901         37.9128         37.9128 
        1.29471         221.162         37.4998         37.4998 
        1.30084         220.204         37.0934         37.0934 
        1.30697         218.657         36.6924         36.6924 
        1.31312         216.694         36.2969         36.2969 
        1.31925         216.389         35.9085         35.9085 
        1.32537          215.07         35.5262         35.5262 
        1.33151         212.881         35.1481         35.1481 
        1.33765         211.523         34.7758         34.7758 
        1.34378         210.698         34.4097         34.4097 
        1.34992           209.5         34.0486         34.0486 
        1.35606         209.285          33.692          33.692 
         1.3622         207.195         33.3412         33.3412 
        1.36833         205.091         32.9963         32.9963 
        1.37445         204.195         32.6565         32.6565 
        1.38059         202.527         32.3204         32.3204 
        1.38675         201.775         31.9884         31.9884 
        1.39288         200.255         31.6623         31.6623 
        1.39901         199.948          31.341          31.341 
        1.40515         197.817         31.0234         31.0234 
         1.4113          196.61         30.7105         30.7105 
        1.41742         195.333          30.403          30.403 
        1.42355         194.122         30.0993         30.0993 
         1.4297         192.711         29.7988         29.7988 
        1.43585         191.646         29.5025         29.5025 
        1.44198         190.506         29.2115         29.2115 
        1.44809         189.749         28.9249         28.9249 
        1.45423           188.3         28.6412         28.6412 
        1.46036         187.321         28.3619         28.3619 
        1.46649          185.67         28.0862         28.0862 
        1.47263         184.451         27.8139         27.8139 
        1.47877         183.602         27.5455         27.5455 
        1.48491         181.901         27.2802         27.2802 
        1.49104         181.493         27.0189         27.0189 
        1.49718         179.512         26.7609         26.7609 
        1.50333         178.912          26.506          26.506 
        1.50947          177.98         26.2548         26.2548 
         1.5156         176.311         26.0074         26.0074 
        1.52172         175.477         25.7631         25.7631 
        1.52787         174.042         25.5215         25.5215 
          1.534         173.595         25.2833         25.2833 
        1.54013         172.176         25.0485         25.0485 
        1.54627         171.234         24.8162         24.8162 
        1.55241         170.003         24.5868         24.5868 
        1.55855         168.996         24.3607         24.3607 
        1.56467         167.758         24.1381         24.1381 
         1.5708         167.216         23.9176         23.9176 
        1.57695         165.916         23.6996         23.6996 
        1.58308         165.128         23.4848         23.4848 
        1.58922         163.857         23.2725         23.2725 
        1.59535         162.506          23.063          23.063 
         1.6015         162.146         22.8558         22.8558 
        1.60764          160.86         22.6512         22.6512 
        1.61376         159.715         22.4498         22.4498 
        1.61989         158.851         22.2506         22.2506 
        1.62604         157.842         22.0534         22.0534 
        1.63218         156.994         21.8588         21.8588 
        1.63831         155.842         21.6669         21.6669 
        1.64444           155.2         21.4774         21.4774 
        1.65059         154.025         21.2896         21.2896 
        1.65673         152.831         21.1043         21.1043 
        1.66285         152.374         20.9218         20.9218 
        1.66898          151.15         20.7414         20.7414 
        1.67512         150.829         20.5627         20.5627 
        1.68127         149.121         20.3861         20.3861 
         1.6874         148.147         20.2119         20.2119 
        1.69353         147.725         20.0398         20.0398 
        1.69967         146.431         19.8694         19.8694 
        1.70581         145.765          19.701          19.701 
        1.71193         144.549         19.5353         19.5353 
        1.71806         144.154         19.3711         19.3711 
        1.72421         143.067         19.2084         19.2084 
        1.73035         142.616         19.0479         19.0479 
        1.73649          141.67         18.8892         18.8892 
        1.74262         140.441         18.7325         18.7325 
        1.74876         139.835         18.5774         18.5774 
        1.75489         138.744         18.4245         18.4245 
        1.76101         137.829         18.2733         18.2733 
        1.76715         137.329         18.1237         18.1237 
        1.77329         136.791         17.9755         17.9755 
        1.77943          135.53         17.8289         17.8289 
        1.78557         134.866         17.6842         17.6842 
        1.79171         134.091         17.5411         17.5411 
        1.79785         133.047         17.3996         17.3996 
        1.80399         132.315         17.2597         17.2597 
        1.81012          131.52         17.1215         17.1215 
        1.81625         130.837         16.9849         16.9849 
        1.82239         130.085         16.8495         16.8495 
        1.82853         129.473         16.7158         16.7158 
        1.83466         128.423         16.5836         16.5836 
        1.84078         127.958          16.453          16.453 
        1.84692         126.682         16.3236         16.3236 
        1.85306         126.458         16.1955         16.1955 
         1.8592          125.43         16.0689         16.0689 
        1.86533         124.482         15.9438         15.9438 
        1.87147         123.733         15.8198         15.8198 
        1.87761         123.291         15.6972         15.6972 
