# k  (h/Mpc)    P(k)  (Mpc/h)^3    P_linear(k)  (Mpc/h)^3     P_NL(k)  ShotnoiseSubtracted = false
     0.00783031         12007.7         12177.7         12177.7 
       0.013688           15529         15410.9         15410.9 
       0.019231         15902.1         15887.5         15887.5 
      0.0249154         14666.1         14964.1         14964.1 
      0.0312784         13106.7           13258           13258 
      0.0375637         11540.7         11568.5         11568.5 
      0.0433917           10089         10291.7         10291.7 
      0.0492413         9240.83         9339.96         9339.96 
      0.0555754         8312.88         8593.96         8593.96 
      0.0619321         7961.95         7993.07         7993.07 
       0.067871         7217.15         7445.36         7445.36 
      0.0738098         6640.65         6851.31         6851.31 
      0.0800417         5929.47         6181.71         6181.71 
      0.0862327         5368.95         5520.87         5520.87 
      0.0921407         4902.73         4952.57         4952.57 
      0.0982031         4409.45         4473.47         4473.47 
       0.104506         4157.73         4098.11         4098.11 
       0.110769         3872.16         3829.14         3829.14 
       0.116806          3650.1         3631.41         3631.41 
       0.122832         3484.08          3455.4          3455.4 
       0.129052          3230.1         3265.22         3265.22 
       0.135211         3044.34         3055.02         3055.02 
       0.141259         2891.18         2832.51         2832.51 
       0.147318         2710.64         2609.99         2609.99 
       0.153489         2484.83         2402.66         2402.66 
       0.159709         2354.08         2227.04         2227.04 
       0.165845         2271.58         2090.32         2090.32 
       0.171974         2150.35         1984.78         1984.78 
       0.178125         2052.76         1899.07         1899.07 
       0.184229         1972.04         1821.84         1821.84 
        0.19034         1855.83         1742.75         1742.75 
       0.196428         1817.06         1657.66         1657.66 
       0.202534         1746.74         1566.82         1566.82 
       0.208729         1662.03         1473.76         1473.76 
       0.214876         1586.23         1386.48         1386.48 
       0.220989         1535.26          1309.3          1309.3 
       0.227147         1466.51         1243.31         1243.31 
        0.23329         1412.38         1188.42         1188.42 
       0.239377         1390.77         1141.99         1141.99 
       0.245482         1304.26         1099.72         1099.72 
       0.251667         1295.89         1058.03         1058.03 
       0.257832         1245.94          1015.6          1015.6 
       0.263955         1204.64         972.236         972.236 
       0.270079         1163.56          928.65          928.65 
        0.27624         1150.43         886.203         886.203 
       0.282372         1101.58         846.913         846.913 
        0.28843         1090.36         811.883         811.883 
       0.294538            1037         780.474         780.474 
       0.300721         1033.29         752.095         752.095 
        0.30691         989.748         726.044         726.044 
       0.313033         971.206         701.555         701.555 
       0.319153         952.057         677.551         677.551 
       0.325316         921.466         653.537         653.537 
        0.33145         899.486         629.847         629.847 
       0.337538         886.044         606.925         606.925 
       0.343633         863.065             585             585 
       0.349808         834.367         564.175         564.175 
       0.355968         829.498         544.947         544.947 
       0.362074         819.032         527.305         527.305 
       0.368217         795.153         510.758         510.758 
       0.374374         762.984         495.038         495.038 
       0.380519         762.644         479.932         479.932 
       0.386598         743.138         465.391         465.391 
       0.392688         740.474         451.145         451.145 
        0.39888         718.973         437.058         437.058 
       0.405048         707.657         423.516         423.516 
       0.411186         697.288         410.625         410.625 
       0.417313         683.526         398.417         398.417 
       0.423458         671.938         386.829         386.829 
       0.429607         661.454         375.832         375.832 
       0.435692         646.862          365.47          365.47 
       0.441815           642.5         355.461         355.461 
       0.447964         628.685         345.746         345.746 
       0.454126         618.524         336.312         336.312 
       0.460267         606.565         327.198         327.198 
       0.466387         600.135         318.403         318.403 
        0.47254         590.597         309.869         309.869 
       0.478662          588.34          301.71          301.71 
       0.484765         570.518         293.912         293.912 
       0.490885         566.145          286.41          286.41 
       0.497035           555.1         279.169         279.169 
       0.503198         549.497          272.19          272.19 
       0.509342         544.473         265.476         265.476 
       0.515458          540.41         259.008         259.008 
       0.521598         527.775         252.712         252.712 
       0.527764         517.347         246.587         246.587 
       0.533884         516.147         240.704         240.704 
           0.54         509.538          235.02          235.02 
       0.546137         506.895         229.506         229.506 
       0.552299         497.758         224.158         224.158 
       0.558452         495.324         219.001         219.001 
       0.564573         487.872         214.043         214.043 
       0.570708         481.436         209.236         209.236 
       0.576825         469.603         204.592         204.592 
       0.582926         469.779         200.099         200.099 
       0.589034         465.401         195.732         195.732 
       0.595184         460.925         191.465         191.465 
       0.601379         454.887         187.297         187.297 
       0.607522         448.617         183.289         183.289 
       0.613639         447.551         179.419         179.419 
       0.619772         436.309         175.655         175.655 
       0.625918         435.405         171.994         171.994 
       0.632068          428.84         168.438         168.438 
       0.638161         427.267         165.016         165.016 
         0.6443         419.382         161.667         161.667 
       0.650464         416.787         158.399         158.399 
       0.656582         414.926         155.246         155.246 
       0.662703          412.58          152.18          152.18 
       0.668861         405.079         149.179         149.179 
       0.675024         401.545         146.259         146.259 
       0.681124         398.977         143.447         143.447 
       0.687237          395.03         140.704         140.704 
       0.693381         389.849         138.021         138.021 
       0.699536         385.317         135.405         135.405 
       0.705665         383.037         132.869         132.869 
       0.711789         380.379         130.402         130.402 
       0.717957         376.987         127.981         127.981 
        0.72409         374.092         125.636         125.636 
       0.730186         369.579         123.365         123.365 
       0.736317         366.378         121.139         121.139 
       0.742472         364.854          118.96          118.96 
       0.748622         360.691         116.838         116.838 
        0.75476         356.681         114.772         114.772 
       0.760888         352.808         112.761         112.761 
       0.767043         353.443          110.79          110.79 
       0.773185          348.63         108.871         108.871 
       0.779291         343.719         107.009         107.009 
       0.785407         342.441         105.189         105.189 
       0.791564         338.286           103.4           103.4 
       0.797719         335.968         101.654         101.654 
       0.803834          333.21         99.9595         99.9595 
       0.809972         331.729         98.2984         98.2984 
       0.816124         331.323         96.6721         96.6721 
       0.822261         326.131         95.0873         95.0873 
       0.828378         324.098         93.5434         93.5434 
       0.834502         322.055         92.0329         92.0329 
       0.840667         318.182         90.5464         90.5464 
       0.846816         316.604         89.0973         89.0973 
       0.852925         314.307         87.6894         87.6894 
       0.859047         312.618         86.3095         86.3095 
       0.865192         309.147          84.955          84.955 
       0.871341         306.793         83.6291         83.6291 
       0.877463             305         82.3379         82.3379 
       0.883569         303.276         81.0776         81.0776 
       0.889708         300.336         79.8375         79.8375 
       0.895864         297.174         78.6205         78.6205 
       0.902008         296.055         77.4318         77.4318 
       0.908149         294.166         76.2687         76.2687 
       0.914301         290.567         75.1279         75.1279 
       0.920448         288.603         74.0117         74.0117 
       0.926574         285.835         72.9224         72.9224 
       0.932687         286.211         71.8577         71.8577 
       0.938823         282.577         70.8106         70.8106 
       0.944975         281.693         69.7823         69.7823 
       0.951105         279.294         68.7783         68.7783 
       0.957225         277.145         67.7961         67.7961 
       0.963368         273.679         66.8299         66.8299 
       0.969511         272.489         65.8827         65.8827 
       0.975621         270.134         64.9592         64.9592 
       0.981748         270.125         64.0513         64.0513 
       0.987916         267.538         63.1552         63.1552 
        0.99406         263.831         62.2797         62.2797 
        1.00019          263.74         61.4228         61.4228 
        1.00632         261.812          60.583          60.583 
        1.01246         259.568         59.7578         59.7578 
        1.01859         259.657         58.9495         58.9495 
        1.02471         256.028         58.1573         58.1573 
        1.03085         253.713         57.3771         57.3771 
        1.03698         253.003          56.613          56.613 
        1.04314         250.427         55.8598         55.8598 
        1.04929         248.824         55.1221         55.1221 
        1.05541         248.724         54.4009         54.4009 
        1.06154         245.237          53.691          53.691 
        1.06769         244.604         52.9927         52.9927 
        1.07382         242.942         52.3093         52.3093 
        1.07993         240.858         51.6396         51.6396 
        1.08607         240.209          50.979          50.979 
        1.09222         238.387         50.3294         50.3294 
        1.09836         236.378          49.692          49.692 
        1.10449         233.906         49.0665         49.0665 
        1.11063         231.993         48.4512         48.4512 
        1.11677          231.61         47.8467         47.8467 
         1.1229         229.921         47.2538         47.2538 
        1.12903         228.396         46.6704         46.6704 
        1.13518         226.938         46.0966         46.0966 
        1.14131         225.108         45.5328         45.5328 
        1.14745         224.727         44.9789         44.9789 
        1.15359          222.71         44.4341         44.4341 
        1.15973          221.42         43.8983         43.8983 
        1.16584         219.313         43.3738         43.3738 
        1.17197         219.049         42.8572         42.8572 
        1.17811         216.819         42.3475         42.3475 
        1.18424         215.549         41.8476         41.8476 
        1.19038         214.748         41.3545         41.3545 
        1.19652         213.076         40.8696         40.8696 
        1.20267         212.451         40.3926         40.3926 
        1.20881          210.32         39.9233         39.9233 
        1.21495         209.183         39.4623         39.4623 
        1.22108          207.97         39.0087         39.0087 
         1.2272         206.257         38.5634         38.5634 
        1.23334         205.272         38.1242         38.1242 
        1.23949         204.014         37.6907         37.6907 
        1.24562         202.907         37.2653         37.2653 
        1.25174         200.805         36.8472         36.8472 
        1.25789         199.454         36.4342         36.4342 
        1.26402          198.33         36.0284         36.0284 
        1.27014         196.968         35.6298         35.6298 
        1.27628         195.955          35.236          35.236 
        1.28244         195.607         34.8476         34.8476 
        1.28858         193.517         34.4655         34.4655 
        1.29471         191.869         34.0901         34.0901 
        1.30084         191.127         33.7206         33.7206 
        1.30697         189.702         33.3561         33.3561 
        1.31312         188.363         32.9965         32.9965 
        1.31925         187.814         32.6434         32.6434 
        1.32537         186.578         32.2959         32.2959 
        1.33151         184.761         31.9522         31.9522 
        1.33765         183.849         31.6137         31.6137 
        1.34378         182.922         31.2809         31.2809 
        1.34992         182.008         30.9527         30.9527 
        1.35606         181.628         30.6285         30.6285 
         1.3622         179.876         30.3096         30.3096 
        1.36833         178.133          29.996          29.996 
        1.37445         177.165         29.6871         29.6871 
        1.38059          176.04         29.3816         29.3816 
        1.38675         175.271         29.0797         29.0797 
        1.39288         174.085         28.7833         28.7833 
        1.39901         173.916         28.4912         28.4912 
        1.40515          171.99         28.2026         28.2026 
         1.4113         170.716          27.918          27.918 
        1.41742         169.849         27.6386         27.6386 
        1.42355         168.702         27.3624         27.3624 
         1.4297         167.716         27.0892         27.0892 
        1.43585         166.488         26.8199         26.8199 
        1.44198         165.708         26.5554         26.5554 
        1.44809         164.978         26.2949         26.2949 
        1.45423         163.676          26.037          26.037 
        1.46036         162.817          25.783          25.783 
        1.46649         161.523         25.5324         25.5324 
        1.47263         160.586         25.2849         25.2849 
        1.47877         159.889         25.0408         25.0408 
        1.48491           158.2         24.7996         24.7996 
        1.49104         158.084         24.5622         24.5622 
        1.49718         156.206         24.3276         24.3276 
        1.50333         155.699         24.0958         24.0958 
        1.50947         155.021         23.8676         23.8676 
         1.5156         153.684         23.6426         23.6426 
        1.52172         152.782         23.4205         23.4205 
        1.52787          151.65         23.2009         23.2009 
          1.534         151.132         22.9844         22.9844 
        1.54013         149.942         22.7709         22.7709 
        1.54627         149.237         22.5597         22.5597 
        1.55241         148.096         22.3512         22.3512 
        1.55855         147.286         22.1456         22.1456 
        1.56467         146.416         21.9433         21.9433 
         1.5708         145.575         21.7428         21.7428 
        1.57695         144.642         21.5446         21.5446 
        1.58308         144.008         21.3494         21.3494 
        1.58922         143.103         21.1564         21.1564 
        1.59535         141.858         20.9659         20.9659 
         1.6015         141.455         20.7776         20.7776 
        1.60764         140.436         20.5916         20.5916 
        1.61376         139.559         20.4085         20.4085 
        1.61989         138.585         20.2274         20.2274 
        1.62604         137.843         20.0482         20.0482 
        1.63218         137.129         19.8712         19.8712 
        1.63831         136.057         19.6968         19.6968 
        1.64444          135.64         19.5245         19.5245 
        1.65059         134.837         19.3538         19.3538 
        1.65673         133.507         19.1854         19.1854 
        1.66285         133.311         19.0194         19.0194 
        1.66898         132.303         18.8554         18.8554 
        1.67512         131.827          18.693          18.693 
        1.68127         130.511         18.5324         18.5324 
         1.6874         129.426         18.3741         18.3741 
        1.69353         129.244         18.2177         18.2177 
        1.69967         128.311         18.0627         18.0627 
        1.70581         127.577         17.9097         17.9097 
        1.71193         126.687          17.759          17.759 
        1.71806         126.188         17.6097         17.6097 
        1.72421         125.292         17.4619         17.4619 
        1.73035         124.952         17.3159         17.3159 
        1.73649          124.06         17.1717         17.1717 
        1.74262         123.067         17.0292         17.0292 
        1.74876         122.675         16.8882         16.8882 
        1.75489         121.528         16.7492         16.7492 
        1.76101         120.945         16.6118         16.6118 
        1.76715         120.205         16.4757         16.4757 
        1.77329         119.973          16.341          16.341 
        1.77943         118.764         16.2078         16.2078 
        1.78557         118.146         16.0763         16.0763 
        1.79171         117.485         15.9462         15.9462 
        1.79785         116.687         15.8175         15.8175 
        1.80399         116.038         15.6903         15.6903 
        1.81012         115.397         15.5647         15.5647 
        1.81625         114.663         15.4405         15.4405 
        1.82239          114.27         15.3175         15.3175 
        1.82853         113.609         15.1959         15.1959 
        1.83466         112.714         15.0757         15.0757 
        1.84078         112.316          14.957          14.957 
        1.84692         111.312         14.8394         14.8394 
        1.85306         110.928         14.7229         14.7229 
         1.8592         110.058         14.6078         14.6078 
        1.86533         109.279          14.494          14.494 
        1.87147         108.666         14.3814         14.3814 
        1.87761         108.265         14.2699         14.2699 
