# k  (h/Mpc)    Pcb(k)  (Mpc/h)^3    Pcb_linear(k) (Mpc/h)^3    Pcb_NL(k) (Mpc/h)^3   ShotnoiseSubtracted = false
     0.00783031         9572.17         9700.02         9700.02 
       0.013688         12347.2         12268.1         12268.1 
       0.019231         12659.8         12645.9         12645.9 
      0.0249154         11705.7         11910.4         11910.4 
      0.0312784         10456.6         10552.2         10552.2 
      0.0375637         9198.93         9207.43         9207.43 
      0.0433917         8060.09         8191.14         8191.14 
      0.0492413         7374.92         7433.66         7433.66 
      0.0555754         6654.99          6839.9          6839.9 
      0.0619321         6355.14         6361.65         6361.65 
       0.067871         5779.39         5925.73         5925.73 
      0.0738098         5316.16         5452.92         5452.92 
      0.0800417         4752.94         4919.99         4919.99 
      0.0862327         4296.39         4394.03         4394.03 
      0.0921407         3912.29         3941.72         3941.72 
      0.0982031         3517.33         3560.41         3560.41 
       0.104506         3306.88         3261.66         3261.66 
       0.110769         3080.29         3047.59         3047.59 
       0.116806         2900.38         2890.22         2890.22 
       0.122832         2771.86         2750.13         2750.13 
       0.129052         2574.27         2598.77         2598.77 
       0.135211         2423.37         2431.47         2431.47 
       0.141259         2294.35         2254.37         2254.37 
       0.147318         2145.94         2077.27         2077.27 
       0.153489         1966.64         1912.27         1912.27 
       0.159709         1858.51         1772.49         1772.49 
       0.165845         1787.22         1663.67         1663.67 
       0.171974         1689.14         1579.67         1579.67 
       0.178125         1613.94         1511.46         1511.46 
       0.184229          1552.9         1449.99         1449.99 
        0.19034         1456.27         1387.05         1387.05 
       0.196428         1425.02         1319.32         1319.32 
       0.202534         1370.96         1247.02         1247.02 
       0.208729         1300.08         1172.96         1172.96 
       0.214876         1233.88         1103.49         1103.49 
       0.220989         1194.47         1042.07         1042.07 
       0.227147         1136.02         989.542         989.542 
        0.23329          1093.6          945.86          945.86 
       0.239377         1073.94         908.907         908.907 
       0.245482         1006.06         875.265         875.265 
       0.251667         997.726         842.082         842.082 
       0.257832         960.438         808.308         808.308 
       0.263955         927.869         773.798         773.798 
       0.270079         895.146         739.108         739.108 
        0.27624          883.83         705.324         705.324 
       0.282372         846.216         674.052         674.052 
        0.28843         830.857         646.172         646.172 
       0.294538         790.739         621.176         621.176 
       0.300721         787.692         598.588         598.588 
        0.30691         752.701         577.854         577.854 
       0.313033         738.262         558.363         558.363 
       0.319153         719.215          539.26          539.26 
       0.325316         697.283         520.146         520.146 
        0.33145         678.573         501.291         501.291 
       0.337538          669.43         483.049         483.049 
       0.343633         649.364         465.598         465.598 
       0.349808          628.03         449.023         449.023 
       0.355968         623.631          433.72          433.72 
       0.362074          613.06          419.68          419.68 
       0.368217         596.135          406.51          406.51 
       0.374374         571.796         393.998         393.998 
       0.380519         568.812         381.975         381.975 
       0.386598         554.966         370.402         370.402 
       0.392688         552.101         359.064         359.064 
        0.39888         536.195         347.851         347.851 
       0.405048         525.936         337.074         337.074 
       0.411186          516.88         326.814         326.814 
       0.417313          507.48         317.098         317.098 
       0.423458         498.527         307.875         307.875 
       0.429607         489.151         299.123         299.123 
       0.435692         477.864         290.875         290.875 
       0.441815         474.517         282.909         282.909 
       0.447964         464.649         275.177         275.177 
       0.454126         452.394         267.668         267.668 
       0.460267         445.975         260.415         260.415 
       0.466387         441.142         253.415         253.415 
        0.47254         431.972         246.622         246.622 
       0.478662         430.981          240.13          240.13 
       0.484765         417.829         233.923         233.923 
       0.490885         413.566         227.952         227.952 
       0.497035         406.331         222.189         222.189 
       0.503198         399.593         216.634         216.634 
       0.509342          396.42         211.291         211.291 
       0.515458         392.446         206.143         206.143 
       0.521598         384.354         201.132         201.132 
       0.527764         377.218         196.257         196.257 
       0.533884         374.849         191.575         191.575 
           0.54         369.786         187.051         187.051 
       0.546137         368.144         182.663         182.663 
       0.552299         360.687         178.406         178.406 
       0.558452         358.264         174.301         174.301 
       0.564573          352.65         170.356         170.356 
       0.570708         346.733          166.53          166.53 
       0.576825         340.721         162.834         162.834 
       0.582926         338.429         159.258         159.258 
       0.589034         334.913         155.782         155.782 
       0.595184          331.62         152.386         152.386 
       0.601379         328.074         149.069         149.069 
       0.607522         322.617         145.879         145.879 
       0.613639         321.008         142.798         142.798 
       0.619772         313.261         139.802         139.802 
       0.625918         312.259         136.889         136.889 
       0.632068         307.624         134.059         134.059 
       0.638161         306.381         131.336         131.336 
         0.6443         301.003         128.669         128.669 
       0.650464         298.416         126.069         126.069 
       0.656582         296.976          123.56          123.56 
       0.662703         294.594         121.119         121.119 
       0.668861         289.375         118.731         118.731 
       0.675024         286.283         116.406         116.406 
       0.681124          285.06         114.168         114.168 
       0.687237          281.53         111.985         111.985 
       0.693381         277.478          109.85          109.85 
       0.699536         275.339         107.768         107.768 
       0.705665         273.365          105.75          105.75 
       0.711789         270.305         103.786         103.786 
       0.717957         268.456         101.859         101.859 
        0.72409          265.63         99.9931         99.9931 
       0.730186         262.589         98.1857         98.1857 
       0.736317         260.108         96.4139         96.4139 
       0.742472          258.85         94.6798         94.6798 
       0.748622         256.522         92.9906         92.9906 
        0.75476         254.242         91.3468         91.3468 
       0.760888         250.933         89.7457         89.7457 
       0.767043         250.752         88.1772         88.1772 
       0.773185         247.634         86.6499         86.6499 
       0.779291         243.309          85.168          85.168 
       0.785407         242.704          83.719          83.719 
       0.791564         240.237         82.2951         82.2951 
       0.797719         237.764         80.9055         80.9055 
       0.803834         236.376         79.5572         79.5572 
       0.809972         234.392         78.2352         78.2352 
       0.816124         234.473         76.9407         76.9407 
       0.822261          230.78         75.6795         75.6795 
       0.828378         229.028         74.4507         74.4507 
       0.834502         228.741         73.2484         73.2484 
       0.840667         224.999         72.0653         72.0653 
       0.846816         223.655          70.912          70.912 
       0.852925         222.474         69.7915         69.7915 
       0.859047         220.455         68.6932         68.6932 
       0.865192         218.541         67.6152         67.6152 
       0.871341         216.507         66.5599         66.5599 
       0.877463          215.04         65.5323         65.5323 
       0.883569          213.82         64.5292         64.5292 
       0.889708         211.832         63.5422         63.5422 
       0.895864         209.275         62.5737         62.5737 
       0.902008         208.718         61.6276         61.6276 
       0.908149         207.684         60.7018         60.7018 
       0.914301         205.088         59.7938         59.7938 
       0.920448         203.532         58.9055         58.9055 
       0.926574         202.491         58.0386         58.0386 
       0.932687         201.995         57.1911         57.1911 
       0.938823         199.552         56.3578         56.3578 
       0.944975         197.979         55.5393         55.5393 
       0.951105         197.052         54.7403         54.7403 
       0.957225         194.936         53.9585         53.9585 
       0.963368         192.777         53.1895         53.1895 
       0.969511         192.097         52.4357         52.4357 
       0.975621         190.631         51.7007         51.7007 
       0.981748         190.483         50.9781         50.9781 
       0.987916         188.058         50.2648         50.2648 
        0.99406         186.673         49.5681         49.5681 
        1.00019          186.36         48.8861         48.8861 
        1.00632         184.563         48.2177         48.2177 
        1.01246         183.343         47.5609         47.5609 
        1.01859         182.281         46.9176         46.9176 
        1.02471         180.857         46.2871         46.2871 
        1.03085         178.835         45.6661         45.6661 
        1.03698         177.944          45.058          45.058 
        1.04314         176.646         44.4585         44.4585 
        1.04929         175.334         43.8714         43.8714 
        1.05541         174.774         43.2974         43.2974 
        1.06154         173.384         42.7323         42.7323 
        1.06769         173.142         42.1766         42.1766 
        1.07382         171.677         41.6327         41.6327 
        1.07993         170.133         41.0997         41.0997 
        1.08607         169.221         40.5739         40.5739 
        1.09222         168.334         40.0569         40.0569 
        1.09836         166.762         39.5496         39.5496 
        1.10449         165.324         39.0518         39.0518 
        1.11063         164.114          38.562          38.562 
        1.11677         163.806          38.081          38.081 
         1.1229         162.145          37.609          37.609 
        1.12903         161.324         37.1447         37.1447 
        1.13518         160.854          36.688          36.688 
        1.14131         159.207         36.2393         36.2393 
        1.14745          158.66         35.7984         35.7984 
        1.15359         157.453         35.3649         35.3649 
        1.15973         156.933         34.9384         34.9384 
        1.16584         155.186         34.5209         34.5209 
        1.17197         154.617         34.1098         34.1098 
        1.17811         153.649         33.7041         33.7041 
        1.18424         152.778         33.3063         33.3063 
        1.19038         152.212         32.9138         32.9138 
        1.19652         151.055         32.5279         32.5279 
        1.20267         150.198         32.1482         32.1482 
        1.20881          148.89         31.7747         31.7747 
        1.21495          148.28         31.4078         31.4078 
        1.22108         147.501         31.0468         31.0468 
         1.2272         146.179         30.6924         30.6924 
        1.23334         145.496         30.3428         30.3428 
        1.23949         144.085         29.9978         29.9978 
        1.24562         143.611         29.6592         29.6592 
        1.25174         141.979         29.3264         29.3264 
        1.25789         141.497         28.9978         28.9978 
        1.26402         140.817         28.6748         28.6748 
        1.27014         139.816         28.3575         28.3575 
        1.27628         139.074         28.0442         28.0442 
        1.28244         138.455          27.735          27.735 
        1.28858         137.798         27.4309         27.4309 
        1.29471         136.213         27.1321         27.1321 
        1.30084         135.679          26.838          26.838 
        1.30697         134.887         26.5479         26.5479 
        1.31312         134.504         26.2617         26.2617 
        1.31925         133.253         25.9807         25.9807 
        1.32537         132.653         25.7041         25.7041 
        1.33151         131.338         25.4306         25.4306 
        1.33765         130.997         25.1612         25.1612 
        1.34378         130.039         24.8963         24.8963 
        1.34992          129.78         24.6351         24.6351 
        1.35606         128.831         24.3771         24.3771 
         1.3622         127.864         24.1232         24.1232 
        1.36833         127.122         23.8737         23.8737 
        1.37445         126.226         23.6278         23.6278 
        1.38059         125.878         23.3847         23.3847 
        1.38675         124.835         23.1444         23.1444 
        1.39288          124.39         22.9085         22.9085 
        1.39901          123.85          22.676          22.676 
        1.40515           122.9         22.4463         22.4463 
         1.4113         121.714         22.2198         22.2198 
        1.41742         121.488         21.9974         21.9974 
        1.42355         120.607         21.7776         21.7776 
         1.4297         119.864         21.5602         21.5602 
        1.43585         118.795         21.3458         21.3458 
        1.44198         118.685         21.1353         21.1353 
        1.44809         117.707         20.9279         20.9279 
        1.45423         116.825         20.7227         20.7227 
        1.46036         116.603         20.5205         20.5205 
        1.46649         115.808         20.3211         20.3211 
        1.47263          115.25         20.1241         20.1241 
        1.47877         114.696         19.9299         19.9299 
        1.48491         113.545         19.7379         19.7379 
        1.49104         113.219         19.5489         19.5489 
        1.49718          112.23         19.3622         19.3622 
        1.50333         111.786         19.1777         19.1777 
        1.50947          111.16         18.9961         18.9961 
         1.5156         110.563          18.817          18.817 
        1.52172         109.744         18.6403         18.6403 
        1.52787         109.369         18.4655         18.4655 
          1.534         108.667         18.2932         18.2932 
        1.54013         107.873         18.1232         18.1232 
        1.54627         107.408         17.9552         17.9552 
        1.55241         106.714         17.7892         17.7892 
        1.55855         106.287         17.6256         17.6256 
        1.56467         105.678         17.4645         17.4645 
         1.5708         104.948          17.305          17.305 
        1.57695         104.654         17.1473         17.1473 
        1.58308          103.64         16.9919         16.9919 
        1.58922          103.45         16.8383         16.8383 
        1.59535         102.761         16.6867         16.6867 
         1.6015         102.221         16.5368         16.5368 
        1.60764         101.543         16.3887         16.3887 
        1.61376         101.288          16.243          16.243 
        1.61989         100.449         16.0989         16.0989 
        1.62604         99.9965         15.9562         15.9562 
        1.63218         99.5011         15.8154         15.8154 
        1.63831         98.6856         15.6766         15.6766 
        1.64444            98.3         15.5394         15.5394 
        1.65059         97.7062         15.4036         15.4036 
        1.65673         96.8342         15.2695         15.2695 
        1.66285         96.7341         15.1375         15.1375 
        1.66898         95.9558         15.0069         15.0069 
        1.67512         95.4886         14.8777         14.8777 
        1.68127         94.9041         14.7498         14.7498 
         1.6874         94.3129         14.6238         14.6238 
        1.69353         93.7914         14.4993         14.4993 
        1.69967         93.3484          14.376          14.376 
        1.70581         92.8735         14.2542         14.2542 
        1.71193         92.5525         14.1343         14.1343 
        1.71806         91.7053         14.0155         14.0155 
        1.72421         91.3161         13.8978         13.8978 
        1.73035         90.7441         13.7816         13.7816 
        1.73649         90.2295         13.6668         13.6668 
        1.74262         89.7324         13.5534         13.5534 
        1.74876          89.395         13.4413         13.4413 
        1.75489         88.6233         13.3306         13.3306 
        1.76101         88.3952         13.2212         13.2212 
        1.76715         87.7093         13.1129         13.1129 
        1.77329         87.3835         13.0057         13.0057 
        1.77943         86.7402         12.8997         12.8997 
        1.78557         86.4577          12.795          12.795 
        1.79171         85.8663         12.6915         12.6915 
        1.79785          85.412         12.5891         12.5891 
        1.80399         85.0023         12.4878         12.4878 
        1.81012         84.6271         12.3878         12.3878 
        1.81625         83.9437          12.289          12.289 
        1.82239         83.6602         12.1911         12.1911 
        1.82853         83.3359         12.0943         12.0943 
        1.83466         82.6853         11.9987         11.9987 
        1.84078         82.4869         11.9042         11.9042 
        1.84692         81.6999         11.8106         11.8106 
        1.85306         81.2584         11.7178         11.7178 
         1.8592         80.7768         11.6263         11.6263 
        1.86533         80.4289         11.5357         11.5357 
        1.87147          79.767         11.4461         11.4461 
