# k  (h/Mpc)    P(k)  (Mpc/h)^3    P_linear(k)  (Mpc/h)^3     P_NL(k)  ShotnoiseSubtracted = false
     0.00783031         419.889         423.776         423.776 
       0.013688         534.687         536.191         536.191 
       0.019231         552.528         552.837         552.837 
      0.0249154         518.583          520.76          520.76 
      0.0312784         461.182         461.422         461.422 
      0.0375637         403.436         402.644         402.644 
      0.0433917          358.02         358.216         358.216 
      0.0492413         325.396         325.099         325.099 
      0.0555754         298.399         299.139         299.139 
      0.0619321         278.969         278.228         278.228 
       0.067871         258.623         259.166         259.166 
      0.0738098         237.838          238.49          238.49 
      0.0800417          214.28         215.183         215.183 
      0.0862327         191.833         192.181         192.181 
      0.0921407         172.387         172.399         172.399 
      0.0982031         155.452         155.723         155.723 
       0.104506         143.096         142.657         142.657 
       0.110769         133.561         133.294         133.294 
       0.116806         126.132         126.412         126.412 
       0.122832         120.356         120.285         120.285 
       0.129052         113.325         113.665         113.665 
       0.135211         105.966         106.348         106.348 
       0.141259         98.5908         98.6021         98.6021 
       0.147318         91.1485         90.8561         90.8561 
       0.153489         83.7455         83.6391         83.6391 
       0.159709         77.6888         77.5256         77.5256 
       0.165845         73.3337         72.7663         72.7663 
       0.171974         69.2035         69.0924         69.0924 
       0.178125         66.2701         66.1087         66.1087 
       0.184229         63.7018         63.4203         63.4203 
        0.19034         60.5412         60.6674         60.6674 
       0.196428          57.849         57.7052         57.7052 
       0.202534         55.0228         54.5429         54.5429 
       0.208729         51.6032         51.3034         51.3034 
       0.214876         48.3819          48.265          48.265 
       0.220989         46.0835         45.5785         45.5785 
       0.227147          43.436         43.2812         43.2812 
        0.23329         41.5414         41.3707         41.3707 
       0.239377         39.9875         39.7544         39.7544 
       0.245482         38.3641         38.2829         38.2829 
       0.251667         37.1304         36.8316         36.8316 
       0.257832         35.5972         35.3544         35.3544 
       0.263955         34.1108         33.8449         33.8449 
       0.270079         32.6398         32.3276         32.3276 
        0.27624         31.3342           30.85           30.85 
       0.282372         29.9579         29.4823         29.4823 
        0.28843         28.6252         28.2628         28.2628 
       0.294538         27.5311         27.1694         27.1694 
       0.300721         26.6719         26.1815         26.1815 
        0.30691         25.6254         25.2746         25.2746 
       0.313033         24.7827         24.4222         24.4222 
       0.319153         23.7321         23.5866         23.5866 
       0.325316          23.192         22.7506         22.7506 
        0.33145         22.3094         21.9259         21.9259 
       0.337538         21.5257          21.128          21.128 
       0.343633         20.7151         20.3647         20.3647 
       0.349808         20.0434         19.6398         19.6398 
       0.355968         19.3898         18.9704         18.9704 
       0.362074         18.7493         18.3563         18.3563 
       0.368217         18.1759         17.7803         17.7803 
       0.374374         17.5564          17.233          17.233 
       0.380519         17.0983         16.7072         16.7072 
       0.386598         16.6097          16.201          16.201 
       0.392688         16.1638         15.7051         15.7051 
        0.39888          15.637         15.2146         15.2146 
       0.405048         15.1909         14.7433         14.7433 
       0.411186         14.7635         14.2945         14.2945 
       0.417313         14.2727         13.8695         13.8695 
       0.423458         13.9007         13.4661         13.4661 
       0.429607         13.4775         13.0833         13.0833 
       0.435692          13.107         12.7226         12.7226 
       0.441815         12.7757         12.3741         12.3741 
       0.447964         12.5043          12.036          12.036 
       0.454126         12.0853         11.7075         11.7075 
       0.460267         11.7801         11.3903         11.3903 
       0.466387         11.4313         11.0841         11.0841 
        0.47254         11.1766          10.787          10.787 
       0.478662         10.9174          10.503          10.503 
       0.484765         10.6089         10.2316         10.2316 
       0.490885         10.3481         9.97038         9.97038 
       0.497035         10.1665          9.7183          9.7183 
       0.503198         9.88968         9.47535         9.47535 
       0.509342         9.66216         9.24165         9.24165 
       0.515458         9.40661         9.01649         9.01649 
       0.521598         9.20143         8.79732         8.79732 
       0.527764         8.96324          8.5841          8.5841 
       0.533884         8.79741         8.37929         8.37929 
           0.54         8.58673         8.18142         8.18142 
       0.546137         8.40756         7.98948         7.98948 
       0.552299         8.22126         7.80328         7.80328 
       0.558452         7.99021         7.62376         7.62376 
       0.564573         7.85402         7.45118         7.45118 
       0.570708          7.6866         7.28383         7.28383 
       0.576825         7.49314         7.12218         7.12218 
       0.582926         7.36076         6.96578         6.96578 
       0.589034         7.14625         6.81375         6.81375 
       0.595184         7.02035         6.66521         6.66521 
       0.601379         6.86774          6.5201          6.5201 
       0.607522         6.75477         6.38058         6.38058 
       0.613639         6.64631         6.24585         6.24585 
       0.619772         6.46907         6.11481         6.11481 
       0.625918         6.36992         5.98739         5.98739 
       0.632068         6.26275          5.8636          5.8636 
       0.638161         6.11026         5.74448         5.74448 
         0.6443         5.98614         5.62787         5.62787 
       0.650464         5.85191         5.51412         5.51412 
       0.656582         5.77641         5.40437         5.40437 
       0.662703         5.66582         5.29761         5.29761 
       0.668861         5.57002         5.19317         5.19317 
       0.675024         5.44664         5.09149         5.09149 
       0.681124          5.3397          4.9936          4.9936 
       0.687237         5.25849         4.89813         4.89813 
       0.693381         5.16689         4.80474         4.80474 
       0.699536         5.03108         4.71367         4.71367 
       0.705665         4.95383         4.62539         4.62539 
       0.711789         4.87566         4.53949         4.53949 
       0.717957         4.78002         4.45522         4.45522 
        0.72409         4.69665          4.3736          4.3736 
       0.730186         4.62095         4.29455         4.29455 
       0.736317         4.56647         4.21705         4.21705 
       0.742472         4.48588          4.1412          4.1412 
       0.748622         4.39943         4.06732         4.06732 
        0.75476         4.30135         3.99542         3.99542 
       0.760888         4.24029         3.92539         3.92539 
       0.767043         4.19062         3.85678         3.85678 
       0.773185          4.1003         3.78998         3.78998 
       0.779291         4.04678         3.72516         3.72516 
       0.785407         3.97853         3.66179         3.66179 
       0.791564          3.9151         3.59951         3.59951 
       0.797719         3.85747         3.53873         3.53873 
       0.803834         3.80356         3.47975         3.47975 
       0.809972         3.74533         3.42193         3.42193 
       0.816124         3.67131         3.36531         3.36531 
       0.822261         3.60645         3.31014         3.31014 
       0.828378         3.56305          3.2564          3.2564 
       0.834502         3.52021         3.20381         3.20381 
       0.840667         3.44589         3.15207         3.15207 
       0.846816         3.39299         3.10162         3.10162 
       0.852925         3.35861         3.05261         3.05261 
       0.859047         3.30671         3.00457         3.00457 
       0.865192         3.25875         2.95742         2.95742 
       0.871341         3.21254         2.91127         2.91127 
       0.877463         3.17207         2.86632         2.86632 
       0.883569         3.11205         2.82244         2.82244 
       0.889708         3.06368         2.77927         2.77927 
       0.895864         3.02452         2.73691         2.73691 
       0.902008         2.97682         2.69553         2.69553 
       0.908149         2.93874         2.65504         2.65504 
       0.914301         2.88308         2.61532         2.61532 
       0.920448         2.84632         2.57647         2.57647 
       0.926574         2.80397         2.53855         2.53855 
       0.932687         2.77088         2.50148         2.50148 
       0.938823         2.74031         2.46503         2.46503 
       0.944975          2.6999         2.42924         2.42924 
       0.951105         2.66587         2.39429         2.39429 
       0.957225         2.64314         2.36009         2.36009 
       0.963368         2.60085         2.32646         2.32646 
       0.969511         2.56055         2.29349         2.29349 
       0.975621         2.52056         2.26134         2.26134 
       0.981748         2.49804         2.22973         2.22973 
       0.987916          2.4619         2.19853         2.19853 
        0.99406         2.42219         2.16806         2.16806 
        1.00019          2.3976         2.13823         2.13823 
        1.00632         2.36217         2.10899         2.10899 
        1.01246         2.33438         2.08027         2.08027 
        1.01859          2.3072         2.05213         2.05213 
        1.02471         2.27473         2.02455         2.02455 
        1.03085         2.25019         1.99739         1.99739 
        1.03698         2.21724         1.97079         1.97079 
        1.04314         2.19313         1.94457         1.94457 
        1.04929         2.16271         1.91889         1.91889 
        1.05541         2.13908         1.89379         1.89379 
        1.06154         2.11111         1.86907         1.86907 
        1.06769          2.0873         1.84476         1.84476 
        1.07382         2.06137         1.82097         1.82097 
        1.07993         2.02937         1.79766         1.79766 
        1.08607         2.01625         1.77466         1.77466 
        1.09222         1.98704         1.75205         1.75205 
        1.09836         1.97157         1.72986         1.72986 
        1.10449         1.94672         1.70809         1.70809 
        1.11063         1.91704         1.68667         1.68667 
        1.11677         1.89396         1.66562         1.66562 
         1.1229         1.87252         1.64498         1.64498 
        1.12903         1.84907         1.62468         1.62468 
        1.13518         1.83427          1.6047          1.6047 
        1.14131         1.80583         1.58507         1.58507 
        1.14745         1.77575         1.56579         1.56579 
        1.15359         1.76651         1.54683         1.54683 
        1.15973         1.73755         1.52817         1.52817 
        1.16584         1.73147         1.50991         1.50991 
        1.17197         1.70707         1.49193         1.49193 
        1.17811          1.6891         1.47419         1.47419 
        1.18424         1.67634         1.45679         1.45679 
        1.19038         1.65196         1.43962         1.43962 
        1.19652         1.63253         1.42274         1.42274 
        1.20267         1.61975         1.40613         1.40613 
        1.20881         1.59577          1.3898          1.3898 
        1.21495         1.58428         1.37375         1.37375 
        1.22108         1.56713         1.35796         1.35796 
         1.2272         1.55368         1.34246         1.34246 
        1.23334         1.53217         1.32717         1.32717 
        1.23949         1.51493         1.31208         1.31208 
        1.24562         1.50295         1.29727         1.29727 
        1.25174         1.48502         1.28271         1.28271 
        1.25789         1.47111         1.26834         1.26834 
        1.26402         1.45013         1.25421         1.25421 
        1.27014         1.43592         1.24033         1.24033 
        1.27628         1.42833         1.22663         1.22663 
        1.28244         1.40598          1.2131          1.2131 
        1.28858         1.39449          1.1998          1.1998 
        1.29471         1.38132         1.18673         1.18673 
        1.30084         1.36486         1.17387         1.17387 
        1.30697         1.35285         1.16118         1.16118 
        1.31312         1.33205         1.14866         1.14866 
        1.31925         1.32485         1.13637         1.13637 
        1.32537         1.31247         1.12427         1.12427 
        1.33151         1.30142         1.11231         1.11231 
        1.33765         1.28562         1.10053         1.10053 
        1.34378         1.27018         1.08894         1.08894 
        1.34992         1.26326         1.07752         1.07752 
        1.35606         1.24628         1.06623         1.06623 
         1.3622          1.2371         1.05513         1.05513 
        1.36833         1.22429         1.04421         1.04421 
        1.37445         1.20925         1.03346         1.03346 
        1.38059         1.19887         1.02282         1.02282 
        1.38675          1.1954         1.01231         1.01231 
        1.39288         1.17741           1.002           1.002 
        1.39901         1.16642        0.991828        0.991828 
        1.40515         1.15657        0.981779        0.981779 
         1.4113         1.14438        0.971874        0.971874 
        1.41742         1.13395        0.962145        0.962145 
        1.42355         1.12898        0.952532        0.952532 
         1.4297         1.11228        0.943022        0.943022 
        1.43585         1.10435        0.933647        0.933647 
        1.44198         1.09824        0.924437        0.924437 
        1.44809         1.08214        0.915369        0.915369 
        1.45423         1.07363         0.90639         0.90639 
        1.46036         1.06419        0.897549        0.897549 
        1.46649         1.05421        0.888824        0.888824 
        1.47263         1.04336         0.88021         0.88021 
        1.47877          1.0333        0.871714        0.871714 
        1.48491         1.02482        0.863317        0.863317 
        1.49104         1.01536         0.85505         0.85505 
        1.49718         1.00873        0.846886        0.846886 
        1.50333        0.997814        0.838817        0.838817 
        1.50947        0.990747         0.83087         0.83087 
         1.5156        0.981126        0.823038        0.823038 
        1.52172        0.972097        0.815308        0.815308 
        1.52787         0.96283        0.807663        0.807663 
          1.534        0.956945        0.800126        0.800126 
        1.54013        0.944727        0.792693        0.792693 
        1.54627        0.936939        0.785342        0.785342 
        1.55241        0.929182        0.778083        0.778083 
        1.55855         0.92094        0.770927        0.770927 
        1.56467        0.915453        0.763882        0.763882 
         1.5708        0.904403        0.756905        0.756905 
        1.57695        0.899991        0.750005        0.750005 
        1.58308        0.891438        0.743208        0.743208 
        1.58922        0.884014        0.736491        0.736491 
        1.59535        0.876403         0.72986         0.72986 
         1.6015        0.869195        0.723302        0.723302 
        1.60764        0.862798        0.716829        0.716829 
        1.61376        0.853547        0.710453        0.710453 
        1.61989         0.84789         0.70415         0.70415 
        1.62604        0.840586         0.69791         0.69791 
        1.63218        0.835533        0.691751        0.691751 
        1.63831        0.826713         0.68568         0.68568 
        1.64444        0.819541         0.67968         0.67968 
        1.65059        0.813678        0.673739        0.673739 
        1.65673        0.806558        0.667876        0.667876 
        1.66285        0.799506        0.662099        0.662099 
        1.66898        0.795367        0.656389        0.656389 
        1.67512        0.786096        0.650736        0.650736 
        1.68127        0.780626        0.645145        0.645145 
         1.6874        0.776264        0.639632        0.639632 
        1.69353        0.768229        0.634187        0.634187 
        1.69967        0.762299        0.628794        0.628794 
        1.70581        0.757059        0.623466        0.623466 
        1.71193        0.750702         0.61822         0.61822 
        1.71806         0.74531        0.613024        0.613024 
        1.72421        0.739272        0.607877        0.607877 
        1.73035        0.732331        0.602796        0.602796 
        1.73649        0.728733        0.597775        0.597775 
        1.74262        0.722511        0.592815        0.592815 
        1.74876        0.716078        0.587909        0.587909 
        1.75489        0.710279        0.583068        0.583068 
        1.76101        0.704293        0.578284        0.578284 
        1.76715        0.699697        0.573548        0.573548 
        1.77329        0.694566        0.568859        0.568859 
        1.77943        0.688483        0.564221        0.564221 
        1.78557        0.683417        0.559642        0.559642 
        1.79171        0.679008        0.555113        0.555113 
        1.79785        0.673569        0.550634        0.550634 
        1.80399        0.668528        0.546206        0.546206 
        1.81012        0.664164        0.541833        0.541833 
        1.81625        0.658094        0.537509        0.537509 
        1.82239        0.654585        0.533227        0.533227 
        1.82853        0.646704        0.528994        0.528994 
        1.83466        0.643548        0.524811        0.524811 
        1.84078        0.638315        0.520678        0.520678 
        1.84692        0.635054        0.516584        0.516584 
        1.85306        0.629957        0.512528        0.512528 
         1.8592        0.625704        0.508523        0.508523 
        1.86533         0.62097        0.504563        0.504563 
        1.87147        0.616236         0.50064         0.50064 
        1.87761        0.612374        0.496759        0.496759 
