# k  (h/Mpc)    Pcb(k)  (Mpc/h)^3    Pcb_linear(k) (Mpc/h)^3    Pcb_NL(k) (Mpc/h)^3   ShotnoiseSubtracted = false
     0.00783031           14766         14988.9         14988.9 
       0.013688         19182.4         19016.4         19016.4 
       0.019231         19628.9         19616.1         19616.1 
      0.0249154         18061.7         18480.5         18480.5 
      0.0312784         16148.7         16375.5         16375.5 
      0.0375637         14232.4         14289.7         14289.7 
      0.0433917         12415.1           12713           12713 
      0.0492413         11382.8         11537.6         11537.6 
      0.0555754         10208.7         10616.3         10616.3 
      0.0619321          9804.3          9874.1          9874.1 
       0.067871         8859.92         9197.59         9197.59 
      0.0738098         8155.25         8463.77         8463.77 
      0.0800417         7273.18         7636.62         7636.62 
      0.0862327         6596.71         6820.28         6820.28 
      0.0921407         6040.28         6118.24         6118.24 
      0.0982031         5436.21         5526.39         5526.39 
       0.104506         5138.87         5062.69         5062.69 
       0.110769         4785.88         4730.43         4730.43 
       0.116806         4517.58         4486.17         4486.17 
       0.122832         4306.57         4268.73         4268.73 
       0.129052         3987.18         4033.79         4033.79 
       0.135211         3760.88         3774.12         3774.12 
       0.141259         3582.52         3499.23         3499.23 
       0.147318         3367.16         3224.33         3224.33 
       0.153489         3088.26         2968.21         2968.21 
       0.159709         2931.37         2751.25         2751.25 
       0.165845         2838.83         2582.35         2582.35 
       0.171974         2690.56         2451.97         2451.97 
       0.178125         2567.42         2346.08         2346.08 
       0.184229         2461.14         2250.68         2250.68 
        0.19034         2328.18         2152.98         2152.98 
       0.196428         2278.57         2047.86         2047.86 
       0.202534         2187.39         1935.63         1935.63 
       0.208729          2088.7         1820.66         1820.66 
       0.214876         2004.45         1712.84         1712.84 
       0.220989         1939.25          1617.5          1617.5 
       0.227147         1860.02         1535.97         1535.97 
        0.23329         1792.18         1468.17         1468.17 
       0.239377         1769.01         1410.81         1410.81 
       0.245482         1662.39         1358.59         1358.59 
       0.251667         1653.61         1307.08         1307.08 
       0.257832         1589.09         1254.66         1254.66 
       0.263955         1536.83         1201.09         1201.09 
       0.270079         1486.56         1147.25         1147.25 
        0.27624         1469.63         1094.81         1094.81 
       0.282372          1408.5         1046.27         1046.27 
        0.28843         1403.62         1002.99         1002.99 
       0.294538          1336.3         964.193         964.193 
       0.300721         1329.59         929.131         929.131 
        0.30691         1278.39         896.947         896.947 
       0.313033         1253.69         866.694         866.694 
       0.319153         1236.03         837.042         837.042 
       0.325316         1194.98         807.374         807.374 
        0.33145         1169.42         778.107         778.107 
       0.337538         1149.44         749.791         749.791 
       0.343633         1125.06         722.703         722.703 
       0.349808         1088.75         696.976         696.976 
       0.355968          1081.4         673.222         673.222 
       0.362074         1071.35         651.429         651.429 
       0.368217         1038.27         630.986         630.986 
       0.374374         1000.04         611.566         611.566 
       0.380519          1002.7         592.905         592.905 
       0.386598         975.334          574.94          574.94 
       0.392688         971.337         557.342         557.342 
        0.39888         944.378         539.937         539.937 
       0.405048         932.852         523.209         523.209 
       0.411186         920.104         507.282         507.282 
       0.417313         901.273         492.201         492.201 
       0.423458         885.944         477.885         477.885 
       0.429607         874.639           464.3           464.3 
       0.435692         857.017         451.498         451.498 
       0.441815         850.901         439.133         439.133 
       0.447964         832.665         427.132         427.132 
       0.454126          825.57         415.477         415.477 
       0.460267          806.24         404.218         404.218 
       0.466387         796.775         393.352         393.352 
        0.47254         790.616         382.809         382.809 
       0.478662         783.507         372.731         372.731 
       0.484765         761.954         363.097         363.097 
       0.490885          757.26         353.829         353.829 
       0.497035         741.291         344.883         344.883 
       0.503198         736.845         336.261         336.261 
       0.509342         728.817         327.967         327.967 
       0.515458         725.186         319.977         319.977 
       0.521598         707.793         312.199         312.199 
       0.527764         694.088         304.632         304.632 
       0.533884         693.176         297.364         297.364 
           0.54         685.846         290.342         290.342 
       0.546137         679.982          283.53          283.53 
       0.552299         670.708         276.923         276.923 
       0.558452         666.174         270.552         270.552 
       0.564573         657.124         264.427         264.427 
       0.570708         650.223         258.488         258.488 
       0.576825         632.472         252.751         252.751 
       0.582926         635.711         247.201         247.201 
       0.589034         629.236         241.806         241.806 
       0.595184         623.127         236.535         236.535 
       0.601379         614.602         231.385         231.385 
       0.607522          606.39         226.434         226.434 
       0.613639         606.657         221.652         221.652 
       0.619772          592.73         217.002         217.002 
       0.625918         589.812          212.48          212.48 
       0.632068         582.082         208.087         208.087 
       0.638161         580.055          203.86          203.86 
         0.6443         569.501         199.722         199.722 
       0.650464         567.662         195.685         195.685 
       0.656582         563.749          191.79          191.79 
       0.662703         561.047         188.001         188.001 
       0.668861         551.262         184.295         184.295 
       0.675024          546.82         180.687         180.687 
       0.681124          543.43         177.213         177.213 
       0.687237         538.707         173.825         173.825 
       0.693381         532.085          170.51          170.51 
       0.699536         523.459         167.278         167.278 
       0.705665         522.965         164.146         164.146 
       0.711789         519.567         161.097         161.097 
       0.717957         514.639         158.107         158.107 
        0.72409         512.224          155.21          155.21 
       0.730186         504.348         152.405         152.405 
       0.736317         501.359         149.654         149.654 
       0.742472         498.931         146.963         146.963 
       0.748622          493.13         144.341         144.341 
        0.75476         485.998         141.789         141.789 
       0.760888         481.719         139.304         139.304 
       0.767043         482.019         136.869         136.869 
       0.773185         476.791         134.499         134.499 
       0.779291         471.764         132.198         132.198 
       0.785407         468.202         129.949         129.949 
       0.791564         462.895         127.739         127.739 
       0.797719         460.774         125.582         125.582 
       0.803834         456.117         123.489         123.489 
       0.809972         454.662         121.437         121.437 
       0.816124         453.325         119.428         119.428 
       0.822261         446.612          117.47          117.47 
       0.828378         444.072         115.563         115.563 
       0.834502         439.582         113.697         113.697 
       0.840667         435.938          111.86          111.86 
       0.846816         433.841          110.07          110.07 
       0.852925         430.226         108.331         108.331 
       0.859047          429.07         106.626         106.626 
       0.865192         423.632         104.953         104.953 
       0.871341         420.141         103.315         103.315 
       0.877463         419.462          101.72          101.72 
       0.883569         415.275         100.163         100.163 
       0.889708         412.479         98.6307         98.6307 
       0.895864         410.211         97.1273         97.1273 
       0.902008         407.036         95.6587         95.6587 
       0.908149         402.361         94.2218         94.2218 
       0.914301         399.816         92.8124         92.8124 
       0.920448          397.57         91.4335         91.4335 
       0.926574         391.422         90.0879         90.0879 
       0.932687          391.68         88.7725         88.7725 
       0.938823         387.275         87.4789         87.4789 
       0.944975         387.632         86.2085         86.2085 
       0.951105         382.473         84.9682         84.9682 
       0.957225         380.117         83.7548         83.7548 
       0.963368         375.945         82.5612         82.5612 
       0.969511         374.757         81.3911         81.3911 
       0.975621         372.137         80.2502         80.2502 
       0.981748          370.19         79.1285         79.1285 
       0.987916         367.945         78.0214         78.0214 
        0.99406         361.853         76.9399         76.9399 
        1.00019         360.649         75.8813         75.8813 
        1.00632         358.953         74.8438         74.8438 
        1.01246         356.054         73.8243         73.8243 
        1.01859         356.157         72.8258         72.8258 
        1.02471         350.991         71.8471         71.8471 
        1.03085         348.967         70.8832         70.8832 
        1.03698         347.893         69.9393         69.9393 
        1.04314         344.477         69.0087         69.0087 
        1.04929         341.074         68.0975         68.0975 
        1.05541         341.684         67.2065         67.2065 
        1.06154         336.011         66.3294         66.3294 
        1.06769         334.631         65.4668         65.4668 
        1.07382         332.462         64.6226         64.6226 
        1.07993         330.334         63.7953         63.7953 
        1.08607         329.377         62.9791         62.9791 
        1.09222         326.071         62.1766         62.1766 
        1.09836         324.031         61.3892         61.3892 
        1.10449         320.844         60.6164         60.6164 
        1.11063         317.603         59.8563         59.8563 
        1.11677          317.69         59.1095         59.1095 
         1.1229         315.515          58.377          58.377 
        1.12903         313.083         57.6563         57.6563 
        1.13518         310.141         56.9474         56.9474 
        1.14131         308.633         56.2509         56.2509 
        1.14745         306.808         55.5666         55.5666 
        1.15359         304.781         54.8936         54.8936 
        1.15973         302.586         54.2316         54.2316 
        1.16584         300.414         53.5836         53.5836 
        1.17197         299.933         52.9454         52.9454 
        1.17811         296.396         52.3158         52.3158 
        1.18424         294.094         51.6983         51.6983 
        1.19038         292.959         51.0891         51.0891 
        1.19652         290.679           50.49           50.49 
        1.20267          289.78         49.9007         49.9007 
        1.20881         287.671          49.321          49.321 
        1.21495         285.264         48.7515         48.7515 
        1.22108         283.633         48.1911         48.1911 
         1.2272         281.778          47.641          47.641 
        1.23334         279.981         47.0983         47.0983 
        1.23949         278.152         46.5629         46.5629 
        1.24562         276.836         46.0373         46.0373 
        1.25174         274.472         45.5207         45.5207 
        1.25789         272.089         45.0106         45.0106 
        1.26402         270.325         44.5092         44.5092 
        1.27014         268.583         44.0168         44.0168 
        1.27628         267.021         43.5304         43.5304 
        1.28244         266.476         43.0504         43.0504 
        1.28858         263.716         42.5784         42.5784 
        1.29471         261.862         42.1146         42.1146 
        1.30084         260.313         41.6582         41.6582 
        1.30697         258.749         41.2079         41.2079 
        1.31312         256.087         40.7637         40.7637 
        1.31925         255.492         40.3274         40.3274 
        1.32537         254.258         39.8981         39.8981 
        1.33151         251.663         39.4735         39.4735 
        1.33765         249.879         39.0554         39.0554 
        1.34378         249.026         38.6442         38.6442 
        1.34992         247.368         38.2387         38.2387 
        1.35606          246.62         37.8383         37.8383 
         1.3622         244.384         37.4443         37.4443 
        1.36833         242.339         37.0569         37.0569 
        1.37445         241.148         36.6752         36.6752 
        1.38059         238.966         36.2978         36.2978 
        1.38675         238.063         35.9249         35.9249 
        1.39288         236.434         35.5587         35.5587 
        1.39901         235.639         35.1979         35.1979 
        1.40515         233.606         34.8413         34.8413 
         1.4113         232.284         34.4898         34.4898 
        1.41742          230.45         34.1445         34.1445 
        1.42355         229.254         33.8033         33.8033 
         1.4297          227.31         33.4659         33.4659 
        1.43585         226.161         33.1332         33.1332 
        1.44198         224.917         32.8063         32.8063 
        1.44809         223.525         32.4845         32.4845 
        1.45423         222.027         32.1659         32.1659 
        1.46036         220.826         31.8521         31.8521 
        1.46649         218.946         31.5425         31.5425 
        1.47263         217.733         31.2368         31.2368 
        1.47877         216.317         30.9353         30.9353 
        1.48491         214.405         30.6373         30.6373 
        1.49104         213.754         30.3439         30.3439 
        1.49718         211.825         30.0542         30.0542 
        1.50333         211.034         29.7678         29.7678 
        1.50947         209.577         29.4858         29.4858 
         1.5156         207.607         29.2079         29.2079 
        1.52172         206.786         28.9336         28.9336 
        1.52787         205.219         28.6623         28.6623 
          1.534          204.47         28.3948         28.3948 
        1.54013         202.692          28.131          28.131 
        1.54627         201.652         27.8701         27.8701 
        1.55241         200.351         27.6125         27.6125 
        1.55855         198.905         27.3586         27.3586 
        1.56467         197.619         27.1085         27.1085 
         1.5708         197.054         26.8609         26.8609 
        1.57695         195.427         26.6161         26.6161 
        1.58308         194.268         26.3749         26.3749 
        1.58922         192.458         26.1365         26.1365 
        1.59535          191.03         25.9012         25.9012 
         1.6015         190.586         25.6685         25.6685 
        1.60764         189.194         25.4387         25.4387 
        1.61376         188.035         25.2125         25.2125 
        1.61989          186.94         24.9888         24.9888 
        1.62604          185.66         24.7674         24.7674 
        1.63218         184.571         24.5488         24.5488 
        1.63831         183.195         24.3333         24.3333 
        1.64444         182.389         24.1204         24.1204 
        1.65059         181.085         23.9096         23.9096 
        1.65673         179.848         23.7015         23.7015 
        1.66285         178.683         23.4965         23.4965 
        1.66898         177.508         23.2938         23.2938 
        1.67512         177.125         23.0932         23.0932 
        1.68127         175.091         22.8948         22.8948 
         1.6874         174.285         22.6992         22.6992 
        1.69353         173.238          22.506          22.506 
        1.69967          171.73         22.3145         22.3145 
        1.70581         171.115         22.1255         22.1255 
        1.71193         169.614         21.9393         21.9393 
        1.71806         169.133         21.7549         21.7549 
        1.72421         167.769         21.5723         21.5723 
        1.73035         166.968         21.3919         21.3919 
        1.73649         165.972         21.2137         21.2137 
        1.74262         164.774         21.0377         21.0377 
        1.74876         163.726         20.8636         20.8636 
        1.75489         162.707         20.6918         20.6918 
        1.76101         161.393         20.5221         20.5221 
        1.76715          160.95          20.354          20.354 
        1.77329          159.93         20.1876         20.1876 
        1.77943          158.97          20.023          20.023 
        1.78557         157.935         19.8605         19.8605 
        1.79171          157.08         19.6998         19.6998 
        1.79785         155.745         19.5408         19.5408 
        1.80399         154.907         19.3837         19.3837 
        1.81012         153.915         19.2285         19.2285 
        1.81625         153.282         19.0751         19.0751 
        1.82239         152.038         18.9231         18.9231 
        1.82853         151.576         18.7729         18.7729 
        1.83466         150.236         18.6244         18.6244 
        1.84078         149.628         18.4778         18.4778 
        1.84692         148.084         18.3324         18.3324 
        1.85306         147.798         18.1885         18.1885 
         1.8592         146.679         18.0464         18.0464 
        1.86533         145.846         17.9058         17.9058 
        1.87147          144.76         17.7667         17.7667 
