# k  (h/Mpc)    P(k)  (Mpc/h)^3    P_linear(k)  (Mpc/h)^3     P_NL(k)  ShotnoiseSubtracted = false
     0.00783031         12409.8           12587           12587 
       0.013688         16056.6         15931.7         15931.7 
       0.019231         16439.7         16425.1         16425.1 
      0.0249154           15156         15470.7         15470.7 
      0.0312784         13545.5         13706.9         13706.9 
      0.0375637         11928.7         11960.3         11960.3 
      0.0433917         10424.6         10640.2         10640.2 
      0.0492413         9549.68          9656.3          9656.3 
      0.0555754         8586.62         8885.04         8885.04 
      0.0619321         8227.72          8263.8          8263.8 
       0.067871         7454.42         7697.55         7697.55 
      0.0738098         6859.34         7083.37         7083.37 
      0.0800417         6123.58          6391.1          6391.1 
      0.0862327         5546.14         5707.87         5707.87 
      0.0921407          5066.7         5120.32         5120.32 
      0.0982031          4557.3            4625            4625 
       0.104506         4298.93         4236.92         4236.92 
       0.110769         4003.61         3958.85         3958.85 
       0.116806         3774.76         3754.42         3754.42 
       0.122832         3602.35         3572.44         3572.44 
       0.129052         3338.96         3375.83         3375.83 
       0.135211         3147.41          3158.5          3158.5 
       0.141259         2990.48         2928.45         2928.45 
       0.147318         2804.81          2698.4          2698.4 
       0.153489         2571.31         2484.05         2484.05 
       0.159709         2436.82         2302.48         2302.48 
       0.165845         2352.71         2161.13         2161.13 
       0.171974         2227.62         2052.01         2052.01 
       0.178125         2126.33         1963.39         1963.39 
       0.184229         2042.09         1883.55         1883.55 
        0.19034         1923.11         1801.79         1801.79 
       0.196428         1882.92         1713.81         1713.81 
       0.202534         1809.72         1619.89         1619.89 
       0.208729         1722.89         1523.68         1523.68 
       0.214876         1645.74         1433.44         1433.44 
       0.220989         1592.76         1353.65         1353.65 
       0.227147         1522.45         1285.42         1285.42 
        0.23329         1466.34         1228.68         1228.68 
       0.239377         1444.48         1180.68         1180.68 
       0.245482         1354.98         1136.98         1136.98 
       0.251667          1346.6         1093.87         1093.87 
       0.257832         1294.52            1050            1050 
       0.263955         1251.69         1005.17         1005.17 
       0.270079         1209.27         960.107         960.107 
        0.27624          1195.7         916.222         916.222 
       0.282372         1145.03         875.601         875.601 
        0.28843         1134.66         839.385         839.385 
       0.294538          1079.2         806.912         806.912 
       0.300721         1075.19         777.571         777.571 
        0.30691          1030.4         750.637         750.637 
       0.313033         1011.08         725.319         725.319 
       0.319153         992.036         700.503         700.503 
       0.325316         959.976         675.675         675.675 
        0.33145         937.477         651.182         651.182 
       0.337538         923.175         627.484         627.484 
       0.343633         899.889         604.816         604.816 
       0.349808         870.024         583.286         583.286 
       0.355968         864.906         563.406         563.406 
       0.362074         854.502         545.167         545.167 
       0.368217         829.354         528.059         528.059 
       0.374374         796.129         511.807         511.807 
       0.380519         796.244         496.189         496.189 
       0.386598         775.684         481.156         481.156 
       0.392688         772.934         466.427         466.427 
        0.39888         750.566         451.862         451.862 
       0.405048         739.167         437.862         437.862 
       0.411186         728.535         424.534         424.534 
       0.417313         714.018         411.913         411.913 
       0.423458         701.936         399.932         399.932 
       0.429607         691.333         388.563         388.563 
       0.435692         676.217          377.85          377.85 
       0.441815         671.647         367.502         367.502 
       0.447964         657.178         357.458         357.458 
       0.454126         647.484         347.704         347.704 
       0.460267          634.44         338.282         338.282 
       0.466387         627.689         329.188         329.188 
        0.47254         618.399         320.365         320.365 
       0.478662         615.657          311.93          311.93 
       0.484765          597.18         303.868         303.868 
       0.490885         592.781         296.112         296.112 
       0.497035         581.069         288.625         288.625 
       0.503198         575.675          281.41          281.41 
       0.509342         570.259         274.469         274.469 
       0.515458         566.215         267.782         267.782 
       0.521598         552.849         261.273         261.273 
       0.527764         541.908          254.94          254.94 
       0.533884          540.83         248.858         248.858 
           0.54         534.024         242.981         242.981 
       0.546137         531.079         237.281         237.281 
       0.552299         521.807         231.751         231.751 
       0.558452         519.221         226.419         226.419 
       0.564573           511.5         221.294         221.294 
       0.570708         505.031         216.323         216.323 
       0.576825         492.191         211.522         211.522 
       0.582926         492.875         206.877         206.877 
       0.589034         488.266         202.362         202.362 
       0.595184         483.555         197.951         197.951 
       0.601379         477.108         193.641         193.641 
       0.607522         470.646         189.498         189.498 
       0.613639          469.77         185.496         185.496 
       0.619772         458.017         181.605         181.605 
       0.625918         456.976          177.82          177.82 
       0.632068         450.163         174.144         174.144 
       0.638161          448.54         170.606         170.606 
         0.6443          440.24         167.143         167.143 
       0.650464         437.705         163.764         163.764 
       0.656582         435.653         160.505         160.505 
       0.662703         433.255         157.334         157.334 
       0.668861         425.407         154.233         154.233 
       0.675024         421.815         151.213         151.213 
       0.681124         419.065         148.306         148.306 
       0.687237         415.004          145.47          145.47 
       0.693381         409.637         142.697         142.697 
       0.699536         404.569         139.992         139.992 
       0.705665         402.472          137.37          137.37 
       0.711789         399.772         134.819         134.819 
       0.717957         396.122         132.316         132.316 
        0.72409         393.302         129.892         129.892 
       0.730186         388.352         127.544         127.544 
       0.736317         385.139         125.242         125.242 
       0.742472         383.552          122.99          122.99 
       0.748622         379.072         120.796         120.796 
        0.75476          374.66          118.66          118.66 
       0.760888         370.705          116.58          116.58 
       0.767043         371.419         114.543         114.543 
       0.773185         366.437         112.559         112.559 
       0.779291         361.506         110.634         110.634 
       0.785407         360.004         108.752         108.752 
       0.791564         355.592         106.902         106.902 
       0.797719         353.304         105.097         105.097 
       0.803834         350.291         103.345         103.345 
       0.809972         348.884         101.628         101.628 
       0.816124          348.32         99.9467         99.9467 
       0.822261         342.933         98.3083         98.3083 
       0.828378         340.841         96.7121         96.7121 
       0.834502         338.411         95.1504         95.1504 
       0.840667         334.589         93.6135         93.6135 
       0.846816         332.978         92.1153         92.1153 
       0.852925         330.437         90.6598         90.6598 
       0.859047         328.838         89.2331         89.2331 
       0.865192         325.103         87.8328         87.8328 
       0.871341         322.643          86.462          86.462 
       0.877463         320.936          85.127          85.127 
       0.883569         318.957          83.824          83.824 
       0.889708         315.951         82.5419         82.5419 
       0.895864         312.852         81.2837         81.2837 
       0.902008         311.477         80.0547         80.0547 
       0.908149           309.3         78.8522         78.8522 
       0.914301         305.718         77.6727         77.6727 
       0.920448         303.696         76.5188         76.5188 
       0.926574         300.487         75.3926         75.3926 
       0.932687         300.952         74.2918         74.2918 
       0.938823         297.151         73.2092         73.2092 
       0.944975         296.475         72.1461         72.1461 
       0.951105         293.689         71.1081         71.1081 
       0.957225         291.531         70.0926         70.0926 
       0.963368         287.935         69.0937         69.0937 
       0.969511         286.705         68.1144         68.1144 
       0.975621          284.29         67.1597         67.1597 
       0.981748         284.106          66.221          66.221 
       0.987916          281.57         65.2945         65.2945 
        0.99406         277.437         64.3894         64.3894 
        1.00019         277.255         63.5034         63.5034 
        1.00632         275.385         62.6352         62.6352 
        1.01246         273.004          61.782          61.782 
        1.01859         273.226         60.9463         60.9463 
        1.02471         269.252         60.1273         60.1273 
        1.03085         266.975         59.3207         59.3207 
        1.03698         266.274         58.5307         58.5307 
        1.04314         263.475         57.7519         57.7519 
        1.04929         261.741         56.9893         56.9893 
        1.05541          261.73         56.2437         56.2437 
        1.06154         257.833         55.5097         55.5097 
        1.06769         257.139         54.7878         54.7878 
        1.07382         255.453         54.0813         54.0813 
        1.07993          253.34         53.3889         53.3889 
        1.08607         252.649         52.7059         52.7059 
        1.09222         250.632         52.0343         52.0343 
        1.09836         248.621         51.3753         51.3753 
        1.10449         245.985         50.7286         50.7286 
        1.11063         243.977         50.0924         50.0924 
        1.11677         243.555         49.4675         49.4675 
         1.1229         241.835         48.8544         48.8544 
        1.12903         240.177         48.2514         48.2514 
        1.13518         238.579         47.6581         47.6581 
        1.14131         236.724         47.0752         47.0752 
        1.14745         236.276         46.5025         46.5025 
        1.15359         234.153         45.9393         45.9393 
        1.15973         232.725         45.3853         45.3853 
        1.16584         230.638          44.843          44.843 
        1.17197         230.398         44.3089         44.3089 
        1.17811         227.901         43.7819         43.7819 
        1.18424         226.526         43.2652         43.2652 
        1.19038         225.678         42.7554         42.7554 
        1.19652         223.897          42.254          42.254 
        1.20267         223.309         41.7608         41.7608 
        1.20881         221.108         41.2756         41.2756 
        1.21495         219.807          40.799          40.799 
        1.22108          218.52         40.3301         40.3301 
         1.2272           216.8         39.8697         39.8697 
        1.23334         215.686         39.4156         39.4156 
        1.23949         214.443         38.9675         38.9675 
        1.24562         213.257         38.5276         38.5276 
        1.25174         211.137         38.0953         38.0953 
        1.25789          209.63         37.6684         37.6684 
        1.26402           208.4         37.2488         37.2488 
        1.27014         207.012         36.8367         36.8367 
        1.27628         205.918         36.4296         36.4296 
        1.28244         205.552          36.028          36.028 
        1.28858         203.296          35.633          35.633 
        1.29471         201.639         35.2448         35.2448 
        1.30084         200.842         34.8628         34.8628 
        1.30697         199.342          34.486          34.486 
        1.31312         197.797         34.1142         34.1142 
        1.31925         197.368         33.7492         33.7492 
        1.32537         196.087         33.3898         33.3898 
        1.33151         194.135         33.0345         33.0345 
        1.33765          193.07         32.6846         32.6846 
        1.34378          192.19         32.3405         32.3405 
        1.34992         191.194         32.0012         32.0012 
        1.35606         190.898          31.666          31.666 
         1.3622         189.013         31.3363         31.3363 
        1.36833         187.103         31.0121         31.0121 
        1.37445         186.167         30.6927         30.6927 
        1.38059         184.852         30.3769         30.3769 
        1.38675         184.105         30.0648         30.0648 
        1.39288         182.789         29.7583         29.7583 
        1.39901         182.612         29.4563         29.4563 
        1.40515          180.58         29.1579         29.1579 
         1.4113         179.332         28.8637         28.8637 
        1.41742         178.336         28.5748         28.5748 
        1.42355          177.15         28.2893         28.2893 
         1.4297         176.043         28.0069         28.0069 
        1.43585         174.888         27.7284         27.7284 
        1.44198         173.945         27.4549         27.4549 
        1.44809         173.249         27.1856         27.1856 
        1.45423         171.874         26.9189         26.9189 
        1.46036         170.986         26.6564         26.6564 
        1.46649         169.558         26.3972         26.3972 
        1.47263           168.5         26.1414         26.1414 
        1.47877         167.786         25.8891         25.8891 
        1.48491         166.086         25.6397         25.6397 
        1.49104         165.901         25.3942         25.3942 
        1.49718         163.951         25.1517         25.1517 
        1.50333          163.41         24.9121         24.9121 
        1.50947         162.677          24.676          24.676 
         1.5156          161.22         24.4434         24.4434 
        1.52172         160.342         24.2139         24.2139 
        1.52787         159.077         23.9868         23.9868 
          1.534         158.617          23.763          23.763 
        1.54013         157.352         23.5422         23.5422 
        1.54627         156.556         23.3239         23.3239 
        1.55241         155.399         23.1083         23.1083 
        1.55855         154.512         22.8958         22.8958 
        1.56467         153.502         22.6866         22.6866 
         1.5708          152.77         22.4793         22.4793 
        1.57695         151.699         22.2744         22.2744 
        1.58308         151.044         22.0726         22.0726 
        1.58922         150.015         21.8731         21.8731 
        1.59535          148.73         21.6761         21.6761 
         1.6015         148.358         21.4814         21.4814 
        1.60764         147.229         21.2891         21.2891 
        1.61376         146.234         21.0998         21.0998 
        1.61989         145.303         20.9126         20.9126 
        1.62604         144.469         20.7273         20.7273 
        1.63218         143.734         20.5443         20.5443 
        1.63831         142.618          20.364          20.364 
        1.64444          142.15         20.1859         20.1859 
        1.65059         141.217         20.0094         20.0094 
        1.65673         139.927         19.8353         19.8353 
        1.66285         139.666         19.6637         19.6637 
        1.66898         138.563         19.4941         19.4941 
        1.67512         138.153         19.3262         19.3262 
        1.68127         136.689         19.1602         19.1602 
         1.6874         135.621         18.9965         18.9965 
        1.69353          135.42         18.8348         18.8348 
        1.69967         134.332         18.6746         18.6746 
        1.70581         133.626         18.5163         18.5163 
        1.71193         132.604         18.3605         18.3605 
        1.71806         132.164         18.2062         18.2062 
        1.72421         131.199         18.0534         18.0534 
        1.73035         130.855         17.9025         17.9025 
        1.73649         129.938         17.7533         17.7533 
        1.74262         128.834          17.606          17.606 
        1.74876         128.391         17.4603         17.4603 
        1.75489         127.237         17.3166         17.3166 
        1.76101         126.563         17.1745         17.1745 
        1.76715         125.909         17.0338         17.0338 
        1.77329          125.61         16.8946         16.8946 
        1.77943         124.333         16.7568         16.7568 
        1.78557         123.714         16.6208         16.6208 
        1.79171          123.02         16.4863         16.4863 
        1.79785         122.124         16.3533         16.3533 
        1.80399         121.471         16.2218         16.2218 
        1.81012         120.769         16.0919         16.0919 
        1.81625          120.04         15.9635         15.9635 
        1.82239         119.545         15.8363         15.8363 
        1.82853         118.881         15.7106         15.7106 
        1.83466         117.957         15.5864         15.5864 
        1.84078         117.528         15.4636         15.4636 
        1.84692         116.436          15.342          15.342 
        1.85306         116.123         15.2216         15.2216 
         1.8592         115.173         15.1026         15.1026 
        1.86533         114.309          14.985          14.985 
        1.87147         113.702         14.8685         14.8685 
        1.87761         113.266         14.7532         14.7532 
