# k  (h/Mpc)    P(k)  (Mpc/h)^3    P_linear(k)  (Mpc/h)^3     P_NL(k)  ShotnoiseSubtracted = false
     0.00783031         15270.9         15507.3         15507.3 
       0.013688         19900.9         19724.7         19724.7 
       0.019231         20370.5         20359.1         20359.1 
      0.0249154         18737.5         19185.3         19185.3 
      0.0312784         16756.2         17002.4         17002.4 
      0.0375637           14772         14837.8         14837.8 
      0.0433917         12879.3         13201.1         13201.1 
      0.0492413         11811.8           11981           11981 
      0.0555754         10585.5         11024.4         11024.4 
      0.0619321         10172.8         10253.9         10253.9 
       0.067871         9186.29         9551.43         9551.43 
      0.0738098         8456.57         8789.45         8789.45 
      0.0800417         7539.73         7930.53         7930.53 
      0.0862327          6841.4          7082.8          7082.8 
      0.0921407         6268.49         6353.76         6353.76 
      0.0982031         5642.86         5739.15         5739.15 
       0.104506         5337.25         5257.61         5257.61 
       0.110769         4970.82         4912.57         4912.57 
       0.116806         4693.81          4658.9          4658.9 
       0.122832          4473.2          4433.1          4433.1 
       0.129052         4140.34         4189.12         4189.12 
       0.135211         3905.87         3919.45         3919.45 
       0.141259         3723.41         3633.98         3633.98 
       0.147318         3501.71         3348.51         3348.51 
       0.153489         3212.24         3082.52         3082.52 
       0.159709         3050.24         2857.21         2857.21 
       0.165845         2956.73         2681.81         2681.81 
       0.171974         2802.94          2546.4          2546.4 
       0.178125         2674.59         2436.44         2436.44 
       0.184229         2562.35         2337.36         2337.36 
        0.19034         2427.54          2235.9          2235.9 
       0.196428         2375.31         2126.73         2126.73 
       0.202534         2279.32         2010.18         2010.18 
       0.208729         2178.45         1890.79         1890.79 
       0.214876         2093.33         1778.81         1778.81 
       0.220989         2025.11          1679.8          1679.8 
       0.227147         1944.11         1595.13         1595.13 
        0.23329          1873.5         1524.72         1524.72 
       0.239377         1850.31         1465.15         1465.15 
       0.245482         1739.92         1410.92         1410.92 
       0.251667         1731.01         1357.43         1357.43 
       0.257832         1663.45         1302.99         1302.99 
       0.263955         1608.78         1247.35         1247.35 
       0.270079         1556.74         1191.44         1191.44 
        0.27624          1538.7         1136.98         1136.98 
       0.282372         1475.25         1086.57         1086.57 
        0.28843         1472.22         1041.63         1041.63 
       0.294538          1402.3         1001.33         1001.33 
       0.300721         1394.52          964.92          964.92 
        0.30691         1342.27         931.497         931.497 
       0.313033         1315.96         900.079         900.079 
       0.319153         1299.22         869.283         869.283 
       0.325316         1255.77         838.473         838.473 
        0.33145         1229.59         808.079         808.079 
       0.337538         1207.94         778.672         778.672 
       0.343633         1183.72         750.542         750.542 
       0.349808         1146.05         723.824         723.824 
       0.355968         1137.87         699.155         699.155 
       0.362074         1128.05         676.521         676.521 
       0.368217         1092.82         655.292         655.292 
       0.374374         1053.85         635.123         635.123 
       0.380519         1057.19         615.743         615.743 
       0.386598          1027.9         597.087         597.087 
       0.392688         1023.32          578.81          578.81 
        0.39888         995.461         560.736         560.736 
       0.405048         984.191         543.363         543.363 
       0.411186         970.705         526.823         526.823 
       0.417313         950.802          511.16          511.16 
       0.423458         934.607         496.294         496.294 
       0.429607         923.223         482.185         482.185 
       0.435692         905.215          468.89          468.89 
       0.441815         898.608         456.049         456.049 
       0.447964         879.487         443.585         443.585 
       0.454126         873.145         431.481         431.481 
       0.460267         852.278         419.789         419.789 
       0.466387         841.766         408.504         408.504 
        0.47254         837.138         397.555         397.555 
       0.478662         828.345         387.088         387.088 
       0.484765         806.367         377.084         377.084 
       0.490885         801.585         367.458         367.458 
       0.497035         784.398         358.168         358.168 
       0.503198         780.181         349.214         349.214 
       0.509342         771.336         340.601         340.601 
       0.515458         767.907         332.303         332.303 
       0.521598         749.669         324.225         324.225 
       0.527764          735.32         316.367         316.367 
       0.533884         734.341         308.819         308.819 
           0.54         727.221         301.526         301.526 
       0.546137         720.007         294.452         294.452 
       0.552299         711.146          287.59          287.59 
       0.558452         705.758         280.974         280.974 
       0.564573         696.453         274.613         274.613 
       0.570708         689.387         268.445         268.445 
       0.576825         670.762         262.488         262.488 
       0.582926         674.495         256.724         256.724 
       0.589034         667.388         251.121         251.121 
       0.595184         660.969         245.646         245.646 
       0.601379         652.049         240.298         240.298 
       0.607522         643.221         235.156         235.156 
       0.613639         643.713         230.191         230.191 
       0.619772         629.545         225.361         225.361 
       0.625918          625.79         220.665         220.665 
       0.632068         618.018         216.103         216.103 
       0.638161         615.781         211.713         211.713 
         0.6443         604.824         207.415         207.415 
       0.650464         603.249         203.223         203.223 
       0.656582         598.644         199.178         199.178 
       0.662703         595.902         195.243         195.243 
       0.668861         585.637         191.394         191.394 
       0.675024         580.796         187.647         187.647 
       0.681124         577.374         184.039         184.039 
       0.687237         572.529          180.52          180.52 
       0.693381         565.602         177.079         177.079 
       0.699536         555.927         173.722         173.722 
       0.705665         555.908         170.469         170.469 
       0.711789         552.235         167.303         167.303 
       0.717957         547.048         164.197         164.197 
        0.72409         544.629         161.189         161.189 
       0.730186         536.033         158.275         158.275 
       0.736317         533.225         155.419         155.419 
       0.742472         530.382         152.624         152.624 
       0.748622         524.385         149.901         149.901 
        0.75476         516.493         147.251         147.251 
       0.760888         512.352          144.67          144.67 
       0.767043         512.133         142.142         142.142 
       0.773185         507.015          139.68          139.68 
       0.779291         501.995         137.291         137.291 
       0.785407         497.676         134.955         134.955 
       0.791564         492.385          132.66          132.66 
       0.797719         490.335          130.42          130.42 
       0.803834         485.162         128.246         128.246 
       0.809972         483.515         126.115         126.115 
       0.816124         482.064         124.028         124.028 
       0.822261         474.886         121.995         121.995 
       0.828378         472.217         120.014         120.014 
       0.834502          467.35         118.076         118.076 
       0.840667         463.689         116.169         116.169 
       0.846816         461.283          114.31          114.31 
       0.852925          457.54         112.504         112.504 
       0.859047          456.53         110.733         110.733 
       0.865192          450.51         108.996         108.996 
       0.871341          446.71         107.295         107.295 
       0.877463         446.355         105.638         105.638 
       0.883569         441.475         104.021         104.021 
       0.889708         438.915          102.43          102.43 
       0.895864         436.863         100.869         100.869 
       0.902008         433.301         99.3436         99.3436 
       0.908149         427.737         97.8513         97.8513 
       0.914301         425.653         96.3877         96.3877 
       0.920448         423.412         94.9557         94.9557 
       0.926574         416.439         93.5582         93.5582 
       0.932687         416.439         92.1921         92.1921 
       0.938823         411.958         90.8487         90.8487 
       0.944975         412.425         89.5294         89.5294 
       0.951105         406.897         88.2413         88.2413 
       0.957225         404.332         86.9811         86.9811 
       0.963368         400.069         85.7415         85.7415 
       0.969511          398.86         84.5263         84.5263 
       0.975621         396.265         83.3415         83.3415 
       0.981748          393.67         82.1766         82.1766 
       0.987916         391.435         81.0269         81.0269 
        0.99406         385.045         79.9038         79.9038 
        1.00019         383.553         78.8043         78.8043 
        1.00632         381.866         77.7269         77.7269 
        1.01246         378.857         76.6682         76.6682 
        1.01859         378.626         75.6311         75.6311 
        1.02471         373.394         74.6147         74.6147 
        1.03085          371.46         73.6137         73.6137 
        1.03698         370.126         72.6334         72.6334 
        1.04314           366.6          71.667          71.667 
        1.04929         362.653         70.7207         70.7207 
        1.05541         363.488         69.7954         69.7954 
        1.06154          357.58         68.8845         68.8845 
        1.06769         355.808         67.9887         67.9887 
        1.07382          353.45         67.1119         67.1119 
        1.07993         351.369         66.2527         66.2527 
        1.08607         350.346         65.4052         65.4052 
        1.09222         346.622         64.5717         64.5717 
        1.09836         344.553          63.754          63.754 
        1.10449         341.363         62.9514         62.9514 
        1.11063          337.54          62.162          62.162 
        1.11677         338.083         61.3865         61.3865 
         1.1229         335.649         60.6257         60.6257 
        1.12903         333.072         59.8773         59.8773 
        1.13518         329.611         59.1411         59.1411 
        1.14131         328.277         58.4177         58.4177 
        1.14745         325.929          57.707          57.707 
        1.15359         324.076         57.0082         57.0082 
        1.15973         321.718         56.3207         56.3207 
        1.16584         319.413         55.6478         55.6478 
        1.17197         318.709          54.985          54.985 
        1.17811           315.1          54.331          54.331 
        1.18424          312.51         53.6898         53.6898 
        1.19038         311.172         53.0571         53.0571 
        1.19652         309.072          52.435          52.435 
        1.20267         307.785         51.8229         51.8229 
        1.20881          305.79         51.2209         51.2209 
        1.21495         303.155         50.6294         50.6294 
        1.22108         301.413         50.0475         50.0475 
         1.2272         299.385         49.4762         49.4762 
        1.23334         297.472         48.9126         48.9126 
        1.23949         295.333         48.3565         48.3565 
        1.24562         294.044         47.8107         47.8107 
        1.25174         291.692         47.2742         47.2742 
        1.25789         288.917         46.7444         46.7444 
        1.26402         287.145         46.2237         46.2237 
        1.27014         285.299         45.7123         45.7123 
        1.27628         283.487         45.2072         45.2072 
        1.28244         283.111         44.7088         44.7088 
        1.28858         280.117         44.2186         44.2186 
        1.29471         278.369         43.7369         43.7369 
        1.30084         276.497         43.2629         43.2629 
        1.30697         274.944         42.7953         42.7953 
        1.31312         272.023         42.3339         42.3339 
        1.31925          271.21         41.8809         41.8809 
        1.32537         270.027          41.435          41.435 
        1.33151         267.225         40.9941         40.9941 
        1.33765         265.327         40.5598         40.5598 
        1.34378         264.446         40.1328         40.1328 
        1.34992         262.632         39.7117         39.7117 
        1.35606         261.472         39.2958         39.2958 
         1.3622         259.249         38.8867         38.8867 
        1.36833          257.39         38.4844         38.4844 
        1.37445         255.862          38.088          38.088 
        1.38059         253.581         37.6961         37.6961 
        1.38675         252.514         37.3088         37.3088 
        1.39288         250.908         36.9285         36.9285 
        1.39901         249.871         36.5537         36.5537 
        1.40515         247.924         36.1834         36.1834 
         1.4113         246.518         35.8183         35.8183 
        1.41742         244.463         35.4598         35.4598 
        1.42355         243.245         35.1055         35.1055 
         1.4297         241.238          34.755          34.755 
        1.43585         240.022         34.4095         34.4095 
        1.44198         238.721           34.07           34.07 
        1.44809         236.825         33.7358         33.7358 
        1.45423         235.346         33.4049         33.4049 
        1.46036         234.131         33.0791         33.0791 
        1.46649         232.212         32.7576         32.7576 
        1.47263         231.054         32.4401         32.4401 
        1.47877         229.329         32.1269         32.1269 
        1.48491         227.257         31.8175         31.8175 
        1.49104         226.631         31.5128         31.5128 
        1.49718         224.727         31.2119         31.2119 
        1.50333         223.767         30.9145         30.9145 
        1.50947         222.198         30.6216         30.6216 
         1.5156         220.146          30.333          30.333 
        1.52172         219.324         30.0481         30.0481 
        1.52787         217.677         29.7664         29.7664 
          1.534         216.776         29.4886         29.4886 
        1.54013         214.788         29.2146         29.2146 
        1.54627         213.785         28.9437         28.9437 
        1.55241         212.513         28.6762         28.6762 
        1.55855         210.783         28.4125         28.4125 
        1.56467         209.638         28.1528         28.1528 
         1.5708         208.885         27.8957         27.8957 
        1.57695         207.115         27.6414         27.6414 
        1.58308         205.897         27.3909         27.3909 
        1.58922         203.764         27.1433         27.1433 
        1.59535         202.474         26.8989         26.8989 
         1.6015         201.901         26.6572         26.6572 
        1.60764         200.486         26.4187         26.4187 
        1.61376         199.367         26.1837         26.1837 
        1.61989         198.082         25.9514         25.9514 
        1.62604         196.648         25.7214         25.7214 
        1.63218         195.552         25.4944         25.4944 
        1.63831         194.078         25.2707         25.2707 
        1.64444         193.224         25.0496         25.0496 
        1.65059         192.012         24.8306         24.8306 
        1.65673         190.665         24.6145         24.6145 
        1.66285         189.198         24.4016         24.4016 
        1.66898         188.085         24.1912         24.1912 
        1.67512         187.548         23.9828         23.9828 
        1.68127         185.423         23.7767         23.7767 
         1.6874         184.615         23.5736         23.5736 
        1.69353         183.456         23.3729         23.3729 
        1.69967         181.926         23.1741         23.1741 
        1.70581         181.278         22.9778         22.9778 
        1.71193         179.663         22.7844         22.7844 
        1.71806         179.124         22.5929         22.5929 
        1.72421          177.68         22.4033         22.4033 
        1.73035         176.816          22.216          22.216 
        1.73649         175.726         22.0309         22.0309 
        1.74262         174.507         21.8481         21.8481 
        1.74876         173.242         21.6673         21.6673 
        1.75489         172.308         21.4889         21.4889 
        1.76101         170.917         21.3126         21.3126 
        1.76715         170.333          21.138          21.138 
        1.77329         169.261         20.9652         20.9652 
        1.77943         168.308         20.7943         20.7943 
        1.78557         167.063         20.6255         20.6255 
        1.79171         166.257         20.4586         20.4586 
        1.79785         164.744         20.2936         20.2936 
        1.80399         163.949         20.1304         20.1304 
        1.81012         162.928         19.9692         19.9692 
        1.81625         162.161         19.8098         19.8098 
        1.82239         160.843          19.652          19.652 
        1.82853         160.425          19.496          19.496 
        1.83466         158.996         19.3419         19.3419 
        1.84078         158.263         19.1895         19.1895 
        1.84692          156.77         19.0386         19.0386 
        1.85306         156.281         18.8892         18.8892 
         1.8592         155.153         18.7415         18.7415 
        1.86533         154.417         18.5956         18.5956 
        1.87147         153.254          18.451          18.451 
        1.87761         152.348          18.308          18.308 
