# k  (h/Mpc)    Pcb(k)  (Mpc/h)^3    Pcb_linear(k) (Mpc/h)^3    Pcb_NL(k) (Mpc/h)^3   ShotnoiseSubtracted = false
     0.00783031         15402.8         15641.1         15641.1 
       0.013688         20072.8           19895           19895 
       0.019231         20546.5         20534.9         20534.9 
      0.0249154         18899.3           19351           19351 
      0.0312784           16901         17149.1         17149.1 
      0.0375637         14899.6         14965.9         14965.9 
      0.0433917         12990.5         13315.1         13315.1 
      0.0492413         11913.8         12084.4         12084.4 
      0.0555754           10677         11119.6         11119.6 
      0.0619321         10260.6         10342.4         10342.4 
       0.067871         9265.64         9633.89         9633.89 
      0.0738098         8529.61         8865.33         8865.33 
      0.0800417         7604.86         7998.99         7998.99 
      0.0862327         6900.49         7143.94         7143.94 
      0.0921407         6322.64         6408.61         6408.61 
      0.0982031          5691.6         5788.69         5788.69 
       0.104506         5383.35            5303            5303 
       0.110769         5013.76         4954.97         4954.97 
       0.116806         4734.35         4699.12         4699.12 
       0.122832         4511.84         4471.37         4471.37 
       0.129052          4176.1         4225.29         4225.29 
       0.135211         3939.61         3953.29         3953.29 
       0.141259         3755.58         3665.36         3665.36 
       0.147318         3531.96         3377.41         3377.41 
       0.153489         3239.99         3109.14         3109.14 
       0.159709         3076.59         2881.87         2881.87 
       0.165845         2982.27         2704.96         2704.96 
       0.171974         2827.15         2568.38         2568.38 
       0.178125         2697.69         2457.47         2457.47 
       0.184229         2584.48         2357.54         2357.54 
        0.19034         2448.51          2255.2          2255.2 
       0.196428         2395.82         2145.09         2145.09 
       0.202534         2299.01         2027.53         2027.53 
       0.208729         2197.27         1907.11         1907.11 
       0.214876         2111.42         1794.17         1794.17 
       0.220989          2042.6          1694.3          1694.3 
       0.227147         1960.91          1608.9          1608.9 
        0.23329         1889.69         1537.88         1537.88 
       0.239377          1866.3          1477.8          1477.8 
       0.245482         1754.95          1423.1          1423.1 
       0.251667         1745.96         1369.15         1369.15 
       0.257832         1677.82         1314.24         1314.24 
       0.263955         1622.68         1258.12         1258.12 
       0.270079         1570.19         1201.72         1201.72 
        0.27624         1551.99         1146.79         1146.79 
       0.282372         1487.99         1095.95         1095.95 
        0.28843         1484.93         1050.62         1050.62 
       0.294538         1414.41         1009.98         1009.98 
       0.300721         1406.57          973.25          973.25 
        0.30691         1353.87         939.538         939.538 
       0.313033         1327.33         907.848         907.848 
       0.319153         1310.44         876.789         876.789 
       0.325316         1266.62         845.712         845.712 
        0.33145         1240.21         815.055         815.055 
       0.337538         1218.38         785.395         785.395 
       0.343633         1193.94         757.021         757.021 
       0.349808         1155.95         730.072         730.072 
       0.355968          1147.7         705.191         705.191 
       0.362074          1137.8         682.362         682.362 
       0.368217         1102.26         660.949         660.949 
       0.374374         1062.96         640.606         640.606 
       0.380519         1066.33         621.059         621.059 
       0.386598         1036.78         602.241         602.241 
       0.392688         1032.16         583.807         583.807 
        0.39888         1004.06         565.576         565.576 
       0.405048         992.692         548.054         548.054 
       0.411186          979.09         531.371         531.371 
       0.417313         959.015         515.573         515.573 
       0.423458          942.68         500.578         500.578 
       0.429607         931.198         486.348         486.348 
       0.435692         913.034         472.938         472.938 
       0.441815          906.37         459.986         459.986 
       0.447964         887.084         447.414         447.414 
       0.454126         880.687         435.206         435.206 
       0.460267          859.64         423.413         423.413 
       0.466387         849.037         412.031         412.031 
        0.47254         844.369         400.987         400.987 
       0.478662           835.5          390.43          390.43 
       0.484765         813.332         380.339         380.339 
       0.490885         808.509         370.631         370.631 
       0.497035         791.174          361.26          361.26 
       0.503198          786.92         352.229         352.229 
       0.509342         777.999         343.541         343.541 
       0.515458          774.54         335.172         335.172 
       0.521598         756.144         327.024         327.024 
       0.527764         741.671         319.098         319.098 
       0.533884         740.684         311.485         311.485 
           0.54         733.503         304.129         304.129 
       0.546137         726.227         296.994         296.994 
       0.552299         717.289         290.073         290.073 
       0.558452         711.854         283.399         283.399 
       0.564573         702.469         276.984         276.984 
       0.570708         695.342         270.763         270.763 
       0.576825         676.556         264.754         264.754 
       0.582926         680.321          258.94          258.94 
       0.589034         673.152         253.289         253.289 
       0.595184         666.679         247.767         247.767 
       0.601379         657.681         242.373         242.373 
       0.607522         648.777         237.186         237.186 
       0.613639         649.273         232.178         232.178 
       0.619772         634.983         227.307         227.307 
       0.625918         631.195          222.57          222.57 
       0.632068         623.357         217.969         217.969 
       0.638161           621.1         213.541         213.541 
         0.6443         610.048         209.206         209.206 
       0.650464          608.46         204.977         204.977 
       0.656582         603.815         200.897         200.897 
       0.662703         601.049         196.929         196.929 
       0.668861         590.696         193.046         193.046 
       0.675024         585.812         189.267         189.267 
       0.681124         582.362         185.628         185.628 
       0.687237         577.474         182.079         182.079 
       0.693381         570.488         178.607         178.607 
       0.699536         560.728         175.222         175.222 
       0.705665          560.71          171.94          171.94 
       0.711789         557.005         168.747         168.747 
       0.717957         551.773         165.615         165.615 
        0.72409         549.333          162.58          162.58 
       0.730186         540.663         159.642         159.642 
       0.736317         537.831         156.761         156.761 
       0.742472         534.963         153.941         153.941 
       0.748622         528.915         151.195         151.195 
        0.75476         520.954         148.522         148.522 
       0.760888         516.777         145.919         145.919 
       0.767043         516.556         143.369         143.369 
       0.773185         511.394         140.885         140.885 
       0.779291         506.331         138.476         138.476 
       0.785407         501.975          136.12          136.12 
       0.791564         496.638         133.805         133.805 
       0.797719          494.57         131.546         131.546 
       0.803834         489.353         129.353         129.353 
       0.809972         487.691         127.204         127.204 
       0.816124         486.228         125.099         125.099 
       0.822261         478.988         123.048         123.048 
       0.828378         476.296         121.051         121.051 
       0.834502         471.387         119.096         119.096 
       0.840667         467.694         117.172         117.172 
       0.846816         465.268         115.297         115.297 
       0.852925         461.492         113.475         113.475 
       0.859047         460.474         111.689         111.689 
       0.865192         454.401         109.937         109.937 
       0.871341         450.569         108.221         108.221 
       0.877463          450.21          106.55          106.55 
       0.883569         445.289         104.919         104.919 
       0.889708         442.706         103.314         103.314 
       0.895864         440.636          101.74          101.74 
       0.902008         437.043         100.201         100.201 
       0.908149         431.432         98.6961         98.6961 
       0.914301          429.33         97.2198         97.2198 
       0.920448         427.069         95.7754         95.7754 
       0.926574         420.036         94.3658         94.3658 
       0.932687         420.036          92.988          92.988 
       0.938823         415.517          91.633          91.633 
       0.944975         415.987         90.3023         90.3023 
       0.951105         410.412         89.0031         89.0031 
       0.957225         407.825          87.732          87.732 
       0.963368         403.525         86.4817         86.4817 
       0.969511         402.306          85.256          85.256 
       0.975621         399.688          84.061          84.061 
       0.981748          397.07         82.8861         82.8861 
       0.987916         394.816         81.7264         81.7264 
        0.99406         388.371         80.5936         80.5936 
        1.00019         386.866         79.4847         79.4847 
        1.00632         385.164         78.3979         78.3979 
        1.01246         382.129           77.33           77.33 
        1.01859         381.897          76.284          76.284 
        1.02471          376.62         75.2589         75.2589 
        1.03085         374.669         74.2492         74.2492 
        1.03698         373.323         73.2605         73.2605 
        1.04314         369.767         72.2857         72.2857 
        1.04929         365.785         71.3312         71.3312 
        1.05541         366.627         70.3979         70.3979 
        1.06154         360.668         69.4792         69.4792 
        1.06769         358.881         68.5756         68.5756 
        1.07382         356.503         67.6913         67.6913 
        1.07993         354.404         66.8247         66.8247 
        1.08607         353.373         65.9698         65.9698 
        1.09222         349.616         65.1292         65.1292 
        1.09836         347.529         64.3043         64.3043 
        1.10449         344.312         63.4949         63.4949 
        1.11063         340.455         62.6986         62.6986 
        1.11677         341.003         61.9164         61.9164 
         1.1229         338.548         61.1491         61.1491 
        1.12903         335.949         60.3942         60.3942 
        1.13518         332.458         59.6516         59.6516 
        1.14131         331.112         58.9221         58.9221 
        1.14745         328.744         58.2052         58.2052 
        1.15359         326.875         57.5003         57.5003 
        1.15973         324.497         56.8069         56.8069 
        1.16584         322.172         56.1282         56.1282 
        1.17197         321.462         55.4596         55.4596 
        1.17811         317.822         54.8001         54.8001 
        1.18424         315.209         54.1533         54.1533 
        1.19038          313.86         53.5151         53.5151 
        1.19652         311.742         52.8876         52.8876 
        1.20267         310.444         52.2703         52.2703 
        1.20881         308.431          51.663          51.663 
        1.21495         305.774         51.0665         51.0665 
        1.22108         304.017         50.4796         50.4796 
         1.2272         301.971         49.9033         49.9033 
        1.23334         300.042         49.3349         49.3349 
        1.23949         297.884          48.774          48.774 
        1.24562         296.584         48.2235         48.2235 
        1.25174         294.212         47.6823         47.6823 
        1.25789         291.412          47.148          47.148 
        1.26402         289.625         46.6228         46.6228 
        1.27014         287.763          46.107          46.107 
        1.27628         285.936         45.5975         45.5975 
        1.28244         285.557         45.0948         45.0948 
        1.28858         282.537         44.6003         44.6003 
        1.29471         280.773         44.1145         44.1145 
        1.30084         278.886         43.6364         43.6364 
        1.30697         277.318         43.1647         43.1647 
        1.31312         274.373         42.6994         42.6994 
        1.31925         273.553         42.2425         42.2425 
        1.32537         272.359         41.7927         41.7927 
        1.33151         269.533          41.348          41.348 
        1.33765         267.619           40.91           40.91 
        1.34378          266.73         40.4793         40.4793 
        1.34992         264.901         40.0546         40.0546 
        1.35606          263.73         39.6351         39.6351 
         1.3622         261.488         39.2224         39.2224 
        1.36833         259.614         38.8166         38.8166 
        1.37445         258.072         38.4168         38.4168 
        1.38059         255.772         38.0215         38.0215 
        1.38675         254.695         37.6309         37.6309 
        1.39288         253.075         37.2473         37.2473 
        1.39901         252.029         36.8693         36.8693 
        1.40515         250.065         36.4958         36.4958 
         1.4113         248.648         36.1276         36.1276 
        1.41742         246.575         35.7659         35.7659 
        1.42355         245.346         35.4085         35.4085 
         1.4297         243.322          35.055          35.055 
        1.43585         242.096         34.7066         34.7066 
        1.44198         240.783         34.3642         34.3642 
        1.44809         238.871         34.0271         34.0271 
        1.45423         237.379         33.6933         33.6933 
        1.46036         236.154         33.3647         33.3647 
        1.46649         234.218         33.0403         33.0403 
        1.47263         233.049         32.7201         32.7201 
        1.47877          231.31         32.4043         32.4043 
        1.48491          229.22         32.0922         32.0922 
        1.49104         228.589         31.7849         31.7849 
        1.49718         226.668         31.4814         31.4814 
        1.50333         225.699         31.1814         31.1814 
        1.50947         224.117          30.886          30.886 
         1.5156         222.048         30.5949         30.5949 
        1.52172         221.219         30.3075         30.3075 
        1.52787         219.558         30.0233         30.0233 
          1.534         218.649         29.7431         29.7431 
        1.54013         216.643         29.4668         29.4668 
        1.54627         215.632         29.1936         29.1936 
        1.55241         214.349         28.9238         28.9238 
        1.55855         212.604         28.6577         28.6577 
        1.56467         211.449         28.3958         28.3958 
         1.5708         210.689         28.1365         28.1365 
        1.57695         208.904           27.88           27.88 
        1.58308         207.676         27.6273         27.6273 
        1.58922         205.524         27.3776         27.3776 
        1.59535         204.223         27.1311         27.1311 
         1.6015         203.645         26.8874         26.8874 
        1.60764         202.218         26.6467         26.6467 
        1.61376         201.089         26.4097         26.4097 
        1.61989         199.793         26.1754         26.1754 
        1.62604         198.346         25.9435         25.9435 
        1.63218         197.242         25.7145         25.7145 
        1.63831         195.754         25.4888         25.4888 
        1.64444         194.893         25.2658         25.2658 
        1.65059          193.67          25.045          25.045 
        1.65673         192.312          24.827          24.827 
        1.66285         190.832         24.6122         24.6122 
        1.66898          189.71            24.4            24.4 
        1.67512         189.168         24.1899         24.1899 
        1.68127         187.024          23.982          23.982 
         1.6874         186.209         23.7771         23.7771 
        1.69353          185.04         23.5747         23.5747 
        1.69967         183.497         23.3742         23.3742 
        1.70581         182.844         23.1761         23.1761 
        1.71193         181.215         22.9811         22.9811 
        1.71806         180.671          22.788          22.788 
        1.72421         179.215         22.5967         22.5967 
        1.73035         178.343         22.4078         22.4078 
        1.73649         177.244         22.2211         22.2211 
        1.74262         176.014         22.0368         22.0368 
        1.74876         174.739         21.8544         21.8544 
        1.75489         173.796         21.6744         21.6744 
        1.76101         172.394         21.4966         21.4966 
        1.76715         171.804         21.3205         21.3205 
        1.77329         170.723         21.1462         21.1462 
        1.77943         169.762         20.9738         20.9738 
        1.78557         168.506         20.8036         20.8036 
        1.79171         167.694         20.6353         20.6353 
        1.79785         166.167         20.4688         20.4688 
        1.80399         165.365         20.3041         20.3041 
        1.81012         164.336         20.1416         20.1416 
        1.81625         163.562         19.9809         19.9809 
        1.82239         162.232         19.8217         19.8217 
        1.82853         161.811         19.6643         19.6643 
        1.83466          160.37         19.5088         19.5088 
        1.84078          159.63         19.3552         19.3552 
        1.84692         158.124          19.203          19.203 
        1.85306          157.63         19.0522         19.0522 
         1.8592         156.493         18.9033         18.9033 
        1.86533          155.75         18.7561         18.7561 
        1.87147         154.577         18.6103         18.6103 
