# k  (h/Mpc)    Pcb(k)  (Mpc/h)^3    Pcb_linear(k) (Mpc/h)^3    Pcb_NL(k) (Mpc/h)^3   ShotnoiseSubtracted = false
     0.00783031         7112.23         7201.42         7201.42 
       0.013688         9152.12         9106.36         9106.36 
       0.019231          9397.5         9386.59         9386.59 
      0.0249154         8713.63         8840.64         8840.64 
      0.0312784         7779.64         7832.52         7832.52 
      0.0375637         6837.27         6834.37         6834.37 
      0.0433917         6005.47         6080.03         6080.03 
      0.0492413         5488.73         5517.79         5517.79 
      0.0555754         4969.28         5077.07         5077.07 
      0.0619321         4729.18         4722.08         4722.08 
       0.067871         4316.09         4398.52         4398.52 
      0.0738098         3969.23         4047.56         4047.56 
      0.0800417         3553.83         3651.98         3651.98 
      0.0862327         3206.58         3261.58         3261.58 
      0.0921407         2911.38         2925.84         2925.84 
      0.0982031         2617.19         2642.81         2642.81 
       0.104506         2452.11         2421.06         2421.06 
       0.110769         2284.82         2262.16         2262.16 
       0.116806         2149.63         2145.35         2145.35 
       0.122832          2056.5         2041.36         2041.36 
       0.129052         1914.08         1929.01         1929.01 
       0.135211         1799.13         1804.83         1804.83 
       0.141259          1697.8         1673.37         1673.37 
       0.147318         1584.26         1541.91         1541.91 
       0.153489         1451.73         1419.43         1419.43 
       0.159709          1367.4         1315.68         1315.68 
       0.165845         1310.48         1234.91         1234.91 
       0.171974         1236.29         1172.56         1172.56 
       0.178125         1182.73         1121.92         1121.92 
       0.184229         1139.02          1076.3          1076.3 
        0.19034         1066.63         1029.58         1029.58 
       0.196428         1041.55         979.306         979.306 
       0.202534         1002.09         925.638         925.638 
       0.208729         947.062         870.661         870.661 
       0.214876         894.186         819.096         819.096 
       0.220989         865.056         773.504         773.504 
       0.227147         819.108         734.516         734.516 
        0.23329         788.047         702.092         702.092 
       0.239377         771.443         674.663         674.663 
       0.245482         723.048         649.691         649.691 
       0.251667         715.055          625.06          625.06 
       0.257832         689.371         599.991         599.991 
       0.263955         664.741         574.374         574.374 
       0.270079         640.624         548.625         548.625 
        0.27624         630.512         523.547         523.547 
       0.282372         603.974         500.335         500.335 
        0.28843         587.732          479.64          479.64 
       0.294538         560.836         461.087         461.087 
       0.300721          557.24          444.32          444.32 
        0.30691         531.943         428.929         428.929 
       0.313033         520.807         414.461         414.461 
       0.319153          503.76         400.282         400.282 
       0.325316         489.746         386.094         386.094 
        0.33145         475.037         372.098         372.098 
       0.337538         468.533         358.557         358.557 
       0.343633           453.3         345.604         345.604 
       0.349808         438.947         333.301         333.301 
       0.355968         433.943         321.942         321.942 
       0.362074         424.464          311.52          311.52 
       0.368217         413.152         301.744         301.744 
       0.374374         397.824         292.457         292.457 
       0.380519         393.095         283.533         283.533 
       0.386598         383.626         274.942         274.942 
       0.392688         380.044         266.526         266.526 
        0.39888         369.649         258.203         258.203 
       0.405048         361.678         250.203         250.203 
       0.411186         354.322         242.587         242.587 
       0.417313         348.016         235.375         235.375 
       0.423458         341.365         228.529         228.529 
       0.429607         333.945         222.033         222.033 
       0.435692         325.354         215.911         215.911 
       0.441815         323.017         209.998         209.998 
       0.447964         316.853         204.258         204.258 
       0.454126         305.295         198.685         198.685 
       0.460267         301.859         193.301         193.301 
       0.466387         298.394         188.105         188.105 
        0.47254         291.811         183.063         183.063 
       0.478662         290.292         178.243         178.243 
       0.484765         281.968         173.636         173.636 
       0.490885         278.256         169.204         169.204 
       0.497035         274.078         164.926         164.926 
       0.503198         267.691         160.803         160.803 
       0.509342         265.036         156.837         156.837 
       0.515458         261.741         153.016         153.016 
       0.521598          257.51         149.297         149.297 
       0.527764         253.253         145.678         145.678 
       0.533884          250.09         142.202         142.202 
           0.54         246.541         138.844         138.844 
       0.546137         245.085         135.587         135.587 
       0.552299         240.424         132.427         132.427 
       0.558452         237.356          129.38          129.38 
       0.564573         233.473         126.452         126.452 
       0.570708         229.501         123.612         123.612 
       0.576825         226.556         120.868         120.868 
       0.582926         223.658         118.214         118.214 
       0.589034         220.661         115.634         115.634 
       0.595184         218.404         113.113         113.113 
       0.601379         216.374         110.651         110.651 
       0.607522         211.833         108.283         108.283 
       0.613639         210.904         105.996         105.996 
       0.619772          206.18         103.773         103.773 
       0.625918          204.48          101.61          101.61 
       0.632068          202.06         99.5093         99.5093 
       0.638161         200.765         97.4878         97.4878 
         0.6443          197.64         95.5088         95.5088 
       0.650464         195.652         93.5783         93.5783 
       0.656582         193.922         91.7158         91.7158 
       0.662703         191.368         89.9041         89.9041 
       0.668861         188.673         88.1316         88.1316 
       0.675024         186.473         86.4061         86.4061 
       0.681124         185.543         84.7448         84.7448 
       0.687237         182.429         83.1245         83.1245 
       0.693381             180         81.5397         81.5397 
       0.699536          178.78         79.9941         79.9941 
       0.705665         178.543         78.4959         78.4959 
       0.711789         174.728         77.0382         77.0382 
       0.717957         174.012         75.6081         75.6081 
        0.72409         171.723         74.2229         74.2229 
       0.730186         169.108         72.8813         72.8813 
       0.736317         168.265         71.5661         71.5661 
       0.742472         167.105         70.2789         70.2789 
       0.748622         165.692         69.0251         69.0251 
        0.75476         164.166         67.8049         67.8049 
       0.760888          161.91         66.6164         66.6164 
       0.767043         160.962         65.4521         65.4521 
       0.773185         159.312         64.3185         64.3185 
       0.779291         157.025         63.2185         63.2185 
       0.785407         156.247          62.143          62.143 
       0.791564         154.682          61.086          61.086 
       0.797719         152.666         60.0545         60.0545 
       0.803834         151.994         59.0537         59.0537 
       0.809972         149.987         58.0724         58.0724 
       0.816124         149.825         57.1116         57.1116 
       0.822261         147.968         56.1754         56.1754 
       0.828378         146.568         55.2632         55.2632 
       0.834502         146.188         54.3708         54.3708 
       0.840667          144.07         53.4927         53.4927 
       0.846816         142.873         52.6366         52.6366 
       0.852925          141.79         51.8049         51.8049 
       0.859047         140.179         50.9896         50.9896 
       0.865192         139.454         50.1894         50.1894 
       0.871341         138.071         49.4061         49.4061 
       0.877463         136.878         48.6433         48.6433 
       0.883569         135.872         47.8987         47.8987 
       0.889708         134.935         47.1661         47.1661 
       0.895864          133.63         46.4472         46.4472 
       0.902008         132.782         45.7449         45.7449 
       0.908149         131.984         45.0577         45.0577 
       0.914301         130.491         44.3838         44.3838 
       0.920448         129.672         43.7244         43.7244 
       0.926574         128.881         43.0809         43.0809 
       0.932687         128.213         42.4518         42.4518 
       0.938823          126.45         41.8333         41.8333 
       0.944975         125.552         41.2257         41.2257 
       0.951105         124.783         40.6326         40.6326 
       0.957225          123.26         40.0523         40.0523 
       0.963368         122.594         39.4815         39.4815 
       0.969511         122.105          38.922          38.922 
       0.975621         121.511         38.3764         38.3764 
       0.981748         120.576           37.84           37.84 
       0.987916         119.227         37.3106         37.3106 
        0.99406         118.658         36.7934         36.7934 
        1.00019         117.696         36.2872         36.2872 
        1.00632         117.008          35.791          35.791 
        1.01246         116.055         35.3035         35.3035 
        1.01859         114.641          34.826          34.826 
        1.02471          114.83          34.358          34.358 
        1.03085         113.617          33.897          33.897 
        1.03698         112.696         33.4456         33.4456 
        1.04314         111.731         33.0006         33.0006 
        1.04929         111.146         32.5649         32.5649 
        1.05541         110.353         32.1388         32.1388 
        1.06154         109.711         31.7194         31.7194 
        1.06769         109.254         31.3069         31.3069 
        1.07382         108.719         30.9031         30.9031 
        1.07993         107.886         30.5075         30.5075 
        1.08607         106.971         30.1172         30.1172 
        1.09222         106.428         29.7334         29.7334 
        1.09836         105.576         29.3569         29.3569 
        1.10449         104.924         28.9873         28.9873 
        1.11063         104.267         28.6238         28.6238 
        1.11677         103.721         28.2667         28.2667 
         1.1229         102.693         27.9164         27.9164 
        1.12903         101.763         27.5718         27.5718 
        1.13518         101.994         27.2328         27.2328 
        1.14131          101.09         26.8997         26.8997 
        1.14745         100.093         26.5725         26.5725 
        1.15359         99.6433         26.2506         26.2506 
        1.15973         99.2445         25.9341         25.9341 
        1.16584         98.4317         25.6242         25.6242 
        1.17197          97.836          25.319          25.319 
        1.17811         97.2248         25.0179         25.0179 
        1.18424         96.4937         24.7226         24.7226 
        1.19038         95.9698         24.4313         24.4313 
        1.19652         95.5324         24.1448         24.1448 
        1.20267         94.7511          23.863          23.863 
        1.20881         94.2066         23.5857         23.5857 
        1.21495         93.5232         23.3134         23.3134 
        1.22108         92.9826         23.0454         23.0454 
         1.2272         92.3287         22.7824         22.7824 
        1.23334         91.9077         22.5229         22.5229 
        1.23949         91.2286         22.2668         22.2668 
        1.24562         90.9256         22.0155         22.0155 
        1.25174         90.2978         21.7684         21.7684 
        1.25789         89.8035         21.5245         21.5245 
        1.26402         89.3832         21.2847         21.2847 
        1.27014         88.4547         21.0492         21.0492 
        1.27628         88.2963         20.8166         20.8166 
        1.28244          87.469         20.5871         20.5871 
        1.28858         87.1367         20.3614         20.3614 
        1.29471         86.6798         20.1396         20.1396 
        1.30084         86.0403         19.9213         19.9213 
        1.30697         85.5242          19.706          19.706 
        1.31312         85.1151         19.4936         19.4936 
        1.31925          84.753          19.285          19.285 
        1.32537         84.2966         19.0796         19.0796 
        1.33151         83.4956         18.8766         18.8766 
        1.33765         83.0753         18.6767         18.6767 
        1.34378         82.5517           18.48           18.48 
        1.34992         82.2705         18.2861         18.2861 
        1.35606         81.7831         18.0946         18.0946 
         1.3622         81.0218         17.9062         17.9062 
        1.36833          80.879          17.721          17.721 
        1.37445         80.2919         17.5385         17.5385 
        1.38059         79.7631          17.358          17.358 
        1.38675           79.34         17.1796         17.1796 
        1.39288         78.7921         17.0045         17.0045 
        1.39901          78.675          16.832          16.832 
        1.40515         78.2327         16.6614         16.6614 
         1.4113         77.5873         16.4933         16.4933 
        1.41742         77.3923         16.3282         16.3282 
        1.42355         76.7227         16.1651         16.1651 
         1.4297         76.3678         16.0037         16.0037 
        1.43585         75.8091         15.8446         15.8446 
        1.44198         75.5529         15.6883         15.6883 
        1.44809         75.0993         15.5344         15.5344 
        1.45423         74.7438          15.382          15.382 
        1.46036         74.3848          15.232          15.232 
        1.46649         73.9066         15.0839         15.0839 
        1.47263         73.4946         14.9377         14.9377 
        1.47877         73.2599         14.7935         14.7935 
        1.48491         72.7943          14.651          14.651 
        1.49104         72.3145         14.5108         14.5108 
        1.49718         71.8853         14.3722         14.3722 
        1.50333          71.526         14.2353         14.2353 
        1.50947         71.0636         14.1004         14.1004 
         1.5156         70.8347         13.9675         13.9675 
        1.52172         70.3935         13.8363         13.8363 
        1.52787         70.1648         13.7066         13.7066 
          1.534           69.78         13.5786         13.5786 
        1.54013         69.2994         13.4525         13.4525 
        1.54627         68.9936         13.3278         13.3278 
        1.55241         68.5258         13.2046         13.2046 
        1.55855         68.1256         13.0831         13.0831 
        1.56467         67.6399         12.9636         12.9636 
         1.5708         67.5541         12.8452         12.8452 
        1.57695         67.2366         12.7281         12.7281 
        1.58308         66.7358         12.6127         12.6127 
        1.58922         66.5872         12.4987         12.4987 
        1.59535         66.2924         12.3862         12.3862 
         1.6015         65.6814         12.2749         12.2749 
        1.60764         65.5327          12.165          12.165 
        1.61376         65.0777         12.0568         12.0568 
        1.61989         64.6539         11.9499         11.9499 
        1.62604         64.4633          11.844          11.844 
        1.63218          64.247         11.7395         11.7395 
        1.63831           63.81         11.6364         11.6364 
        1.64444         63.5037         11.5346         11.5346 
        1.65059         62.9709         11.4338         11.4338 
        1.65673         62.8005         11.3343         11.3343 
        1.66285         62.4644         11.2362         11.2362 
        1.66898         62.1517         11.1393         11.1393 
        1.67512         61.7296         11.0434         11.0434 
        1.68127         61.3773         10.9485         10.9485 
         1.6874         61.1738          10.855          10.855 
        1.69353         60.8194         10.7626         10.7626 
        1.69967         60.5327          10.671          10.671 
        1.70581         60.3597         10.5806         10.5806 
        1.71193         60.0565         10.4916         10.4916 
        1.71806          59.503         10.4034         10.4034 
        1.72421         59.4033         10.3161         10.3161 
        1.73035         58.9937         10.2298         10.2298 
        1.73649         58.5922         10.1446         10.1446 
        1.74262         58.4666         10.0604         10.0604 
        1.74876         58.2065         9.97718         9.97718 
        1.75489         57.7909         9.89504         9.89504 
        1.76101         57.6086         9.81385         9.81385 
        1.76715         57.1859         9.73347         9.73347 
        1.77329          56.937          9.6539          9.6539 
        1.77943         56.6872         9.57519         9.57519 
        1.78557         56.4768         9.49748         9.49748 
        1.79171          56.112         9.42062         9.42062 
        1.79785         55.8739         9.34461         9.34461 
        1.80399         55.5231         9.26946         9.26946 
        1.81012         55.3999         9.19524         9.19524 
        1.81625          54.839         9.12187         9.12187 
        1.82239         54.7006          9.0492          9.0492 
        1.82853         54.2745         8.97736         8.97736 
        1.83466         54.1729         8.90638         8.90638 
        1.84078         53.7252         8.83624         8.83624 
        1.84692         53.5037         8.76675         8.76675 
        1.85306         53.2715         8.69792         8.69792 
         1.8592         52.9318         8.62995         8.62995 
        1.86533         52.7186         8.56275         8.56275 
        1.87147          52.457         8.49618         8.49618 
