# k  (h/Mpc)    P(k)  (Mpc/h)^3    P_linear(k)  (Mpc/h)^3     P_NL(k)  ShotnoiseSubtracted = false
     0.00783031         6270.69         6347.58         6347.58 
       0.013688         8062.67         8026.54         8026.54 
       0.019231         8283.11         8273.58         8273.58 
      0.0249154         7687.85          7792.4          7792.4 
      0.0312784         6862.35         6903.84         6903.84 
      0.0375637         6029.01         6024.06         6024.06 
      0.0433917         5300.06         5359.16         5359.16 
      0.0492413         4842.03         4863.58         4863.58 
      0.0555754         4388.76         4475.12         4475.12 
      0.0619321         4171.47         4162.23         4162.23 
       0.067871          3811.9         3877.03         3877.03 
      0.0738098         3505.36         3567.68         3567.68 
      0.0800417         3140.09         3219.01         3219.01 
      0.0862327         2831.45         2874.89         2874.89 
      0.0921407         2568.25         2578.96         2578.96 
      0.0982031          2308.8         2329.48         2329.48 
       0.104506         2160.42         2134.02         2134.02 
       0.110769         2013.29         1993.96         1993.96 
       0.116806         1893.85            1891            1891 
       0.122832         1812.27         1799.34         1799.34 
       0.129052         1688.15         1700.31         1700.31 
       0.135211          1585.9         1590.85         1590.85 
       0.141259         1494.88         1474.98         1474.98 
       0.147318         1393.84         1359.11         1359.11 
       0.153489         1277.26         1251.15         1251.15 
       0.159709         1201.52          1159.7          1159.7 
       0.165845          1150.2          1088.5          1088.5 
       0.171974         1084.44         1033.54         1033.54 
       0.178125         1037.88         988.909         988.909 
       0.184229         999.701         948.694         948.694 
        0.19034         936.212         907.512         907.512 
       0.196428         913.202         863.202         863.202 
       0.202534          878.42         815.896         815.896 
       0.208729         829.257         767.437         767.437 
       0.214876         781.758         721.986         721.986 
       0.220989         755.932         681.799         681.799 
       0.227147         714.758         647.433         647.433 
        0.23329         687.485         618.854         618.854 
       0.239377         672.174         594.677         594.677 
       0.245482         630.479         572.665         572.665 
       0.251667         622.781         550.955         550.955 
       0.257832         600.642         528.858         528.858 
       0.263955         578.688         506.277         506.277 
       0.270079         557.491         483.581         483.581 
        0.27624         547.865         461.477         461.477 
       0.282372         524.899         441.018         441.018 
        0.28843          509.32         422.776         422.776 
       0.294538         486.598         406.421         406.421 
       0.300721         482.754         391.642         391.642 
        0.30691         460.848         378.077         378.077 
       0.313033         450.748         365.324         365.324 
       0.319153         434.947         352.825         352.825 
       0.325316         423.366          340.32          340.32 
        0.33145         410.177         327.984         327.984 
       0.337538         404.326         316.048         316.048 
       0.343633         390.982          304.63          304.63 
       0.349808         378.734         293.786         293.786 
       0.355968         373.662         283.773         283.773 
       0.362074         364.881         274.587         274.587 
       0.368217         355.206          265.97          265.97 
       0.374374         342.692         257.784         257.784 
       0.380519         337.791         249.918         249.918 
       0.386598          329.54         242.346         242.346 
       0.392688         325.897         234.927         234.927 
        0.39888         317.138         227.591         227.591 
       0.405048          310.14          220.54          220.54 
       0.411186         303.592         213.827         213.827 
       0.417313         297.968          207.47          207.47 
       0.423458         292.081         201.436         201.436 
       0.429607         285.496         195.709         195.709 
       0.435692         277.759         190.313         190.313 
       0.441815         275.773         185.101         185.101 
       0.447964         270.693         180.042         180.042 
       0.454126         260.098         175.129         175.129 
       0.460267         257.264         170.384         170.384 
       0.466387         254.155         165.804         165.804 
        0.47254         248.635          161.36          161.36 
       0.478662         246.911         157.111         157.111 
       0.484765         240.003         153.051         153.051 
       0.490885         236.607         149.144         149.144 
       0.497035          233.22         145.373         145.373 
       0.503198         227.384         141.739         141.739 
       0.509342         224.736         138.243         138.243 
       0.515458         221.828         134.875         134.875 
       0.521598         218.542         131.596         131.596 
       0.527764         215.019         128.407         128.407 
       0.533884         211.928         125.343         125.343 
           0.54         208.804         122.383         122.383 
       0.546137          207.39         119.512         119.512 
       0.552299         203.664         116.727         116.727 
       0.558452         200.523         114.042         114.042 
       0.564573         197.125          111.46          111.46 
       0.570708         194.017         108.956         108.956 
       0.576825         191.518         106.538         106.538 
       0.582926         188.755         104.199         104.199 
       0.589034         185.971         101.925         101.925 
       0.595184         184.022         99.7027         99.7027 
       0.601379         182.316         97.5322         97.5322 
       0.607522         178.214         95.4451         95.4451 
       0.613639           177.6         93.4297         93.4297 
       0.619772         173.644         91.4696         91.4696 
       0.625918         171.994         89.5634         89.5634 
       0.632068         170.099         87.7118         87.7118 
       0.638161         168.714         85.9299         85.9299 
         0.6443         166.267         84.1856         84.1856 
       0.650464         164.474          82.484          82.484 
       0.656582         162.745         80.8423         80.8423 
       0.662703         160.288         79.2453         79.2453 
       0.668861         158.306          77.683          77.683 
       0.675024         156.442         76.1621         76.1621 
       0.681124         155.412         74.6977         74.6977 
       0.687237         152.679         73.2696         73.2696 
       0.693381         150.759         71.8726         71.8726 
       0.699536         149.586         70.5103         70.5103 
       0.705665         149.747         69.1897         69.1897 
       0.711789          146.07         67.9048         67.9048 
       0.717957         145.503         66.6443         66.6443 
        0.72409         143.481         65.4233         65.4233 
       0.730186         141.176         64.2407         64.2407 
       0.736317          140.71         63.0814         63.0814 
       0.742472         139.524         61.9469         61.9469 
       0.748622         138.334         60.8417         60.8417 
        0.75476         136.967         59.7661         59.7661 
       0.760888         135.098         58.7186         58.7186 
       0.767043         134.092         57.6923         57.6923 
       0.773185          132.71         56.6931         56.6931 
       0.779291         131.134         55.7235         55.7235 
       0.785407         130.321         54.7755         54.7755 
       0.791564          128.88         53.8439         53.8439 
       0.797719         127.174         52.9346         52.9346 
       0.803834         126.632         52.0525         52.0525 
       0.809972         124.734         51.1875         51.1875 
       0.816124         124.436         50.3406         50.3406 
       0.822261         123.127         49.5154         49.5154 
       0.828378         121.931         48.7114         48.7114 
       0.834502         121.319         47.9248         47.9248 
       0.840667         119.819         47.1507         47.1507 
       0.846816         118.689         46.3961         46.3961 
       0.852925         117.658          45.663          45.663 
       0.859047          116.27         44.9444         44.9444 
       0.865192         115.791         44.2391         44.2391 
       0.871341         114.703         43.5487         43.5487 
       0.877463         113.436         42.8763         42.8763 
       0.883569         112.659           42.22           42.22 
       0.889708         111.939         41.5743         41.5743 
       0.895864          110.91         40.9405         40.9405 
       0.902008          110.12         40.3215         40.3215 
       0.908149         109.387         39.7158         39.7158 
       0.914301         108.148         39.1218         39.1218 
       0.920448         107.497         38.5406         38.5406 
       0.926574         106.738         37.9733         37.9733 
       0.932687         106.189         37.4189         37.4189 
       0.938823         104.652         36.8736         36.8736 
       0.944975         104.072         36.3381         36.3381 
       0.951105         103.268         35.8153         35.8153 
       0.957225         101.991         35.3038         35.3038 
       0.963368         101.616         34.8007         34.8007 
       0.969511         101.104         34.3075         34.3075 
       0.975621         100.568         33.8266         33.8266 
       0.981748         99.6505         33.3538         33.3538 
       0.987916         98.7114         32.8872         32.8872 
        0.99406         98.2016         32.4313         32.4313 
        1.00019         97.1727         31.9851         31.9851 
        1.00632         96.7814         31.5477         31.5477 
        1.01246          95.871          31.118          31.118 
        1.01859         94.6526         30.6971         30.6971 
        1.02471         95.0105         30.2846         30.2846 
        1.03085         93.9393         29.8783         29.8783 
        1.03698         93.1466         29.4804         29.4804 
        1.04314         92.2749         29.0882         29.0882 
        1.04929         91.8499         28.7041         28.7041 
        1.05541         91.1137         28.3285         28.3285 
        1.06154         90.6993         27.9588         27.9588 
        1.06769         90.0905         27.5952         27.5952 
        1.07382         89.7446         27.2394         27.2394 
        1.07993          89.153         26.8906         26.8906 
        1.08607         88.3275         26.5466         26.5466 
        1.09222         87.8704         26.2083         26.2083 
        1.09836         87.2125         25.8764         25.8764 
        1.10449         86.6505         25.5507         25.5507 
        1.11063         86.0309         25.2303         25.2303 
        1.11677         85.5188         24.9155         24.9155 
         1.1229         84.8534         24.6067         24.6067 
        1.12903         83.8823          24.303          24.303 
        1.13518         84.1225         24.0042         24.0042 
        1.14131         83.5091         23.7106         23.7106 
        1.14745          82.471         23.4221         23.4221 
        1.15359         82.2371         23.1384         23.1384 
        1.15973         81.7354         22.8594         22.8594 
        1.16584         81.1337         22.5863         22.5863 
        1.17197         80.6377         22.3173         22.3173 
        1.17811         80.1827         22.0519         22.0519 
        1.18424         79.4652         21.7916         21.7916 
        1.19038         79.0918         21.5348         21.5348 
        1.19652         78.7781         21.2823         21.2823 
        1.20267         78.1136         21.0339         21.0339 
        1.20881         77.6686         20.7895         20.7895 
        1.21495         77.0522         20.5494         20.5494 
        1.22108         76.6015         20.3133         20.3133 
         1.2272         76.0308         20.0814         20.0814 
        1.23334         75.6924         19.8526         19.8526 
        1.23949         75.3483         19.6269         19.6269 
        1.24562         74.9472         19.4054         19.4054 
        1.25174         74.5106         19.1876         19.1876 
        1.25789         74.0826         18.9726         18.9726 
        1.26402         73.6024         18.7613         18.7613 
        1.27014         72.8462         18.5537         18.5537 
        1.27628         72.7309         18.3487         18.3487 
        1.28244         72.0323         18.1464         18.1464 
        1.28858         71.7513         17.9474         17.9474 
        1.29471         71.5105         17.7519         17.7519 
        1.30084         70.9558         17.5595         17.5595 
        1.30697         70.4501         17.3697         17.3697 
        1.31312         70.0643         17.1825         17.1825 
        1.31925         69.8834         16.9986         16.9986 
        1.32537         69.4429         16.8176         16.8176 
        1.33151         68.8303         16.6386         16.6386 
        1.33765         68.5643         16.4624         16.4624 
        1.34378          68.134         16.2891         16.2891 
        1.34992         67.6754         16.1182         16.1182 
        1.35606         67.3174         15.9494         15.9494 
         1.3622         66.7816         15.7833         15.7833 
        1.36833         66.6329           15.62           15.62 
        1.37445         66.2486         15.4591         15.4591 
        1.38059         65.7857         15.3001         15.3001 
        1.38675         65.4507         15.1429         15.1429 
        1.39288         65.0035         14.9885         14.9885 
        1.39901         64.8031         14.8364         14.8364 
        1.40515         64.4631         14.6861         14.6861 
         1.4113         64.0843         14.5379         14.5379 
        1.41742         63.7582         14.3924         14.3924 
        1.42355          63.317         14.2486         14.2486 
         1.4297         62.9615         14.1063         14.1063 
        1.43585         62.6275         13.9661         13.9661 
        1.44198          62.349         13.8283         13.8283 
        1.44809         61.9862         13.6927         13.6927 
        1.45423         61.7677         13.5584         13.5584 
        1.46036         61.3589         13.4261         13.4261 
        1.46649         60.9965         13.2956         13.2956 
        1.47263          60.656         13.1668         13.1668 
        1.47877         60.4821         13.0397         13.0397 
        1.48491         60.1514         12.9141         12.9141 
        1.49104         59.7065         12.7904         12.7904 
        1.49718         59.2976         12.6683         12.6683 
        1.50333         59.0836         12.5476         12.5476 
        1.50947         58.7267         12.4287         12.4287 
         1.5156         58.4472         12.3115         12.3115 
        1.52172         58.1616         12.1959         12.1959 
        1.52787         57.9934         12.0816         12.0816 
          1.534         57.6322         11.9688         11.9688 
        1.54013          57.293         11.8576         11.8576 
        1.54627         57.0794         11.7477         11.7477 
        1.55241         56.6724         11.6391         11.6391 
        1.55855         56.2844          11.532          11.532 
        1.56467         55.8791         11.4266         11.4266 
         1.5708         55.8679         11.3223         11.3223 
        1.57695         55.5383         11.2191         11.2191 
        1.58308         55.2804         11.1174         11.1174 
        1.58922         55.1345         11.0169         11.0169 
        1.59535          54.811         10.9177         10.9177 
         1.6015         54.3557         10.8196         10.8196 
        1.60764         54.2298         10.7228         10.7228 
        1.61376          53.923         10.6274         10.6274 
        1.61989         53.4569         10.5331         10.5331 
        1.62604         53.3637         10.4398         10.4398 
        1.63218         53.1571         10.3477         10.3477 
        1.63831         52.8323         10.2569         10.2569 
        1.64444         52.5998         10.1671         10.1671 
        1.65059         52.1269         10.0782         10.0782 
        1.65673         51.9634         9.99052         9.99052 
        1.66285         51.7392         9.90411         9.90411 
        1.66898         51.4393          9.8187          9.8187 
        1.67512         51.1455         9.73413         9.73413 
        1.68127         50.8375          9.6505          9.6505 
         1.6874         50.7333         9.56803         9.56803 
        1.69353         50.3716         9.48659         9.48659 
        1.69967         50.1831         9.40591         9.40591 
        1.70581         50.0606         9.32621         9.32621 
        1.71193         49.7082         9.24774         9.24774 
        1.71806         49.3323         9.17001         9.17001 
        1.72421         49.1792         9.09302         9.09302 
        1.73035         48.8825         9.01702         9.01702 
        1.73649         48.5704          8.9419          8.9419 
        1.74262          48.465         8.86771         8.86771 
        1.74876         48.3447         8.79432         8.79432 
        1.75489         47.9226         8.72191         8.72191 
        1.76101         47.7807         8.65035         8.65035 
        1.76715         47.4657          8.5795          8.5795 
        1.77329         47.2064         8.50936         8.50936 
        1.77943         47.0882         8.43999         8.43999 
        1.78557         46.8737         8.37149         8.37149 
        1.79171         46.5396         8.30375         8.30375 
        1.79785         46.3311         8.23674         8.23674 
        1.80399         46.1217          8.1705          8.1705 
        1.81012         45.9759         8.10508         8.10508 
        1.81625          45.553         8.04041         8.04041 
        1.82239          45.435         7.97636         7.97636 
        1.82853         45.0787         7.91304         7.91304 
        1.83466         45.0022         7.85047         7.85047 
        1.84078         44.6321         7.78864         7.78864 
        1.84692         44.4618         7.72739         7.72739 
        1.85306          44.249         7.66673         7.66673 
         1.8592          44.028         7.60681         7.60681 
        1.86533         43.7932         7.54758         7.54758 
        1.87147         43.6401          7.4889          7.4889 
        1.87761         43.4833         7.43083         7.43083 
