# k  (h/Mpc)    Pcb(k)  (Mpc/h)^3    Pcb_linear(k) (Mpc/h)^3    Pcb_NL(k) (Mpc/h)^3   ShotnoiseSubtracted = false
     0.00783031         4344.83         4394.82         4394.82 
       0.013688         5573.89         5557.45         5557.45 
       0.019231         5734.52         5728.67         5728.67 
      0.0249154          5336.9          5395.6          5395.6 
      0.0312784         4760.63         4780.42         4780.42 
      0.0375637         4178.43         4171.27         4171.27 
      0.0433917         3681.89          3710.9          3710.9 
      0.0492413         3359.76         3367.76         3367.76 
      0.0555754         3054.62         3098.78         3098.78 
      0.0619321         2892.82         2882.12         2882.12 
       0.067871          2652.8         2684.64         2684.64 
      0.0738098         2439.19         2470.44         2470.44 
      0.0800417         2188.12            2229            2229 
      0.0862327         1969.55         1990.72         1990.72 
      0.0921407         1781.75         1785.81         1785.81 
      0.0982031         1602.25         1613.06         1613.06 
       0.104506         1493.67         1477.71         1477.71 
       0.110769          1392.5         1380.73         1380.73 
       0.116806         1309.76         1309.43         1309.43 
       0.122832         1253.82         1245.96         1245.96 
       0.129052          1170.8         1177.39         1177.39 
       0.135211         1098.22         1101.59         1101.59 
       0.141259         1031.88         1021.36         1021.36 
       0.147318         960.181         941.122         941.122 
       0.153489         880.059         866.365         866.365 
       0.159709         824.754         803.038         803.038 
       0.165845         787.067         753.739         753.739 
       0.171974          741.05         715.682         715.682 
       0.178125         709.916         684.776         684.776 
       0.184229         683.927         656.929         656.929 
        0.19034         641.448         628.412         628.412 
       0.196428         623.222          597.73          597.73 
       0.202534         598.728         564.973         564.973 
       0.208729         563.623         531.417         531.417 
       0.214876         529.535         499.944         499.944 
       0.220989         511.045         472.116         472.116 
       0.227147         481.533          448.32          448.32 
        0.23329         462.716          428.53          428.53 
       0.239377         450.763         411.788         411.788 
       0.245482         424.382         396.546         396.546 
       0.251667         417.597         381.512         381.512 
       0.257832         402.805         366.211         366.211 
       0.263955         387.149         350.576         350.576 
       0.270079         372.538         334.859         334.859 
        0.27624         364.268         319.553         319.553 
       0.282372         349.113         305.385         305.385 
        0.28843         336.463         292.754         292.754 
       0.294538         322.504         281.429         281.429 
       0.300721         318.286         271.196         271.196 
        0.30691         304.065         261.802         261.802 
       0.313033         296.389         252.971         252.971 
       0.319153         284.299         244.317         244.317 
       0.325316         277.889         235.657         235.657 
        0.33145         268.334         227.115         227.115 
       0.337538         263.675         218.849         218.849 
       0.343633         254.748         210.943         210.943 
       0.349808         246.919         203.434         203.434 
       0.355968         242.147         196.501         196.501 
       0.362074         235.487          190.14          190.14 
       0.368217         229.182         184.173         184.173 
       0.374374          222.18         178.504         178.504 
       0.380519         217.684         173.057         173.057 
       0.386598         212.071         167.814         167.814 
       0.392688         208.743         162.677         162.677 
        0.39888           203.2         157.597         157.597 
       0.405048         198.564         152.715         152.715 
       0.411186         194.168         148.066         148.066 
       0.417313         189.648         143.664         143.664 
       0.423458         185.572         139.485         139.485 
       0.429607         181.015          135.52          135.52 
       0.435692         175.514         131.784         131.784 
       0.441815         174.137         128.175         128.175 
       0.447964         171.171         124.672         124.672 
       0.454126         163.825          121.27          121.27 
       0.460267         161.913         117.984         117.984 
       0.466387         159.287         114.812         114.812 
        0.47254         156.236         111.735         111.735 
       0.478662          154.32         108.793         108.793 
       0.484765          150.23         105.981         105.981 
       0.490885         147.665         103.276         103.276 
       0.497035         145.663         100.665         100.665 
       0.503198         141.726         98.1481         98.1481 
       0.509342         139.149         95.7274         95.7274 
       0.515458         137.165         93.3952         93.3952 
       0.521598         135.373         91.1249         91.1249 
       0.527764         133.146         88.9163         88.9163 
       0.533884         130.879         86.7948         86.7948 
           0.54         128.618         84.7452         84.7452 
       0.546137         127.377         82.7571         82.7571 
       0.552299         125.438         80.8284         80.8284 
       0.558452         122.557         78.9689         78.9689 
       0.564573         120.338         77.1813         77.1813 
       0.570708         118.923         75.4477         75.4477 
       0.576825         117.017         73.7733         73.7733 
       0.582926         114.953         72.1533         72.1533 
       0.589034         112.717         70.5786         70.5786 
       0.595184          111.45         69.0399         69.0399 
       0.601379         110.283         67.5369         67.5369 
       0.607522         107.528         66.0916         66.0916 
       0.613639         107.366         64.6961         64.6961 
       0.619772         104.832         63.3388         63.3388 
       0.625918         103.886         62.0188         62.0188 
       0.632068         102.653         60.7367         60.7367 
       0.638161         101.298         59.5028         59.5028 
         0.6443          99.905         58.2949         58.2949 
       0.650464         98.5587         57.1166         57.1166 
       0.656582         97.4468         55.9798         55.9798 
       0.662703         95.5786          54.874          54.874 
       0.668861         94.6311         53.7922         53.7922 
       0.675024          93.407          52.739          52.739 
       0.681124         92.2172          51.725          51.725 
       0.687237         90.6295          50.736          50.736 
       0.693381         89.7406         49.7687         49.7687 
       0.699536         88.4796         48.8254         48.8254 
       0.705665         88.8342         47.9109         47.9109 
       0.711789          86.389         47.0212         47.0212 
       0.717957         85.8547         46.1483         46.1483 
        0.72409         84.6267         45.3028         45.3028 
       0.730186         83.2509          44.484          44.484 
       0.736317         83.0352         43.6812         43.6812 
       0.742472         81.8761         42.8956         42.8956 
       0.748622         81.1893         42.1303         42.1303 
        0.75476         80.2124         41.3855         41.3855 
       0.760888           79.12         40.6601         40.6601 
       0.767043         78.3076         39.9495         39.9495 
       0.773185         77.3922         39.2576         39.2576 
       0.779291         76.8714         38.5862         38.5862 
       0.785407          76.189         37.9297         37.9297 
       0.791564         75.0561         37.2846         37.2846 
       0.797719         74.0044          36.655          36.655 
       0.803834         73.7619         36.0441         36.0441 
       0.809972          72.474         35.4452         35.4452 
       0.816124         71.7687         34.8587         34.8587 
       0.822261          71.323         34.2873         34.2873 
       0.828378         70.6747         33.7306         33.7306 
       0.834502         69.9092         33.1859         33.1859 
       0.840667         69.3043         32.6499         32.6499 
       0.846816         68.4295         32.1274         32.1274 
       0.852925         67.8299         31.6197         31.6197 
       0.859047         66.9134         31.1221         31.1221 
       0.865192         66.6136         30.6337         30.6337 
       0.871341         66.2038         30.1556         30.1556 
       0.877463         64.9865           29.69           29.69 
       0.883569         64.5915         29.2356         29.2356 
       0.889708         64.2365         28.7884         28.7884 
       0.895864         63.5885         28.3496         28.3496 
       0.902008         63.0737         27.9209         27.9209 
       0.908149         62.5433         27.5015         27.5015 
       0.914301         62.0307         27.0902         27.0902 
       0.920448         61.3268         26.6877         26.6877 
       0.926574         60.8852         26.2949         26.2949 
       0.932687         60.3848          25.911          25.911 
       0.938823         59.5138         25.5334         25.5334 
       0.944975         59.3798         25.1626         25.1626 
       0.951105         58.7699         24.8006         24.8006 
       0.957225         58.0517         24.4464         24.4464 
       0.963368         57.9058          24.098          24.098 
       0.969511          57.453         23.7565         23.7565 
       0.975621         56.9765         23.4235         23.4235 
       0.981748         56.3302         23.0961         23.0961 
       0.987916         55.9934          22.773          22.773 
        0.99406         55.6681         22.4573         22.4573 
        1.00019         54.9074         22.1483         22.1483 
        1.00632         54.7295         21.8455         21.8455 
        1.01246         54.2315         21.5479         21.5479 
        1.01859         53.5726         21.2564         21.2564 
        1.02471         53.6621         20.9708         20.9708 
        1.03085         53.0509         20.6895         20.6895 
        1.03698         52.4619         20.4139         20.4139 
        1.04314         51.9716         20.1423         20.1423 
        1.04929           51.78         19.8763         19.8763 
        1.05541         51.2187         19.6163         19.6163 
        1.06154         51.0911         19.3603         19.3603 
        1.06769         50.5976         19.1085         19.1085 
        1.07382         50.2987         18.8621         18.8621 
        1.07993         50.1034         18.6206         18.6206 
        1.08607         49.4954         18.3824         18.3824 
        1.09222         49.3264         18.1482         18.1482 
        1.09836         48.8746         17.9183         17.9183 
        1.10449         48.5484         17.6928         17.6928 
        1.11063         47.9347         17.4709         17.4709 
        1.11677          47.745         17.2529         17.2529 
         1.1229         47.5866         17.0391         17.0391 
        1.12903         46.8919         16.8288         16.8288 
        1.13518         46.8478         16.6219         16.6219 
        1.14131         46.6986         16.4186         16.4186 
        1.14745         46.0951         16.2188         16.2188 
        1.15359         45.9747         16.0224         16.0224 
        1.15973         45.4488         15.8292         15.8292 
        1.16584         45.1218           15.64           15.64 
        1.17197         45.0571         15.4538         15.4538 
        1.17811         44.6162           15.27           15.27 
        1.18424         44.1964         15.0897         15.0897 
        1.19038         44.1588         14.9119         14.9119 
        1.19652         43.8845         14.7371         14.7371 
        1.20267         43.5463         14.5651         14.5651 
        1.20881         43.2132         14.3958         14.3958 
        1.21495         42.8886         14.2296         14.2296 
        1.22108         42.6178         14.0661         14.0661 
         1.2272         42.1611         13.9055         13.9055 
        1.23334         42.0495         13.7471         13.7471 
        1.23949          41.876         13.5908         13.5908 
        1.24562         41.6076         13.4374         13.4374 
        1.25174         41.3924         13.2866         13.2866 
        1.25789         41.1064         13.1377         13.1377 
        1.26402         40.8592         12.9914         12.9914 
        1.27014         40.4576         12.8477         12.8477 
        1.27628         40.2903         12.7057         12.7057 
        1.28244         40.0078         12.5656         12.5656 
        1.28858         39.8702         12.4278         12.4278 
        1.29471          39.667         12.2925         12.2925 
        1.30084         39.3932         12.1592         12.1592 
        1.30697         39.0626         12.0278         12.0278 
        1.31312         38.7562         11.8981         11.8981 
        1.31925         38.6468         11.7708         11.7708 
        1.32537         38.4642         11.6455         11.6455 
        1.33151         38.1632         11.5216         11.5216 
        1.33765         38.0976         11.3995         11.3995 
        1.34378         37.8879         11.2795         11.2795 
        1.34992          37.349         11.1612         11.1612 
        1.35606         37.2358         11.0443         11.0443 
         1.3622         37.0193         10.9293         10.9293 
        1.36833         36.8326         10.8162         10.8162 
        1.37445         36.7982         10.7048         10.7048 
        1.38059          36.577         10.5947         10.5947 
        1.38675         36.2328         10.4858         10.4858 
        1.39288          36.099         10.3789         10.3789 
        1.39901         35.7846         10.2736         10.2736 
        1.40515         35.6368         10.1695         10.1695 
         1.4113         35.5128         10.0669         10.0669 
        1.41742         35.1323         9.96612         9.96612 
        1.42355          35.085         9.86655         9.86655 
         1.4297         34.8282         9.76805         9.76805 
        1.43585         34.7777         9.67094         9.67094 
        1.44198         34.4382         9.57553         9.57553 
        1.44809         34.3018         9.48161         9.48161 
        1.45423         34.1756         9.38861         9.38861 
        1.46036         34.0175         9.29703         9.29703 
        1.46649         33.7626         9.20665         9.20665 
        1.47263         33.5807         9.11742         9.11742 
        1.47877         33.4499         9.02942         9.02942 
        1.48491         33.2348         8.94245         8.94245 
        1.49104         33.1357         8.85681         8.85681 
        1.49718         32.8288         8.77225         8.77225 
        1.50333         32.7419         8.68866         8.68866 
        1.50947         32.5807         8.60635         8.60635 
         1.5156         32.3503         8.52523         8.52523 
        1.52172         32.1028         8.44516         8.44516 
        1.52787         32.1382         8.36597         8.36597 
          1.534         31.8447         8.28789         8.28789 
        1.54013         31.6293          8.2109          8.2109 
        1.54627         31.5913         8.13476         8.13476 
        1.55241         31.3673         8.05957         8.05957 
        1.55855          31.192         7.98545         7.98545 
        1.56467         31.0281         7.91247         7.91247 
         1.5708         30.9345          7.8402          7.8402 
        1.57695         30.6227         7.76873         7.76873 
        1.58308         30.7008         7.69832         7.69832 
        1.58922         30.4571         7.62875         7.62875 
        1.59535         30.2349         7.56006         7.56006 
         1.6015          30.117         7.49214         7.49214 
        1.60764         30.0367         7.42508         7.42508 
        1.61376         29.8426         7.35904         7.35904 
        1.61989         29.5864         7.29375         7.29375 
        1.62604         29.5484         7.22912         7.22912 
        1.63218         29.3221         7.16532         7.16532 
        1.63831         29.2589         7.10243         7.10243 
        1.64444          29.099         7.04029         7.04029 
        1.65059         28.8915         6.97875         6.97875 
        1.65673          28.811         6.91801         6.91801 
        1.66285         28.6521         6.85818         6.85818 
        1.66898         28.5029         6.79903         6.79903 
        1.67512         28.4171         6.74047         6.74047 
        1.68127         28.1828         6.68256         6.68256 
         1.6874         28.0904         6.62546         6.62546 
        1.69353              28         6.56906         6.56906 
        1.69967         27.7964         6.51319         6.51319 
        1.70581         27.6669           6.458           6.458 
        1.71193         27.5172         6.40367         6.40367 
        1.71806         27.4306         6.34984         6.34984 
        1.72421         27.2708         6.29653         6.29653 
        1.73035         27.1713          6.2439          6.2439 
        1.73649         27.0137         6.19189         6.19189 
        1.74262         26.8943         6.14052         6.14052 
        1.74876          26.797         6.08969         6.08969 
        1.75489         26.6219         6.03956         6.03956 
        1.76101         26.5299            5.99            5.99 
        1.76715         26.3994         5.94094         5.94094 
        1.77329         26.3204         5.89237         5.89237 
        1.77943         26.1672         5.84433         5.84433 
        1.78557         26.0396          5.7969          5.7969 
        1.79171         25.9412         5.74999         5.74999 
        1.79785         25.7899          5.7036          5.7036 
        1.80399          25.666         5.65773         5.65773 
        1.81012          25.615         5.61243         5.61243 
        1.81625         25.4786         5.56765         5.56765 
        1.82239         25.4023         5.52329         5.52329 
        1.82853         25.1706         5.47944         5.47944 
        1.83466         25.0619         5.43612         5.43612 
        1.84078         24.8912         5.39331         5.39331 
        1.84692         24.8887         5.35089         5.35089 
        1.85306         24.7138         5.30888         5.30888 
         1.8592         24.6214          5.2674          5.2674 
        1.86533         24.4921         5.22638         5.22638 
        1.87147         24.3907         5.18575         5.18575 
