# k  (h/Mpc)    P(k)  (Mpc/h)^3    P_linear(k)  (Mpc/h)^3     P_NL(k)  ShotnoiseSubtracted = false
     0.00783031         14294.8         14508.5         14508.5 
       0.013688           18553         18394.8         18394.8 
       0.019231         18985.1         18971.9         18971.9 
      0.0249154         17473.8         17872.4         17872.4 
      0.0312784         15621.9         15836.1         15836.1 
      0.0375637         13766.3         13818.8         13818.8 
      0.0433917         12011.8         12293.9         12293.9 
      0.0492413         11011.7         11157.2         11157.2 
      0.0555754         9879.65         10266.2         10266.2 
      0.0619321         9485.08         9548.47         9548.47 
       0.067871         8574.78         8894.24         8894.24 
      0.0738098         7892.37         8184.61         8184.61 
      0.0800417          7039.8         7384.74         7384.74 
      0.0862327         6383.63         6595.31         6595.31 
      0.0921407         5843.11         5916.42         5916.42 
      0.0982031          5258.2         5344.09         5344.09 
       0.104506         4969.06         4895.69         4895.69 
       0.110769         4627.69         4574.38         4574.38 
       0.116806         4367.44         4338.17         4338.17 
       0.122832         4164.14          4127.9          4127.9 
       0.129052         3855.91         3900.72         3900.72 
       0.135211         3636.76         3649.61         3649.61 
       0.141259         3462.93         3383.79         3383.79 
       0.147318          3253.7         3117.96         3117.96 
       0.153489         2983.95         2870.29         2870.29 
       0.159709         2831.73         2660.49         2660.49 
       0.165845         2741.02         2497.16         2497.16 
       0.171974         2597.51         2371.07         2371.07 
       0.178125          2478.7         2268.68         2268.68 
       0.184229         2376.81         2176.42         2176.42 
        0.19034          2246.7         2081.95         2081.95 
       0.196428         2199.06         1980.29         1980.29 
       0.202534         2111.48         1871.77         1871.77 
       0.208729         2015.27          1760.6          1760.6 
       0.214876         1932.62         1656.33         1656.33 
       0.220989         1869.85         1564.13         1564.13 
       0.227147         1792.56         1485.29         1485.29 
        0.23329         1727.06         1419.73         1419.73 
       0.239377         1704.22         1364.26         1364.26 
       0.245482            1601         1313.77         1313.77 
       0.251667         1592.38         1263.96         1263.96 
       0.257832         1530.28         1213.27         1213.27 
       0.263955         1479.93         1161.46         1161.46 
       0.270079         1431.24          1109.4          1109.4 
        0.27624         1415.05         1058.69         1058.69 
       0.282372         1355.96         1011.75         1011.75 
        0.28843         1350.19         969.902         969.902 
       0.294538         1285.16         932.381         932.381 
       0.300721         1279.03         898.477         898.477 
        0.30691         1229.09         867.356         867.356 
       0.313033         1205.51           838.1           838.1 
       0.319153         1187.66         809.425         809.425 
       0.325316         1148.37         780.737         780.737 
        0.33145         1123.47         752.436         752.436 
       0.337538         1104.59         725.053         725.053 
       0.343633         1080.47          698.86          698.86 
       0.349808         1045.38         673.982         673.982 
       0.355968         1038.52         651.012         651.012 
       0.362074         1028.48         629.936         629.936 
       0.368217          996.94         610.169         610.169 
       0.374374         959.645         591.389         591.389 
       0.380519         961.901         573.343         573.343 
       0.386598         935.866         555.972         555.972 
       0.392688         932.181         538.953         538.953 
        0.39888         906.079         522.124         522.124 
       0.405048         894.599         505.947         505.947 
       0.411186         882.353         490.546         490.546 
       0.417313         864.325         475.962         475.962 
       0.423458         849.647         462.119         462.119 
       0.429607         838.533         448.982         448.982 
       0.435692         821.366         436.602         436.602 
       0.441815         815.572         424.645         424.645 
       0.447964         798.047          413.04          413.04 
       0.454126          790.62         401.769         401.769 
       0.460267         772.383         390.882         390.882 
       0.466387         763.523         380.374         380.374 
        0.47254         756.729         370.179         370.179 
       0.478662         750.521         360.433         360.433 
       0.484765          729.52         351.118         351.118 
       0.490885          724.92         342.155         342.155 
       0.497035         709.777         333.504         333.504 
       0.503198         705.249         325.167         325.167 
       0.509342         697.727         317.147         317.147 
       0.515458         694.032          309.42          309.42 
       0.521598         677.352         301.899         301.899 
       0.527764         664.164         294.582         294.582 
       0.533884          663.28         287.553         287.553 
           0.54         655.993         280.763         280.763 
       0.546137         650.801         274.176         274.176 
       0.552299         641.489         267.786         267.786 
       0.558452         637.406         261.626         261.626 
       0.564573         628.612         255.703         255.703 
       0.570708         621.865          249.96          249.96 
       0.576825         604.878         244.413         244.413 
       0.582926         607.772         239.045         239.045 
       0.589034         601.681         233.828         233.828 
       0.595184         595.826         228.731         228.731 
       0.601379         587.647         223.751         223.751 
       0.607522         579.835         218.963         218.963 
       0.613639         579.948          214.34          214.34 
       0.619772          566.37         209.843         209.843 
       0.625918         563.887          205.47          205.47 
       0.632068         556.296         201.222         201.222 
       0.638161         554.379         197.134         197.134 
         0.6443         544.209         193.132         193.132 
       0.650464         542.252         189.229         189.229 
       0.656582         538.732         185.462         185.462 
       0.662703         536.085         181.799         181.799 
       0.668861          526.67         178.215         178.215 
       0.675024         522.465         174.725         174.725 
       0.681124          519.16         171.366         171.366 
       0.687237         514.559          168.09          168.09 
       0.693381         508.193         164.885         164.885 
       0.699536         500.219          161.76          161.76 
       0.705665         499.465          158.73          158.73 
       0.711789          496.24         155.782         155.782 
       0.717957          491.52          152.89          152.89 
        0.72409         489.098         150.089         150.089 
       0.730186         481.733         147.376         147.376 
       0.736317           478.7         144.717         144.717 
       0.742472         476.483         142.114         142.114 
       0.748622         470.878         139.579         139.579 
        0.75476         464.248         137.111         137.111 
       0.760888         459.997         134.708         134.708 
       0.767043         460.484         132.354         132.354 
       0.773185          455.27         130.061         130.061 
       0.779291         450.306         127.837         127.837 
       0.785407         447.166         125.662         125.662 
       0.791564         441.956         123.525         123.525 
       0.797719         439.825         121.439         121.439 
       0.803834         435.487         119.415         119.415 
       0.809972         434.107         117.431         117.431 
       0.816124         432.872         115.488         115.488 
       0.822261         426.461         113.595         113.595 
       0.828378         424.017          111.75          111.75 
       0.834502         419.829         109.946         109.946 
       0.840667          416.21          108.17          108.17 
       0.846816         414.264         106.439         106.439 
       0.852925         410.788         104.757         104.757 
       0.859047         409.578         103.108         103.108 
       0.865192         404.486          101.49          101.49 
       0.871341         401.209         99.9062         99.9062 
       0.877463         400.347         98.3637         98.3637 
       0.883569         396.583         96.8581         96.8581 
       0.889708         393.718         95.3766         95.3766 
       0.895864         391.334         93.9228         93.9228 
       0.902008         388.437         92.5027         92.5027 
       0.908149         384.268         91.1132         91.1132 
       0.914301         381.515         89.7503         89.7503 
       0.920448         379.299         88.4169         88.4169 
       0.926574         373.679         87.1156         87.1156 
       0.932687          374.04         85.8436         85.8436 
       0.938823         369.733         84.5928         84.5928 
       0.944975         369.976         83.3643         83.3643 
       0.951105         365.164         82.1649         82.1649 
       0.957225         362.895         80.9915         80.9915 
       0.963368         358.836         79.8373         79.8373 
       0.969511         357.653         78.7058         78.7058 
       0.975621         355.055         77.6025         77.6025 
       0.981748         353.467         76.5179         76.5179 
       0.987916         351.219         75.4473         75.4473 
        0.99406         345.399         74.4015         74.4015 
        1.00019         344.385         73.3778         73.3778 
        1.00632         342.693         72.3745         72.3745 
        1.01246         339.888         71.3887         71.3887 
        1.01859         340.116         70.4231         70.4231 
        1.02471         335.088         69.4767         69.4767 
        1.03085         333.033         68.5446         68.5446 
        1.03698         332.078         67.6318         67.6318 
        1.04314         328.751          66.732          66.732 
        1.04929         325.693         65.8508         65.8508 
        1.05541         326.184         64.9892         64.9892 
        1.06154         320.749         64.1411         64.1411 
        1.06769         319.562         63.3069         63.3069 
        1.07382         317.507         62.4905         62.4905 
        1.07993         315.379         61.6905         61.6905 
        1.08607         314.473         60.9013         60.9013 
        1.09222         311.408         60.1253         60.1253 
        1.09836         309.401         59.3638         59.3638 
        1.10449         306.279         58.6165         58.6165 
        1.11063         303.348         57.8815         57.8815 
        1.11677         303.236         57.1594         57.1594 
         1.1229         301.204          56.451          56.451 
        1.12903         298.888         55.7541         55.7541 
        1.13518         296.249         55.0686         55.0686 
        1.14131         294.651          54.395          54.395 
        1.14745         293.129         53.7333         53.7333 
        1.15359         291.044         53.0825         53.0825 
        1.15973          288.98         52.4424         52.4424 
        1.16584         286.876         51.8158         51.8158 
        1.17197         286.483         51.1986         51.1986 
        1.17811         283.069         50.5898         50.5898 
        1.18424         280.947         49.9926         49.9926 
        1.19038         279.901         49.4035         49.4035 
        1.19652         277.627         48.8242         48.8242 
        1.20267         276.886         48.2543         48.2543 
        1.20881          274.73         47.6937         47.6937 
        1.21495         272.503          47.143          47.143 
        1.22108         270.944         46.6012         46.6012 
         1.2272         269.164         46.0692         46.0692 
        1.23334         267.473         45.5444         45.5444 
        1.23949         265.811         45.0266         45.0266 
        1.24562         264.488         44.5184         44.5184 
        1.25174         262.173         44.0189         44.0189 
        1.25789         259.978         43.5255         43.5255 
        1.26402         258.274         43.0407         43.0407 
        1.27014         256.615         42.5645         42.5645 
        1.27628         255.163         42.0942         42.0942 
        1.28244         254.607         41.6301         41.6301 
        1.28858         251.952         41.1737         41.1737 
        1.29471         250.106         40.7252         40.7252 
        1.30084         248.735         40.2838         40.2838 
        1.30697         247.191         39.8484         39.8484 
        1.31312         244.697         39.4188         39.4188 
        1.31925         244.218         38.9969         38.9969 
        1.32537         242.966         38.5817         38.5817 
        1.33151         240.493         38.1712         38.1712 
        1.33765         238.798         37.7669         37.7669 
        1.34378         237.976         37.3693         37.3693 
        1.34992         236.432         36.9772         36.9772 
        1.35606         235.885         36.5899         36.5899 
         1.3622         233.679         36.2089         36.2089 
        1.36833          231.59         35.8343         35.8343 
        1.37445         230.541         35.4652         35.4652 
        1.38059         228.466         35.1003         35.1003 
        1.38675         227.629         34.7397         34.7397 
        1.39288          226.01         34.3856         34.3856 
        1.39901         225.351         34.0366         34.0366 
        1.40515         223.289         33.6918         33.6918 
         1.4113         222.023         33.3519         33.3519 
        1.41742         220.334          33.018          33.018 
        1.42355         219.146         32.6881         32.6881 
         1.4297          217.31         32.3617         32.3617 
        1.43585         216.209           32.04           32.04 
        1.44198         214.988         31.7239         31.7239 
        1.44809         213.818         31.4128         31.4128 
        1.45423         212.347         31.1046         31.1046 
        1.46036         211.186         30.8013         30.8013 
        1.46649         209.365         30.5018         30.5018 
        1.47263          208.13         30.2062         30.2062 
        1.47877         206.883         29.9146         29.9146 
        1.48491         205.065         29.6265         29.6265 
        1.49104         204.432         29.3428         29.3428 
        1.49718         202.509         29.0626         29.0626 
        1.50333         201.796         28.7857         28.7857 
        1.50947         200.451          28.513          28.513 
         1.5156         198.555         28.2442         28.2442 
        1.52172         197.744          27.979          27.979 
        1.52787         196.216         27.7166         27.7166 
          1.534         195.563          27.458          27.458 
        1.54013         193.902         27.2029         27.2029 
        1.54627         192.867         26.9506         26.9506 
        1.55241         191.569         26.7015         26.7015 
        1.55855         190.277         26.4559         26.4559 
        1.56467         188.963         26.2142         26.2142 
         1.5708         188.462         25.9747         25.9747 
        1.57695         186.923          25.738          25.738 
        1.58308         185.844         25.5047         25.5047 
        1.58922         184.198         25.2742         25.2742 
        1.59535         182.777         25.0466         25.0466 
         1.6015         182.362         24.8216         24.8216 
        1.60764         180.992         24.5994         24.5994 
        1.61376          179.83         24.3806         24.3806 
        1.61989         178.837         24.1644         24.1644 
        1.62604         177.634         23.9502         23.9502 
        1.63218         176.596         23.7388         23.7388 
        1.63831         175.298         23.5305         23.5305 
        1.64444         174.505         23.3246         23.3246 
        1.65059         173.205         23.1207         23.1207 
        1.65673         172.012         22.9195         22.9195 
        1.66285         171.042         22.7213         22.7213 
        1.66898         169.851         22.5253         22.5253 
        1.67512         169.515         22.3313         22.3313 
        1.68127         167.564         22.1395         22.1395 
         1.6874         166.732         21.9503         21.9503 
        1.69353         165.826         21.7634         21.7634 
        1.69967          164.36         21.5783         21.5783 
        1.70581         163.747         21.3955         21.3955 
        1.71193         162.321         21.2155         21.2155 
        1.71806         161.874         21.0371         21.0371 
        1.72421         160.582         20.8605         20.8605 
        1.73035         159.864         20.6862         20.6862 
        1.73649         158.902         20.5139         20.5139 
        1.74262         157.703         20.3437         20.3437 
        1.74876         156.779         20.1753         20.1753 
        1.75489         155.754         20.0092         20.0092 
        1.76101         154.517          19.845          19.845 
        1.76715         154.107         19.6825         19.6825 
        1.77329         153.172         19.5216         19.5216 
        1.77943         152.168         19.3624         19.3624 
        1.78557         151.249         19.2053         19.2053 
        1.79171         150.402         19.0498         19.0498 
        1.79785         149.173         18.8961         18.8961 
        1.80399         148.322         18.7442         18.7442 
        1.81012          147.38         18.5941         18.5941 
        1.81625         146.779         18.4457         18.4457 
        1.82239         145.634         18.2988         18.2988 
        1.82853         145.144         18.1535         18.1535 
        1.83466         143.874           18.01           18.01 
        1.84078         143.319         17.8681         17.8681 
        1.84692          141.82         17.7276         17.7276 
        1.85306         141.595         17.5884         17.5884 
         1.8592         140.502          17.451          17.451 
        1.86533         139.625         17.3151         17.3151 
        1.87147         138.601         17.1805         17.1805 
        1.87761         137.965         17.0473         17.0473 
