# k  (h/Mpc)    P(k)  (Mpc/h)^3    P_linear(k)  (Mpc/h)^3     P_NL(k)  ShotnoiseSubtracted = false
     0.00783031         4307.63         4357.18         4357.18 
       0.013688         5526.15         5509.86         5509.86 
       0.019231         5685.41         5679.61         5679.61 
      0.0249154          5291.2          5349.4          5349.4 
      0.0312784         4719.86         4739.48         4739.48 
      0.0375637         4142.65         4135.55         4135.55 
      0.0433917         3650.36         3679.12         3679.12 
      0.0492413         3330.98         3338.91         3338.91 
      0.0555754         3028.46         3072.24         3072.24 
      0.0619321         2868.05         2857.44         2857.44 
       0.067871         2630.08         2661.65         2661.65 
      0.0738098          2418.3         2449.29         2449.29 
      0.0800417         2169.38         2209.92         2209.92 
      0.0862327         1952.68         1973.67         1973.67 
      0.0921407         1766.49         1770.51         1770.51 
      0.0982031         1588.52         1599.24         1599.24 
       0.104506         1480.88         1465.05         1465.05 
       0.110769         1380.57          1368.9          1368.9 
       0.116806         1298.55         1298.22         1298.22 
       0.122832         1243.08         1235.29         1235.29 
       0.129052         1160.77         1167.31         1167.31 
       0.135211         1088.81         1092.16         1092.16 
       0.141259         1023.04         1012.61         1012.61 
       0.147318         951.959         933.062         933.062 
       0.153489         872.523         858.945         858.945 
       0.159709         817.691         796.161         796.161 
       0.165845         780.327         747.284         747.284 
       0.171974         734.704         709.553         709.553 
       0.178125         703.836         678.912         678.912 
       0.184229          678.07         651.303         651.303 
        0.19034         635.955         623.031         623.031 
       0.196428         617.885         592.611         592.611 
       0.202534         593.601         560.134         560.134 
       0.208729         558.796         526.866         526.866 
       0.214876             525         495.663         495.663 
       0.220989         506.668         468.073         468.073 
       0.227147          477.41          444.48          444.48 
        0.23329         458.754          424.86          424.86 
       0.239377         446.903         408.261         408.261 
       0.245482         420.747          393.15          393.15 
       0.251667         414.021         378.245         378.245 
       0.257832         399.356         363.075         363.075 
       0.263955         383.833         347.573         347.573 
       0.270079         369.348         331.991         331.991 
        0.27624         361.148         316.816         316.816 
       0.282372         346.124          302.77          302.77 
        0.28843         333.581         290.247         290.247 
       0.294538         319.742         279.019         279.019 
       0.300721         315.561         268.873         268.873 
        0.30691         301.461          259.56          259.56 
       0.313033         293.851         250.805         250.805 
       0.319153         281.864         242.224         242.224 
       0.325316         275.509         233.639         233.639 
        0.33145         266.036          225.17          225.17 
       0.337538         261.417         216.975         216.975 
       0.343633         252.566         209.137         209.137 
       0.349808         244.805         201.692         201.692 
       0.355968         240.073         194.818         194.818 
       0.362074         233.471         188.511         188.511 
       0.368217          227.22         182.596         182.596 
       0.374374         220.277         176.976         176.976 
       0.380519         215.819         171.575         171.575 
       0.386598         210.255         166.377         166.377 
       0.392688         206.956         161.284         161.284 
        0.39888          201.46         156.248         156.248 
       0.405048         196.863         151.407         151.407 
       0.411186         192.505         146.798         146.798 
       0.417313         188.024         142.434         142.434 
       0.423458         183.983         138.291         138.291 
       0.429607         179.465          134.36          134.36 
       0.435692         174.011         130.655         130.655 
       0.441815         172.646         127.077         127.077 
       0.447964         169.705         123.604         123.604 
       0.454126         162.422         120.231         120.231 
       0.460267         160.527         116.973         116.973 
       0.466387         157.923         113.829         113.829 
        0.47254         154.898         110.778         110.778 
       0.478662         152.999         107.861         107.861 
       0.484765         148.943         105.073         105.073 
       0.490885         146.401         102.391         102.391 
       0.497035         144.415         99.8026         99.8026 
       0.503198         140.513         97.3076         97.3076 
       0.509342         137.957         94.9076         94.9076 
       0.515458          135.99         92.5953         92.5953 
       0.521598         134.213         90.3445         90.3445 
       0.527764         132.005         88.1548         88.1548 
       0.533884         129.758         86.0515         86.0515 
           0.54         127.517         84.0195         84.0195 
       0.546137         126.286         82.0484         82.0484 
       0.552299         124.364         80.1362         80.1362 
       0.558452         121.507         78.2926         78.2926 
       0.564573         119.307         76.5203         76.5203 
       0.570708         117.904         74.8016         74.8016 
       0.576825         116.015         73.1416         73.1416 
       0.582926         113.968         71.5354         71.5354 
       0.589034         111.752         69.9741         69.9741 
       0.595184         110.496         68.4486         68.4486 
       0.601379         109.339         66.9585         66.9585 
       0.607522         106.607         65.5256         65.5256 
       0.613639         106.447         64.1421         64.1421 
       0.619772         103.934         62.7964         62.7964 
       0.625918         102.996         61.4877         61.4877 
       0.632068         101.774         60.2165         60.2165 
       0.638161         100.431         58.9932         58.9932 
         0.6443         99.0494         57.7957         57.7957 
       0.650464         97.7146         56.6275         56.6275 
       0.656582         96.6123         55.5004         55.5004 
       0.662703         94.7601         54.4041         54.4041 
       0.668861         93.8207         53.3315         53.3315 
       0.675024         92.6071         52.2873         52.2873 
       0.681124         91.4275          51.282          51.282 
       0.687237         89.8534         50.3016         50.3016 
       0.693381          88.972         49.3425         49.3425 
       0.699536         87.7219         48.4072         48.4072 
       0.705665         88.0735         47.5006         47.5006 
       0.711789         85.6492         46.6185         46.6185 
       0.717957         85.1194         45.7531         45.7531 
        0.72409         83.9019         44.9149         44.9149 
       0.730186          82.538          44.103          44.103 
       0.736317         82.3241         43.3071         43.3071 
       0.742472          81.175         42.5282         42.5282 
       0.748622          80.494         41.7695         41.7695 
        0.75476         79.5255         41.0311         41.0311 
       0.760888         78.4424         40.3119         40.3119 
       0.767043          77.637         39.6074         39.6074 
       0.773185         76.7295         38.9214         38.9214 
       0.779291         76.2131         38.2557         38.2557 
       0.785407         75.5366         37.6049         37.6049 
       0.791564         74.4134         36.9653         36.9653 
       0.797719         73.3706         36.3411         36.3411 
       0.803834         73.1302         35.7355         35.7355 
       0.809972         71.8534         35.1416         35.1416 
       0.816124         71.1541         34.5602         34.5602 
       0.822261         70.7122         33.9937         33.9937 
       0.828378         70.0695         33.4417         33.4417 
       0.834502         69.3105         32.9017         32.9017 
       0.840667         68.7108         32.3703         32.3703 
       0.846816         67.8435         31.8522         31.8522 
       0.852925         67.2491         31.3489         31.3489 
       0.859047         66.3404         30.8556         30.8556 
       0.865192         66.0431         30.3714         30.3714 
       0.871341         65.6369         29.8974         29.8974 
       0.877463         64.4299         29.4358         29.4358 
       0.883569         64.0384         28.9852         28.9852 
       0.889708         63.6864         28.5419         28.5419 
       0.895864          63.044         28.1068         28.1068 
       0.902008         62.5336         27.6818         27.6818 
       0.908149         62.0076          27.266          27.266 
       0.914301         61.4995         26.8582         26.8582 
       0.920448         60.8016         26.4591         26.4591 
       0.926574         60.3638         26.0697         26.0697 
       0.932687         59.8677         25.6891         25.6891 
       0.938823         59.0041         25.3148         25.3148 
       0.944975         58.8713         24.9471         24.9471 
       0.951105         58.2667         24.5882         24.5882 
       0.957225         57.5546         24.2371         24.2371 
       0.963368         57.4099         23.8917         23.8917 
       0.969511          56.961          23.553          23.553 
       0.975621         56.4885         23.2229         23.2229 
       0.981748         55.8478         22.8983         22.8983 
       0.987916         55.5139         22.5779         22.5779 
        0.99406         55.1913          22.265          22.265 
        1.00019         54.4372         21.9586         21.9586 
        1.00632         54.2608         21.6584         21.6584 
        1.01246         53.7671         21.3634         21.3634 
        1.01859         53.1138         21.0744         21.0744 
        1.02471         53.2026         20.7912         20.7912 
        1.03085         52.5966         20.5123         20.5123 
        1.03698         52.0126         20.2391         20.2391 
        1.04314         51.5265         19.9698         19.9698 
        1.04929         51.3366         19.7061         19.7061 
        1.05541         50.7801         19.4483         19.4483 
        1.06154         50.6535         19.1945         19.1945 
        1.06769         50.1643         18.9449         18.9449 
        1.07382          49.868         18.7006         18.7006 
        1.07993         49.6744         18.4612         18.4612 
        1.08607         49.0715          18.225          18.225 
        1.09222          48.904         17.9927         17.9927 
        1.09836          48.456         17.7649         17.7649 
        1.10449         48.1326         17.5413         17.5413 
        1.11063         47.5242         17.3213         17.3213 
        1.11677         47.3361         17.1052         17.1052 
         1.1229         47.1791         16.8932         16.8932 
        1.12903         46.4904         16.6847         16.6847 
        1.13518         46.4466         16.4795         16.4795 
        1.14131         46.2987          16.278          16.278 
        1.14745         45.7003         16.0799         16.0799 
        1.15359          45.581         15.8852         15.8852 
        1.15973         45.0596         15.6936         15.6936 
        1.16584         44.7354         15.5061         15.5061 
        1.17197         44.6712         15.3214         15.3214 
        1.17811         44.2341         15.1392         15.1392 
        1.18424         43.8179         14.9605         14.9605 
        1.19038         43.7806         14.7842         14.7842 
        1.19652         43.5087         14.6109         14.6109 
        1.20267         43.1734         14.4403         14.4403 
        1.20881         42.8431         14.2726         14.2726 
        1.21495         42.5213         14.1078         14.1078 
        1.22108         42.2529         13.9456         13.9456 
         1.2272            41.8         13.7864         13.7864 
        1.23334         41.6894         13.6294         13.6294 
        1.23949         41.5174         13.4744         13.4744 
        1.24562         41.2513         13.3223         13.3223 
        1.25174         41.0379         13.1728         13.1728 
        1.25789         40.7544         13.0252         13.0252 
        1.26402         40.5093         12.8801         12.8801 
        1.27014         40.1111         12.7376         12.7376 
        1.27628         39.9452         12.5969         12.5969 
        1.28244         39.6652          12.458          12.458 
        1.28858         39.5287         12.3214         12.3214 
        1.29471         39.3273         12.1872         12.1872 
        1.30084         39.0559         12.0551         12.0551 
        1.30697         38.7281         11.9248         11.9248 
        1.31312         38.4243         11.7962         11.7962 
        1.31925         38.3158           11.67           11.67 
        1.32537         38.1348         11.5458         11.5458 
        1.33151         37.8364         11.4229         11.4229 
        1.33765         37.7713         11.3019         11.3019 
        1.34378         37.5634         11.1829         11.1829 
        1.34992         37.0291         11.0656         11.0656 
        1.35606         36.9169         10.9497         10.9497 
         1.3622         36.7023         10.8357         10.8357 
        1.36833         36.5172         10.7236         10.7236 
        1.37445         36.4831         10.6131         10.6131 
        1.38059         36.2637         10.5039         10.5039 
        1.38675         35.9225          10.396          10.396 
        1.39288         35.7898           10.29           10.29 
        1.39901         35.4782         10.1856         10.1856 
        1.40515         35.3316         10.0824         10.0824 
         1.4113         35.2087         9.98069         9.98069 
        1.41742         34.8314         9.88078         9.88078 
        1.42355         34.7845         9.78205         9.78205 
         1.4297           34.53         9.68439         9.68439 
        1.43585         34.4798         9.58812         9.58812 
        1.44198         34.1432         9.49353         9.49353 
        1.44809          34.008         9.40041         9.40041 
        1.45423         33.8829          9.3082          9.3082 
        1.46036         33.7262         9.21741         9.21741 
        1.46649         33.4735         9.12781         9.12781 
        1.47263         33.2931         9.03934         9.03934 
        1.47877         33.1634         8.95209         8.95209 
        1.48491         32.9502         8.86586         8.86586 
        1.49104          32.852         8.78097         8.78097 
        1.49718         32.5477         8.69713         8.69713 
        1.50333         32.4615         8.61426         8.61426 
        1.50947         32.3017         8.53264         8.53264 
         1.5156         32.0733         8.45222         8.45222 
        1.52172         31.8279         8.37283         8.37283 
        1.52787          31.863         8.29432         8.29432 
          1.534          31.572         8.21692         8.21692 
        1.54013         31.3585         8.14058         8.14058 
        1.54627         31.3208         8.06509         8.06509 
        1.55241         31.0987         7.99055         7.99055 
        1.55855         30.9249         7.91706         7.91706 
        1.56467         30.7624          7.8447          7.8447 
         1.5708         30.6695         7.77306         7.77306 
        1.57695         30.3605          7.7022          7.7022 
        1.58308         30.4379          7.6324          7.6324 
        1.58922         30.1962         7.56342         7.56342 
        1.59535          29.976         7.49532         7.49532 
         1.6015         29.8591         7.42798         7.42798 
        1.60764         29.7794         7.36149         7.36149 
        1.61376         29.5871         7.29602         7.29602 
        1.61989          29.333         7.23129         7.23129 
        1.62604         29.2954         7.16721         7.16721 
        1.63218          29.071         7.10395         7.10395 
        1.63831         29.0083         7.04161         7.04161 
        1.64444         28.8498            6.98            6.98 
        1.65059         28.6441         6.91898         6.91898 
        1.65673         28.5642         6.85877         6.85877 
        1.66285         28.4068         6.79944         6.79944 
        1.66898         28.2588         6.74081         6.74081 
        1.67512         28.1737         6.68275         6.68275 
        1.68127         27.9414         6.62533         6.62533 
         1.6874         27.8498         6.56872         6.56872 
        1.69353         27.7602         6.51281         6.51281 
        1.69967         27.5584         6.45742         6.45742 
        1.70581           27.43          6.4027          6.4027 
        1.71193         27.2815         6.34883         6.34883 
        1.71806         27.1957         6.29546         6.29546 
        1.72421         27.0373         6.24261         6.24261 
        1.73035         26.9386         6.19043         6.19043 
        1.73649         26.7823         6.13886         6.13886 
        1.74262          26.664         6.08793         6.08793 
        1.74876         26.5676         6.03754         6.03754 
        1.75489         26.3939         5.98784         5.98784 
        1.76101         26.3027         5.93871         5.93871 
        1.76715         26.1733         5.89006         5.89006 
        1.77329          26.095         5.84191         5.84191 
        1.77943         25.9431         5.79428         5.79428 
        1.78557         25.8166         5.74726         5.74726 
        1.79171          25.719         5.70075         5.70075 
        1.79785         25.5691         5.65475         5.65475 
        1.80399         25.4462         5.60928         5.60928 
        1.81012         25.3957         5.56436         5.56436 
        1.81625         25.2604         5.51997         5.51997 
        1.82239         25.1848         5.47599         5.47599 
        1.82853          24.955         5.43252         5.43252 
        1.83466         24.8473         5.38956         5.38956 
        1.84078         24.6781         5.34712         5.34712 
        1.84692         24.6756         5.30507         5.30507 
        1.85306         24.5021         5.26342         5.26342 
         1.8592         24.4105         5.22229         5.22229 
        1.86533         24.2824         5.18162         5.18162 
        1.87147         24.1818         5.14134         5.14134 
        1.87761         24.1583         5.10147         5.10147 
