# k  (h/Mpc)    P(k)  (Mpc/h)^3    P_linear(k)  (Mpc/h)^3     P_NL(k)  ShotnoiseSubtracted = false
     0.00783031          8656.1         8769.36         8769.36 
       0.013688         11156.5           11090           11090 
       0.019231         11444.4         11431.4         11431.4 
      0.0249154         10591.6         10766.5         10766.5 
      0.0312784         9459.84         9538.74         9538.74 
      0.0375637          8319.4         8323.13         8323.13 
      0.0433917          7295.3         7404.45         7404.45 
      0.0492413         6672.69         6719.72         6719.72 
      0.0555754         6027.88         6182.99         6182.99 
      0.0619321         5749.97         5750.67         5750.67 
       0.067871         5235.14         5356.62         5356.62 
      0.0738098         4815.12         4929.22         4929.22 
      0.0800417         4307.01         4447.47         4447.47 
      0.0862327         3890.96         3972.03         3972.03 
      0.0921407         3539.64         3563.16         3563.16 
      0.0982031         3182.09         3218.47         3218.47 
       0.104506          2988.4         2948.41         2948.41 
       0.110769         2783.89          2754.9          2754.9 
       0.116806         2620.47         2612.65         2612.65 
       0.122832         2505.31         2486.01         2486.01 
       0.129052         2328.31         2349.19         2349.19 
       0.135211         2190.77         2197.95         2197.95 
       0.141259         2071.91         2037.87         2037.87 
       0.147318         1936.33         1877.77         1877.77 
       0.153489         1774.46         1728.61         1728.61 
       0.159709         1675.19         1602.26         1602.26 
       0.165845         1609.07          1503.9          1503.9 
       0.171974         1519.85         1427.96         1427.96 
       0.178125         1452.76          1366.3          1366.3 
       0.184229         1398.34         1310.74         1310.74 
        0.19034         1310.37         1253.84         1253.84 
       0.196428         1281.58         1192.62         1192.62 
       0.202534         1233.11         1127.26         1127.26 
       0.208729         1168.03         1060.31         1060.31 
       0.214876         1106.53         997.511         997.511 
       0.220989         1071.07         941.986         941.986 
       0.227147         1017.14         894.507         894.507 
        0.23329         978.981         855.021         855.021 
       0.239377         960.422         821.617         821.617 
       0.245482         899.659         791.205         791.205 
       0.251667         891.464          761.21          761.21 
       0.257832         858.592          730.68          730.68 
       0.263955         829.058         699.483         699.483 
       0.270079         799.533         668.125         668.125 
        0.27624         788.746         637.586         637.586 
       0.282372         755.284         609.318         609.318 
        0.28843         739.351         584.116         584.116 
       0.294538         704.137         561.518         561.518 
       0.300721          701.03           541.1           541.1 
        0.30691         669.544         522.358         522.358 
       0.313033         656.422         504.739         504.739 
       0.319153         637.989          487.47          487.47 
       0.325316          619.03         470.192         470.192 
        0.33145         601.755         453.148         453.148 
       0.337538         593.743         436.657         436.657 
       0.343633         575.321         420.883         420.883 
       0.349808         556.642           405.9           405.9 
       0.355968         552.102         392.066         392.066 
       0.362074         541.853         379.374         379.374 
       0.368217         527.109         367.469         367.469 
       0.374374         506.032         356.159         356.159 
       0.380519         502.337         345.291         345.291 
       0.386598         490.249         334.829         334.829 
       0.392688         487.158          324.58          324.58 
        0.39888         473.308         314.444         314.444 
       0.405048         463.799         304.702         304.702 
       0.411186         455.304         295.427         295.427 
       0.417313          447.22         286.644         286.644 
       0.423458         439.145         278.307         278.307 
       0.429607         430.426         270.396         270.396 
       0.435692         420.238          262.94          262.94 
       0.441815         417.239         255.739         255.739 
       0.447964          408.76          248.75          248.75 
       0.454126         396.509         241.962         241.962 
       0.460267         391.395         235.405         235.405 
       0.466387         387.101         229.077         229.077 
        0.47254         378.734         222.937         222.937 
       0.478662         377.666         217.068         217.068 
       0.484765         366.329         211.458         211.458 
       0.490885         362.223          206.06          206.06 
       0.497035         356.196          200.85          200.85 
       0.503198         349.434         195.829         195.829 
       0.509342         346.596         190.999         190.999 
       0.515458           342.8         186.346         186.346 
       0.521598         336.222         181.816         181.816 
       0.527764         330.217         177.409         177.409 
       0.533884          327.49         173.176         173.176 
           0.54         323.029         169.087         169.087 
       0.546137         321.491          165.12          165.12 
       0.552299         314.983         161.272         161.272 
       0.558452         312.371         157.562         157.562 
       0.564573         307.444         153.995         153.995 
       0.570708         302.059         150.536         150.536 
       0.576825         297.498         147.195         147.195 
       0.582926         294.827         143.963         143.963 
       0.589034         291.521         140.821         140.821 
       0.595184          288.61         137.751         137.751 
       0.601379          285.73         134.752         134.752 
       0.607522           280.6         131.869         131.869 
       0.613639         279.132         129.084         129.084 
       0.619772         272.574         126.376         126.376 
       0.625918         271.293         123.742         123.742 
       0.632068         267.479         121.184         121.184 
       0.638161         266.305         118.722         118.722 
         0.6443         261.747         116.312         116.312 
       0.650464         259.361         113.961         113.961 
       0.656582         257.861         111.693         111.693 
       0.662703         255.416         109.487         109.487 
       0.668861         251.098         107.328         107.328 
       0.675024         248.293         105.227         105.227 
       0.681124         247.325         103.204         103.204 
       0.687237         243.894         101.231         101.231 
       0.693381         240.392         99.3005         99.3005 
       0.699536         238.737         97.4182         97.4182 
       0.705665         237.333         95.5937         95.5937 
       0.711789         233.989         93.8185         93.8185 
       0.717957         232.617         92.0769         92.0769 
        0.72409         229.976         90.3899         90.3899 
       0.730186         227.083         88.7561         88.7561 
       0.736317         225.155         87.1544         87.1544 
       0.742472         223.985         85.5869         85.5869 
       0.748622          222.07         84.0599         84.0599 
        0.75476         220.142          82.574          82.574 
       0.760888         217.162         81.1267         81.1267 
       0.767043         216.677         79.7088         79.7088 
       0.773185         214.195         78.3282         78.3282 
       0.779291         210.447         76.9886         76.9886 
       0.785407         209.844         75.6788         75.6788 
       0.791564         207.828         74.3917         74.3917 
       0.797719         205.421         73.1355         73.1355 
       0.803834         204.369         71.9166         71.9166 
       0.809972         202.341         70.7216         70.7216 
       0.816124         202.395         69.5515         69.5515 
       0.822261         199.345         68.4113         68.4113 
       0.828378         197.688         67.3005         67.3005 
       0.834502         197.571         66.2138         66.2138 
       0.840667         194.278         65.1443         65.1443 
       0.846816         192.997         64.1017         64.1017 
       0.852925         191.943         63.0889         63.0889 
       0.859047         189.981          62.096          62.096 
       0.865192         188.546         61.1216         61.1216 
       0.871341         186.704         60.1676         60.1676 
       0.877463         185.441         59.2387         59.2387 
       0.883569         184.228         58.3319         58.3319 
       0.889708          182.67         57.4397         57.4397 
       0.895864          180.58         56.5642         56.5642 
       0.902008         179.905         55.7089         55.7089 
       0.908149         178.983         54.8721         54.8721 
       0.914301         176.879         54.0513         54.0513 
       0.920448         175.558         53.2483         53.2483 
       0.926574         174.702         52.4646         52.4646 
       0.932687         174.001         51.6986         51.6986 
       0.938823         171.862         50.9453         50.9453 
       0.944975         170.423         50.2054         50.2054 
       0.951105         169.645         49.4831         49.4831 
       0.957225         167.693         48.7764         48.7764 
       0.963368           166.1         48.0813         48.0813 
       0.969511         165.578         47.3999         47.3999 
       0.975621          164.52         46.7355         46.7355 
       0.981748         164.012         46.0822         46.0822 
       0.987916         161.898         45.4375         45.4375 
        0.99406         160.969         44.8077         44.8077 
        1.00019         160.414         44.1911         44.1911 
        1.00632         158.952         43.5869         43.5869 
        1.01246         157.948         42.9932         42.9932 
        1.01859         156.631         42.4117         42.4117 
        1.02471         155.824         41.8417         41.8417 
        1.03085         154.162         41.2804         41.2804 
        1.03698         153.221         40.7307         40.7307 
        1.04314         152.089         40.1887         40.1887 
        1.04929         151.034          39.658          39.658 
        1.05541         150.325         39.1392         39.1392 
        1.06154          149.26         38.6284         38.6284 
        1.06769         149.063          38.126          38.126 
        1.07382         147.881         37.6344         37.6344 
        1.07993         146.596         37.1526         37.1526 
        1.08607         145.602         36.6773         36.6773 
        1.09222         144.898         36.2099         36.2099 
        1.09836         143.593         35.7513         35.7513 
        1.10449         142.505         35.3013         35.3013 
        1.11063         141.571         34.8586         34.8586 
        1.11677         141.172         34.4237         34.4237 
         1.1229         139.616         33.9971         33.9971 
        1.12903          138.84         33.5774         33.5774 
        1.13518         138.717         33.1646         33.1646 
        1.14131         137.244         32.7589         32.7589 
        1.14745          136.58         32.3604         32.3604 
        1.15359         135.596         31.9685         31.9685 
        1.15973         135.215          31.583          31.583 
        1.16584         133.803         31.2056         31.2056 
        1.17197         133.208         30.8339         30.8339 
        1.17811         132.379         30.4672         30.4672 
        1.18424         131.623         30.1076         30.1076 
        1.19038         131.022         29.7528         29.7528 
        1.19652          130.13          29.404          29.404 
        1.20267          129.28         29.0607         29.0607 
        1.20881          128.29         28.7231         28.7231 
        1.21495         127.615         28.3915         28.3915 
        1.22108         126.972         28.0652         28.0652 
         1.2272         125.918         27.7448         27.7448 
        1.23334         125.298         27.4287         27.4287 
        1.23949         123.983         27.1169         27.1169 
        1.24562         123.708         26.8108         26.8108 
        1.25174         122.456           26.51           26.51 
        1.25789         122.029         26.2129         26.2129 
        1.26402         121.493         25.9209         25.9209 
        1.27014         120.536         25.6341         25.6341 
        1.27628         119.958         25.3509         25.3509 
        1.28244         119.232         25.0714         25.0714 
        1.28858         118.779         24.7965         24.7965 
        1.29471         117.556         24.5264         24.5264 
        1.30084         117.006         24.2606         24.2606 
        1.30697         116.347         23.9983         23.9983 
        1.31312         116.003         23.7396         23.7396 
        1.31925         114.925         23.4856         23.4856 
        1.32537         114.485         23.2355         23.2355 
        1.33151         113.345         22.9882         22.9882 
        1.33765         112.922         22.7448         22.7448 
        1.34378          112.14         22.5053         22.5053 
        1.34992             112         22.2692         22.2692 
        1.35606         111.125         22.0359         22.0359 
         1.3622         110.224         21.8065         21.8065 
        1.36833         109.766         21.5809         21.5809 
        1.37445         108.976         21.3586         21.3586 
        1.38059         108.592         21.1388         21.1388 
        1.38675          107.71         20.9217         20.9217 
        1.39288         107.225         20.7084         20.7084 
        1.39901         106.829         20.4983         20.4983 
        1.40515         106.109         20.2906         20.2906 
         1.4113         105.088         20.0859         20.0859 
        1.41742         104.981         19.8848         19.8848 
        1.42355         104.127         19.6861         19.6861 
         1.4297         103.524         19.4896         19.4896 
        1.43585         102.691         19.2958         19.2958 
        1.44198         102.469         19.1055         19.1055 
        1.44809         101.701         18.9181         18.9181 
        1.45423         100.981         18.7325         18.7325 
        1.46036         100.782         18.5498         18.5498 
        1.46649         100.149         18.3695         18.3695 
        1.47263         99.5953         18.1914         18.1914 
        1.47877         99.1914         18.0158         18.0158 
        1.48491         98.2948         17.8423         17.8423 
        1.49104         97.9075         17.6715         17.6715 
        1.49718         97.2115         17.5027         17.5027 
        1.50333         96.7038         17.3359         17.3359 
        1.50947         96.1089         17.1717         17.1717 
         1.5156         95.7487         17.0099         17.0099 
        1.52172         94.9842         16.8501         16.8501 
        1.52787         94.7767         16.6921         16.6921 
          1.534         94.1635         16.5363         16.5363 
        1.54013         93.4447         16.3827         16.3827 
        1.54627         92.9978         16.2308         16.2308 
        1.55241         92.4774         16.0808         16.0808 
        1.55855         92.1368         15.9329         15.9329 
        1.56467         91.4766         15.7872         15.7872 
         1.5708         90.9735         15.6431         15.6431 
        1.57695         90.7345         15.5005         15.5005 
        1.58308         89.7548           15.36           15.36 
        1.58922         89.6458         15.2212         15.2212 
        1.59535         89.1947         15.0841         15.0841 
         1.6015         88.5834         14.9486         14.9486 
        1.60764         88.0908         14.8148         14.8148 
        1.61376         87.7077          14.683          14.683 
        1.61989         87.1191         14.5528         14.5528 
        1.62604         86.7042         14.4238         14.4238 
        1.63218         86.3569         14.2965         14.2965 
        1.63831         85.6502          14.171          14.171 
        1.64444         85.2796          14.047          14.047 
        1.65059         84.6938         13.9243         13.9243 
        1.65673         84.1463         13.8031         13.8031 
        1.66285         83.9119         13.6837         13.6837 
        1.66898         83.3187         13.5657         13.5657 
        1.67512         82.8254         13.4488         13.4488 
        1.68127          82.384         13.3333         13.3333 
         1.6874         81.9546         13.2194         13.2194 
        1.69353         81.5322         13.1068         13.1068 
        1.69967         81.0368         12.9954         12.9954 
        1.70581         80.7393         12.8852         12.8852 
        1.71193         80.4555         12.7768         12.7768 
        1.71806         79.6707         12.6694         12.6694 
        1.72421         79.4314         12.5631         12.5631 
        1.73035         78.9447         12.4581         12.4581 
        1.73649         78.5074         12.3543         12.3543 
        1.74262         78.1323         12.2518         12.2518 
        1.74876         77.7848         12.1504         12.1504 
        1.75489         77.1677         12.0503         12.0503 
        1.76101         76.9397         11.9515         11.9515 
        1.76715         76.4255         11.8536         11.8536 
        1.77329         76.0846         11.7567         11.7567 
        1.77943         75.5674         11.6608         11.6608 
        1.78557         75.3107         11.5662         11.5662 
        1.79171         74.8527         11.4726         11.4726 
        1.79785         74.4953           11.38           11.38 
        1.80399         74.0901         11.2885         11.2885 
        1.81012         73.8078         11.1981         11.1981 
        1.81625         73.1762         11.1088         11.1088 
        1.82239         72.8867         11.0203         11.0203 
        1.82853         72.5676         10.9328         10.9328 
        1.83466         72.1268         10.8463         10.8463 
        1.84078         71.7907         10.7609         10.7609 
        1.84692         71.2407         10.6763         10.6763 
        1.85306         70.9362         10.5925         10.5925 
         1.8592         70.3934         10.5097         10.5097 
        1.86533         70.1513         10.4279         10.4279 
        1.87147         69.6474         10.3468         10.3468 
        1.87761         69.3725         10.2666         10.2666 
