# k  (h/Mpc)    P(k)  (Mpc/h)^3    P_linear(k)  (Mpc/h)^3     P_NL(k)  ShotnoiseSubtracted = false
     0.00783031         14639.5         14860.5         14860.5 
       0.013688         19018.2         18853.6         18853.6 
       0.019231         19460.8         19448.1         19448.1 
      0.0249154         17907.1         18322.2         18322.2 
      0.0312784         16010.4         16235.2         16235.2 
      0.0375637         14110.5         14167.3         14167.3 
      0.0433917         12308.7         12604.1         12604.1 
      0.0492413         11285.4         11438.8         11438.8 
      0.0555754         10121.2         10525.4         10525.4 
      0.0619321         9720.34         9789.54         9789.54 
       0.067871         8784.04         9118.82         9118.82 
      0.0738098         8085.41         8391.29         8391.29 
      0.0800417          7210.9         7571.23         7571.23 
      0.0862327         6540.22         6761.87         6761.87 
      0.0921407         5988.55         6065.84         6065.84 
      0.0982031         5389.65         5479.07         5479.07 
       0.104506         5094.86         5019.34         5019.34 
       0.110769         4744.89         4689.92         4689.92 
       0.116806         4478.89         4447.75         4447.75 
       0.122832         4269.69         4232.17         4232.17 
       0.129052         3953.04         3999.25         3999.25 
       0.135211         3728.67         3741.79         3741.79 
       0.141259         3551.84         3469.26         3469.26 
       0.147318         3338.33         3196.72         3196.72 
       0.153489         3061.82         2942.79         2942.79 
       0.159709         2906.26         2727.69         2727.69 
       0.165845         2814.52         2560.24         2560.24 
       0.171974         2667.52         2430.97         2430.97 
       0.178125         2545.44         2325.99         2325.99 
       0.184229         2440.06          2231.4          2231.4 
        0.19034         2308.24         2134.54         2134.54 
       0.196428         2259.06         2030.32         2030.32 
       0.202534         2168.66         1919.05         1919.05 
       0.208729         2070.81         1805.07         1805.07 
       0.214876         1987.28         1698.17         1698.17 
       0.220989         1922.64         1603.64         1603.64 
       0.227147         1844.09         1522.81         1522.81 
        0.23329         1776.84         1455.59         1455.59 
       0.239377         1753.86         1398.73         1398.73 
       0.245482         1648.15         1346.95         1346.95 
       0.251667         1639.45         1295.89         1295.89 
       0.257832         1575.48         1243.92         1243.92 
       0.263955         1523.67          1190.8          1190.8 
       0.270079         1473.83         1137.42         1137.42 
        0.27624         1457.04         1085.43         1085.43 
       0.282372         1396.44         1037.31         1037.31 
        0.28843          1391.6         994.403         994.403 
       0.294538         1324.86         955.934         955.934 
       0.300721          1318.2         921.174         921.174 
        0.30691         1267.44         889.266         889.266 
       0.313033         1242.95         859.272         859.272 
       0.319153         1225.45         829.873         829.873 
       0.325316         1184.75          800.46          800.46 
        0.33145         1159.41         771.444         771.444 
       0.337538          1139.6         743.369         743.369 
       0.343633         1115.42         716.515         716.515 
       0.349808         1079.43         691.008         691.008 
       0.355968         1072.14         667.457         667.457 
       0.362074         1062.17          645.85          645.85 
       0.368217         1029.38         625.583         625.583 
       0.374374         991.474         606.328         606.328 
       0.380519         994.112         587.827         587.827 
       0.386598         966.981         570.017         570.017 
       0.392688         963.018         552.568         552.568 
        0.39888          936.29         535.313         535.313 
       0.405048         924.863         518.728         518.728 
       0.411186         912.224         502.938         502.938 
       0.417313         893.554         487.986         487.986 
       0.423458         878.357         473.793         473.793 
       0.429607         867.149         460.324         460.324 
       0.435692         849.678         447.632         447.632 
       0.441815         843.614         435.373         435.373 
       0.447964         825.534         423.474         423.474 
       0.454126           818.5         411.919         411.919 
       0.460267         799.335         400.757         400.757 
       0.466387         789.951         389.983         389.983 
        0.47254         783.846         379.531         379.531 
       0.478662         776.797         369.538         369.538 
       0.484765         755.429         359.988         359.988 
       0.490885         750.775         350.799         350.799 
       0.497035         734.943         341.929         341.929 
       0.503198         730.535         333.381         333.381 
       0.509342         722.576         325.159         325.159 
       0.515458         718.976         317.237         317.237 
       0.521598         701.731         309.525         309.525 
       0.527764         688.144         302.023         302.023 
       0.533884         687.239         294.817         294.817 
           0.54         679.973         287.855         287.855 
       0.546137         674.158         281.102         281.102 
       0.552299         664.964         274.551         274.551 
       0.558452         660.469         268.235         268.235 
       0.564573         651.497         262.163         262.163 
       0.570708         644.655         256.275         256.275 
       0.576825         627.055         250.587         250.587 
       0.582926         630.267         245.084         245.084 
       0.589034         623.847         239.735         239.735 
       0.595184          617.79         234.509         234.509 
       0.601379         609.338         229.404         229.404 
       0.607522         601.197         224.495         224.495 
       0.613639         601.462         219.754         219.754 
       0.619772         587.654         215.144         215.144 
       0.625918         584.761          210.66          210.66 
       0.632068         577.097         206.305         206.305 
       0.638161         575.087         202.114         202.114 
         0.6443         564.624         198.011         198.011 
       0.650464         562.801         194.009         194.009 
       0.656582         558.921         190.148         190.148 
       0.662703         556.243         186.391         186.391 
       0.668861         546.542         182.717         182.717 
       0.675024         542.137         179.139         179.139 
       0.681124         538.776         175.695         175.695 
       0.687237         534.093         172.336         172.336 
       0.693381         527.528          169.05          169.05 
       0.699536         518.976         165.846         165.846 
       0.705665         518.487          162.74          162.74 
       0.711789         515.118         159.718         159.718 
       0.717957         510.232         156.753         156.753 
        0.72409         507.837         153.881         153.881 
       0.730186         500.029         151.099         151.099 
       0.736317         497.066         148.373         148.373 
       0.742472         494.658         145.704         145.704 
       0.748622         488.907         143.105         143.105 
        0.75476         481.836         140.575         140.575 
       0.760888         477.593         138.111         138.111 
       0.767043         477.891         135.697         135.697 
       0.773185         472.708         133.347         133.347 
       0.779291         467.724         131.066         131.066 
       0.785407         464.192         128.836         128.836 
       0.791564         458.931         126.645         126.645 
       0.797719         456.828         124.507         124.507 
       0.803834         452.211         122.432         122.432 
       0.809972         450.769         120.397         120.397 
       0.816124         449.442         118.405         118.405 
       0.822261         442.787         116.464         116.464 
       0.828378         440.269         114.573         114.573 
       0.834502         435.818         112.723         112.723 
       0.840667         432.205         110.902         110.902 
       0.846816         430.125         109.127         109.127 
       0.852925         426.541         107.403         107.403 
       0.859047         425.396         105.713         105.713 
       0.865192         420.004         104.054         104.054 
       0.871341         416.543          102.43          102.43 
       0.877463          415.87         100.849         100.849 
       0.883569         411.719         99.3049         99.3049 
       0.889708         408.947          97.786          97.786 
       0.895864         406.698         96.2955         96.2955 
       0.902008         403.551         94.8395         94.8395 
       0.908149         398.915         93.4149         93.4149 
       0.914301         396.392         92.0176         92.0176 
       0.920448         394.165         90.6505         90.6505 
       0.926574          388.07         89.3164         89.3164 
       0.932687         388.325         88.0122         88.0122 
       0.938823         383.959         86.7298         86.7298 
       0.944975         384.312         85.4703         85.4703 
       0.951105         379.198         84.2406         84.2406 
       0.957225         376.861         83.0375         83.0375 
       0.963368         372.726         81.8541         81.8541 
       0.969511         371.548          80.694          80.694 
       0.975621          368.95         79.5629         79.5629 
       0.981748          367.02         78.4509         78.4509 
       0.987916         364.794         77.3533         77.3533 
        0.99406         358.754          76.281          76.281 
        1.00019          357.56         75.2315         75.2315 
        1.00632         355.879         74.2028         74.2028 
        1.01246         353.005         73.1921         73.1921 
        1.01859         353.107         72.2021         72.2021 
        1.02471         347.985         71.2318         71.2318 
        1.03085         345.978         70.2762         70.2762 
        1.03698         344.913         69.3403         69.3403 
        1.04314         341.527         68.4178         68.4178 
        1.04929         338.153         67.5143         67.5143 
        1.05541         338.757         66.6309         66.6309 
        1.06154         333.134         65.7614         65.7614 
        1.06769         331.766         64.9062         64.9062 
        1.07382         329.615         64.0692         64.0692 
        1.07993         327.505         63.2489         63.2489 
        1.08607         326.556         62.4398         62.4398 
        1.09222         323.279         61.6442         61.6442 
        1.09836         321.256         60.8634         60.8634 
        1.10449         318.097         60.0973         60.0973 
        1.11063         314.883         59.3437         59.3437 
        1.11677         314.969         58.6033         58.6033 
         1.1229         312.813         57.8771         57.8771 
        1.12903         310.402         57.1626         57.1626 
        1.13518         307.485         56.4597         56.4597 
        1.14131          305.99         55.7692         55.7692 
        1.14745         304.181         55.0907         55.0907 
        1.15359         302.171         54.4235         54.4235 
        1.15973         299.994         53.7672         53.7672 
        1.16584         297.841         53.1248         53.1248 
        1.17197         297.364          52.492          52.492 
        1.17811         293.858         51.8677         51.8677 
        1.18424         291.575         51.2555         51.2555 
        1.19038          290.45         50.6516         50.6516 
        1.19652          288.19         50.0576         50.0576 
        1.20267         287.298         49.4733         49.4733 
        1.20881         285.207         48.8986         48.8986 
        1.21495         282.821          48.334          48.334 
        1.22108         281.204         47.7784         47.7784 
         1.2272         279.365          47.233          47.233 
        1.23334         277.583          46.695          46.695 
        1.23949          275.77         46.1641         46.1641 
        1.24562         274.465          45.643          45.643 
        1.25174         272.122         45.1309         45.1309 
        1.25789         269.759         44.6251         44.6251 
        1.26402          268.01          44.128          44.128 
        1.27014         266.283         43.6398         43.6398 
        1.27628         264.734         43.1576         43.1576 
        1.28244         264.194         42.6818         42.6818 
        1.28858         261.458         42.2138         42.2138 
        1.29471         259.619          41.754          41.754 
        1.30084         258.083         41.3014         41.3014 
        1.30697         256.533          40.855          40.855 
        1.31312         253.894         40.4146         40.4146 
        1.31925         253.304         39.9821         39.9821 
        1.32537         252.081         39.5564         39.5564 
        1.33151         249.508         39.1354         39.1354 
        1.33765         247.739         38.7209         38.7209 
        1.34378         246.894         38.3133         38.3133 
        1.34992          245.25         37.9113         37.9113 
        1.35606         244.508         37.5142         37.5142 
         1.3622         242.291         37.1236         37.1236 
        1.36833         240.263         36.7395         36.7395 
        1.37445         239.083         36.3612         36.3612 
        1.38059          236.92          35.987          35.987 
        1.38675         236.024         35.6173         35.6173 
        1.39288         234.409         35.2542         35.2542 
        1.39901         233.621         34.8964         34.8964 
        1.40515         231.605         34.5429         34.5429 
         1.4113         230.294         34.1944         34.1944 
        1.41742         228.476         33.8521         33.8521 
        1.42355         227.291         33.5138         33.5138 
         1.4297         225.363         33.1793         33.1793 
        1.43585         224.224         32.8494         32.8494 
        1.44198         222.991         32.5254         32.5254 
        1.44809          221.61         32.2063         32.2063 
        1.45423         220.126         31.8904         31.8904 
        1.46036         218.935         31.5794         31.5794 
        1.46649         217.071         31.2724         31.2724 
        1.47263         215.868         30.9693         30.9693 
        1.47877         214.465         30.6703         30.6703 
        1.48491         212.569         30.3749         30.3749 
        1.49104         211.924         30.0841         30.0841 
        1.49718         210.011         29.7968         29.7968 
        1.50333         209.227         29.5129         29.5129 
        1.50947         207.783         29.2333         29.2333 
         1.5156         205.829         28.9578         28.9578 
        1.52172         205.015         28.6858         28.6858 
        1.52787         203.462         28.4168         28.4168 
          1.534         202.719         28.1516         28.1516 
        1.54013         200.956         27.8901         27.8901 
        1.54627         199.926         27.6314         27.6314 
        1.55241         198.636         27.3761         27.3761 
        1.55855         197.202         27.1243         27.1243 
        1.56467         195.927         26.8764         26.8764 
         1.5708         195.366         26.6309         26.6309 
        1.57695         193.753         26.3881         26.3881 
        1.58308         192.605          26.149          26.149 
        1.58922          190.81         25.9127         25.9127 
        1.59535         189.394         25.6794         25.6794 
         1.6015         188.954         25.4486         25.4486 
        1.60764         187.573         25.2209         25.2209 
        1.61376         186.425         24.9966         24.9966 
        1.61989         185.339         24.7748         24.7748 
        1.62604          184.07         24.5553         24.5553 
        1.63218         182.991         24.3385         24.3385 
        1.63831         181.626         24.1249         24.1249 
        1.64444         180.827         23.9138         23.9138 
        1.65059         179.534         23.7048         23.7048 
        1.65673         178.308         23.4985         23.4985 
        1.66285         177.153         23.2953         23.2953 
        1.66898         175.988         23.0944         23.0944 
        1.67512         175.608         22.8955         22.8955 
        1.68127         173.592         22.6987         22.6987 
         1.6874         172.792         22.5048         22.5048 
        1.69353         171.755         22.3132         22.3132 
        1.69967         170.259         22.1235         22.1235 
        1.70581          169.65          21.936          21.936 
        1.71193         168.161         21.7514         21.7514 
        1.71806         167.684         21.5686         21.5686 
        1.72421         166.332         21.3875         21.3875 
        1.73035         165.538         21.2088         21.2088 
        1.73649          164.55         21.0321         21.0321 
        1.74262         163.363         20.8576         20.8576 
        1.74876         162.324         20.6849         20.6849 
        1.75489         161.313         20.5146         20.5146 
        1.76101         160.011         20.3463         20.3463 
        1.76715         159.571         20.1797         20.1797 
        1.77329         158.561         20.0147         20.0147 
        1.77943         157.608         19.8515         19.8515 
        1.78557         156.582         19.6904         19.6904 
        1.79171         155.734         19.5311         19.5311 
        1.79785         154.411         19.3735         19.3735 
        1.80399          153.58         19.2177         19.2177 
        1.81012         152.597         19.0638         19.0638 
        1.81625         151.969         18.9117         18.9117 
        1.82239         150.736          18.761          18.761 
        1.82853         150.278         18.6121         18.6121 
        1.83466         148.949         18.4649         18.4649 
        1.84078         148.347         18.3195         18.3195 
        1.84692         146.816         18.1754         18.1754 
        1.85306         146.532         18.0328         18.0328 
         1.8592         145.423         17.8918         17.8918 
        1.86533         144.597         17.7525         17.7525 
        1.87147          143.52         17.6145         17.6145 
        1.87761         142.778         17.4779         17.4779 
