# k  (h/Mpc)    P(k)  (Mpc/h)^3    P_linear(k)  (Mpc/h)^3     P_NL(k)  ShotnoiseSubtracted = false
     0.00783031         15546.3         15802.6         15802.6 
       0.013688         20301.4         20137.2         20137.2 
       0.019231         20786.4         20793.9         20793.9 
      0.0249154         19118.1         19598.6         19598.6 
      0.0312784         17098.9         17370.3         17370.3 
      0.0375637         15076.3         15159.6         15159.6 
      0.0433917         13141.8         13487.8         13487.8 
      0.0492413         12054.3         12241.4         12241.4 
      0.0555754         10799.3         11264.3         11264.3 
      0.0619321         10381.4         10477.1         10477.1 
       0.067871         9371.75          9759.4          9759.4 
      0.0738098         8627.84         8980.88         8980.88 
      0.0800417         7691.48         8103.28         8103.28 
      0.0862327         6980.58         7237.11         7237.11 
      0.0921407         6398.03          6492.2          6492.2 
      0.0982031         5760.18         5864.21         5864.21 
       0.104506         5449.64         5372.19         5372.19 
       0.110769         5075.71         5019.64         5019.64 
       0.116806         4793.67         4760.45         4760.45 
       0.122832         4567.77         4529.73         4529.73 
       0.129052         4227.47         4280.44         4280.44 
       0.135211         3988.33         4004.89         4004.89 
       0.141259         3803.36         3713.21         3713.21 
       0.147318         3577.93         3421.51         3421.51 
       0.153489         3282.49         3149.73         3149.73 
       0.159709         3117.49          2919.5          2919.5 
       0.165845         3023.32         2740.28         2740.28 
       0.171974         2866.35         2601.92         2601.92 
       0.178125         2735.12         2489.56         2489.56 
       0.184229         2619.64         2388.32         2388.32 
        0.19034         2483.62         2284.65         2284.65 
       0.196428         2429.93          2173.1          2173.1 
       0.202534          2331.3         2054.01         2054.01 
       0.208729         2229.11         1932.02         1932.02 
       0.214876         2143.32          1817.6          1817.6 
       0.220989         2073.44         1716.42         1716.42 
       0.227147         1991.31         1629.91         1629.91 
        0.23329         1919.16         1557.96         1557.96 
       0.239377         1895.91          1497.1          1497.1 
       0.245482         1783.38         1441.68         1441.68 
       0.251667         1774.37         1387.03         1387.03 
       0.257832         1705.16          1331.4          1331.4 
       0.263955         1649.15         1274.55         1274.55 
       0.270079         1596.12         1217.42         1217.42 
        0.27624         1577.46         1161.77         1161.77 
       0.282372          1512.7         1110.26         1110.26 
        0.28843         1510.54         1064.34         1064.34 
       0.294538         1439.18         1023.17         1023.17 
       0.300721         1430.85         985.962         985.962 
        0.30691         1377.96          951.81          951.81 
       0.313033         1350.77         919.707         919.707 
       0.319153         1334.43          888.24          888.24 
       0.325316          1289.7         856.758         856.758 
        0.33145         1263.12         825.701         825.701 
       0.337538         1240.62         795.652         795.652 
       0.343633         1216.39         766.909         766.909 
       0.349808            1178         739.609         739.609 
       0.355968         1169.38         714.402         714.402 
       0.362074         1159.64         691.274         691.274 
       0.368217         1123.25         669.582         669.582 
       0.374374         1083.84         648.973         648.973 
       0.380519          1087.5         629.171         629.171 
       0.386598         1057.19         610.108         610.108 
       0.392688         1052.29         591.432         591.432 
        0.39888         1023.93         572.964         572.964 
       0.405048         1012.77         555.212         555.212 
       0.411186         998.845         538.312         538.312 
       0.417313         978.362         522.308         522.308 
       0.423458          961.72         507.117         507.117 
       0.429607         950.267         492.701         492.701 
       0.435692         932.019         479.116         479.116 
       0.441815         925.161         465.994         465.994 
       0.447964         905.568         453.259         453.259 
       0.454126         899.523         440.891         440.891 
       0.460267         877.906         428.944         428.944 
       0.466387         866.814         417.413         417.413 
        0.47254         862.937         406.225         406.225 
       0.478662         853.291          395.53          395.53 
       0.484765         831.068         385.307         385.307 
       0.490885         826.222         375.472         375.472 
       0.497035         808.392         365.979         365.979 
       0.503198         804.251          356.83          356.83 
       0.509342         794.976         348.029         348.029 
       0.515458         791.619          339.55          339.55 
       0.521598         772.962         331.296         331.296 
       0.527764         758.256         323.266         323.266 
       0.533884         757.239         315.553         315.553 
           0.54         750.234         308.102         308.102 
       0.546137         742.285         300.874         300.874 
       0.552299         733.621         293.862         293.862 
       0.558452         727.776         287.101         287.101 
       0.564573         718.324         280.602         280.602 
       0.570708         711.139           274.3           274.3 
       0.576825         692.095         268.212         268.212 
       0.582926         696.042         262.322         262.322 
       0.589034         688.591         256.597         256.597 
       0.595184         682.014         251.003         251.003 
       0.601379         672.904         245.539         245.539 
       0.607522         663.735         240.284         240.284 
       0.613639         664.306         235.211         235.211 
       0.619772         650.002         230.276         230.276 
       0.625918         645.826         225.477         225.477 
       0.632068         638.006         220.816         220.816 
       0.638161         635.646          216.33          216.33 
         0.6443         624.485         211.938         211.938 
       0.650464         623.026         207.655         207.655 
       0.656582         618.076         203.522         203.522 
       0.662703         615.302         199.501         199.501 
       0.668861         604.763         195.568         195.568 
       0.675024         599.699         191.739         191.739 
       0.681124         596.276         188.053         188.053 
       0.687237         591.346         184.457         184.457 
       0.693381         584.268          180.94          180.94 
       0.699536         574.061         177.511         177.511 
       0.705665         574.245         174.186         174.186 
       0.711789         570.418         170.951         170.951 
       0.717957         565.096         167.778         167.778 
        0.72409         562.634         164.704         164.704 
       0.730186         553.698         161.727         161.727 
       0.736317         550.969         158.809         158.809 
       0.742472         547.901         155.952         155.952 
       0.748622           541.8          153.17          153.17 
        0.75476         533.544         150.462         150.462 
       0.760888         529.485         147.825         147.825 
       0.767043         528.957         145.241         145.241 
       0.773185         523.859         142.726         142.726 
       0.779291         518.837         140.285         140.285 
       0.785407         514.143         137.898         137.898 
       0.791564         508.856         135.553         135.553 
       0.797719         506.833         133.264         133.264 
       0.803834         501.399         131.043         131.043 
       0.809972         499.607         128.865         128.865 
       0.816124         498.136         126.733         126.733 
       0.822261         490.688         124.656         124.656 
       0.828378         487.944         122.632         122.632 
       0.834502          482.92         120.652         120.652 
       0.840667         479.201         118.703         118.703 
       0.846816         476.618         116.803         116.803 
       0.852925         472.821         114.957         114.957 
       0.859047         471.879         113.148         113.148 
       0.865192         465.544         111.373         111.373 
       0.871341         461.606         109.635         109.635 
       0.877463         461.362         107.942         107.942 
       0.883569         456.162          106.29          106.29 
       0.889708         453.708         104.664         104.664 
       0.895864          451.71         103.068         103.068 
       0.902008         447.977          101.51          101.51 
       0.908149         441.985         99.9853         99.9853 
       0.914301         440.096         98.4897         98.4897 
       0.920448         437.838         97.0265         97.0265 
       0.926574         430.482         95.5985         95.5985 
       0.932687         430.347         94.2026         94.2026 
       0.938823         425.811           92.83           92.83 
       0.944975         426.275         91.4819         91.4819 
       0.951105         420.629         90.1657         90.1657 
       0.957225         417.916          88.878          88.878 
       0.963368         413.604         87.6114         87.6114 
       0.969511         412.367         86.3697         86.3697 
       0.975621         409.752         85.1591         85.1591 
       0.981748         406.855         83.9688         83.9688 
       0.987916         404.593          82.794          82.794 
        0.99406          398.06         81.6463         81.6463 
        1.00019         396.465          80.523          80.523 
        1.00632         394.754          79.422          79.422 
        1.01246         391.686         78.3402         78.3402 
        1.01859         391.269         77.2805         77.2805 
        1.02471         386.007          76.242          76.242 
        1.03085         384.089         75.2191         75.2191 
        1.03698         382.607         74.2175         74.2175 
        1.04314         379.002           73.23           73.23 
        1.04929         374.814          72.263          72.263 
        1.05541         375.758         71.3175         71.3175 
        1.06154         369.742         70.3868         70.3868 
        1.06769         367.776         69.4714         69.4714 
        1.07382         365.308         68.5755         68.5755 
        1.07993         363.223         67.6976         67.6976 
        1.08607         362.176         66.8316         66.8316 
        1.09222         358.231           65.98           65.98 
        1.09836         356.118         65.1443         65.1443 
        1.10449         352.936         64.3243         64.3243 
        1.11063         348.806         63.5176         63.5176 
        1.11677         349.571         62.7252         62.7252 
         1.1229         347.012         61.9479         61.9479 
        1.12903         344.349         61.1832         61.1832 
        1.13518         340.641         60.4309         60.4309 
        1.14131         339.363         59.6918         59.6918 
        1.14745         336.777         58.9655         58.9655 
        1.15359         334.994         58.2514         58.2514 
        1.15973         332.568          57.549          57.549 
        1.16584         330.175         56.8613         56.8613 
        1.17197          329.33         56.1841         56.1841 
        1.17811         325.701         55.5159         55.5159 
        1.18424         322.967         54.8607         54.8607 
        1.19038         321.513         54.2142         54.2142 
        1.19652          319.53         53.5785         53.5785 
        1.20267         318.035         52.9531         52.9531 
        1.20881         316.046         52.3379         52.3379 
        1.21495         313.321         51.7336         51.7336 
        1.22108          311.51          51.139          51.139 
         1.2272         309.367         50.5552         50.5552 
        1.23334         307.417         49.9793         49.9793 
        1.23949         305.114         49.4111         49.4111 
        1.24562          303.81         48.8534         48.8534 
        1.25174          301.47         48.3052         48.3052 
        1.25789         298.468         47.7638         47.7638 
        1.26402         296.709         47.2318         47.2318 
        1.27014         294.806         46.7093         46.7093 
        1.27628         292.837         46.1931         46.1931 
        1.28244         292.597         45.6838         45.6838 
        1.28858         289.438          45.183          45.183 
        1.29471         287.758         44.6908         44.6908 
        1.30084         285.729         44.2064         44.2064 
        1.30697         284.183         43.7286         43.7286 
        1.31312         281.119         43.2572         43.2572 
        1.31925         280.207         42.7943         42.7943 
        1.32537         279.031         42.3386         42.3386 
        1.33151         276.108         41.8881         41.8881 
        1.33765         274.147         41.4444         41.4444 
        1.34378         273.262         41.0081         41.0081 
        1.34992         271.376         40.5778         40.5778 
        1.35606          270.01         40.1528         40.1528 
         1.3622         267.793         39.7347         39.7347 
        1.36833         266.023         39.3237         39.3237 
        1.37445         264.306         38.9187         38.9187 
        1.38059         261.983         38.5182         38.5182 
        1.38675         260.802         38.1224         38.1224 
        1.39288         259.201         37.7339         37.7339 
        1.39901         258.053         37.3509         37.3509 
        1.40515         256.118         36.9725         36.9725 
         1.4113         254.665         36.5995         36.5995 
        1.41742         252.512         36.2331         36.2331 
        1.42355         251.246         35.8711         35.8711 
         1.4297         249.242          35.513          35.513 
        1.43585         247.997         35.1599         35.1599 
        1.44198         246.632         34.8131         34.8131 
        1.44809         244.459         34.4716         34.4716 
        1.45423             243         34.1335         34.1335 
        1.46036         241.781         33.8005         33.8005 
        1.46649         239.854         33.4719         33.4719 
        1.47263         238.687         33.1475         33.1475 
        1.47877         236.805         32.8276         32.8276 
        1.48491         234.649         32.5114         32.5114 
        1.49104         234.032         32.2001         32.2001 
        1.49718         232.126         31.8926         31.8926 
        1.50333         231.074         31.5887         31.5887 
        1.50947         229.469         31.2895         31.2895 
         1.5156         227.367         30.9945         30.9945 
        1.52172         226.545         30.7034         30.7034 
        1.52787         224.833         30.4155         30.4155 
          1.534         223.869         30.1317         30.1317 
        1.54013         221.765         29.8518         29.8518 
        1.54627         220.764         29.5749         29.5749 
        1.55241         219.494         29.3016         29.3016 
        1.55855         217.626         29.0321         29.0321 
        1.56467         216.559         28.7668         28.7668 
         1.5708          215.68          28.504          28.504 
        1.57695         213.832         28.2442         28.2442 
        1.58308         212.614         27.9882         27.9882 
        1.58922         210.305         27.7353         27.7353 
        1.59535         209.125         27.4856         27.4856 
         1.6015         208.438         27.2386         27.2386 
        1.60764         206.988         26.9948         26.9948 
        1.61376          205.89         26.7547         26.7547 
        1.61989         204.501         26.5174         26.5174 
        1.62604         202.975         26.2824         26.2824 
        1.63218         201.899         26.0504         26.0504 
        1.63831         200.383         25.8218         25.8218 
        1.64444         199.468         25.5959         25.5959 
        1.65059         198.319         25.3721         25.3721 
        1.65673         196.886         25.1513         25.1513 
        1.66285         195.301         24.9338         24.9338 
        1.66898         194.204         24.7187         24.7187 
        1.67512         193.572         24.5058         24.5058 
        1.68127         191.401         24.2953         24.2953 
         1.6874         190.546         24.0877         24.0877 
        1.69353         189.395         23.8826         23.8826 
        1.69967         187.847         23.6795         23.6795 
        1.70581         187.157         23.4789         23.4789 
        1.71193          185.48         23.2813         23.2813 
        1.71806         184.904         23.0856         23.0856 
        1.72421         183.427         22.8918         22.8918 
        1.73035         182.569         22.7005         22.7005 
        1.73649         181.413         22.5114         22.5114 
        1.74262         180.136         22.3246         22.3246 
        1.74876         178.788         22.1398         22.1398 
        1.75489           177.9         21.9576         21.9576 
        1.76101         176.473         21.7774         21.7774 
        1.76715         175.794          21.599          21.599 
        1.77329         174.713         21.4225         21.4225 
        1.77943         173.729         21.2478         21.2478 
        1.78557         172.366         21.0754         21.0754 
        1.79171         171.616         20.9048         20.9048 
        1.79785         170.017         20.7361         20.7361 
        1.80399         169.211         20.5694         20.5694 
        1.81012         168.181         20.4047         20.4047 
        1.81625         167.328         20.2419         20.2419 
        1.82239         165.994         20.0806         20.0806 
        1.82853          165.58         19.9212         19.9212 
        1.83466         164.127         19.7637         19.7637 
        1.84078         163.306          19.608          19.608 
        1.84692         161.857         19.4538         19.4538 
        1.85306         161.248         19.3011         19.3011 
         1.8592         160.109         19.1503         19.1503 
        1.86533         159.401         19.0011         19.0011 
        1.87147         158.198         18.8534         18.8534 
        1.87761         157.246         18.7072         18.7072 
