# k  (h/Mpc)    P(k)  (Mpc/h)^3    P_linear(k)  (Mpc/h)^3     P_NL(k)  ShotnoiseSubtracted = false
     0.00783031         105.688         106.619         106.619 
       0.013688         134.376         134.946         134.946 
       0.019231         138.993         139.151         139.151 
      0.0249154         130.691         131.084         131.084 
      0.0312784         116.129         116.152         116.152 
      0.0375637         101.513         101.358         101.358 
      0.0433917         90.2165         90.1749         90.1749 
      0.0492413         81.9246         81.8388         81.8388 
      0.0555754         75.2486         75.3042         75.3042 
      0.0619321         70.1413         70.0403         70.0403 
       0.067871         65.1728         65.2419         65.2419 
      0.0738098           59.95         60.0371         60.0371 
      0.0800417         54.0606         54.1701         54.1701 
      0.0862327         48.3487         48.3796         48.3796 
      0.0921407         43.4092         43.3999         43.3999 
      0.0982031          39.183         39.2018         39.2018 
       0.104506         35.9764         35.9126         35.9126 
       0.110769         33.5903         33.5557         33.5557 
       0.116806         31.7773          31.823          31.823 
       0.122832         30.2769         30.2806         30.2806 
       0.129052          28.558         28.6141         28.6141 
       0.135211          26.707         26.7721         26.7721 
       0.141259         24.8049         24.8222         24.8222 
       0.147318         22.8981         22.8723         22.8723 
       0.153489         21.0596         21.0555         21.0555 
       0.159709         19.5216         19.5165         19.5165 
       0.165845         18.3755         18.3184         18.3184 
       0.171974         17.3858         17.3935         17.3935 
       0.178125         16.6395         16.6423         16.6423 
       0.184229         15.9792         15.9656         15.9656 
        0.19034         15.2365         15.2725         15.2725 
       0.196428         14.5197         14.5268         14.5268 
       0.202534         13.7687         13.7307         13.7307 
       0.208729         12.9272         12.9152         12.9152 
       0.214876         12.1383         12.1504         12.1504 
       0.220989         11.5139          11.474          11.474 
       0.227147         10.8876         10.8957         10.8957 
        0.23329         10.4071         10.4148         10.4148 
       0.239377         10.0042         10.0079         10.0079 
       0.245482         9.62191         9.63743         9.63743 
       0.251667         9.28206         9.27207         9.27207 
       0.257832         8.89791          8.9002          8.9002 
       0.263955         8.52501          8.5202          8.5202 
       0.270079         8.14845         8.13824         8.13824 
        0.27624         7.79726         7.76626         7.76626 
       0.282372         7.45146         7.42194         7.42194 
        0.28843         7.12707         7.11496         7.11496 
       0.294538         6.85328         6.83971         6.83971 
       0.300721         6.62053           6.591           6.591 
        0.30691         6.37394          6.3627          6.3627 
       0.313033         6.16151         6.14809         6.14809 
       0.319153         5.92319         5.93774         5.93774 
       0.325316         5.75348         5.72729         5.72729 
        0.33145         5.54014         5.51968         5.51968 
       0.337538         5.33744         5.31881         5.31881 
       0.343633         5.13844         5.12667         5.12667 
       0.349808         4.96361         4.94417         4.94417 
       0.355968         4.79774         4.77566         4.77566 
       0.362074         4.63837         4.62106         4.62106 
       0.368217         4.49429         4.47605         4.47605 
       0.374374         4.34411         4.33829         4.33829 
       0.380519         4.22362         4.20591         4.20591 
       0.386598         4.09983         4.07848         4.07848 
       0.392688         3.98097         3.95363         3.95363 
        0.39888         3.85205         3.83017         3.83017 
       0.405048         3.73542         3.71151         3.71151 
       0.411186         3.62505         3.59853         3.59853 
       0.417313         3.51104         3.49155         3.49155 
       0.423458         3.41619            3.39            3.39 
       0.429607         3.31233         3.29363         3.29363 
       0.435692         3.22145         3.20281         3.20281 
       0.441815          3.1351          3.1151          3.1151 
       0.447964         3.05923         3.02996         3.02996 
       0.454126         2.96609         2.94729         2.94729 
       0.460267          2.8851         2.86742         2.86742 
       0.466387         2.80532         2.79034         2.79034 
        0.47254         2.73336         2.71555         2.71555 
       0.478662         2.66482         2.64405         2.64405 
       0.484765         2.59257         2.57572         2.57572 
       0.490885         2.52836         2.50997         2.50997 
       0.497035         2.47453         2.44651         2.44651 
       0.503198         2.40785         2.38535         2.38535 
       0.509342         2.35261         2.32652         2.32652 
       0.515458         2.29086         2.26984         2.26984 
       0.521598         2.23679         2.21466         2.21466 
       0.527764         2.17858         2.16098         2.16098 
       0.533884         2.13464         2.10942         2.10942 
           0.54         2.08257         2.05961         2.05961 
       0.546137         2.03653         2.01129         2.01129 
       0.552299         1.98827         1.96442         1.96442 
       0.558452         1.93868         1.91923         1.91923 
       0.564573         1.89846         1.87578         1.87578 
       0.570708         1.85647         1.83365         1.83365 
       0.576825         1.81339         1.79296         1.79296 
       0.582926         1.77805         1.75358         1.75358 
       0.589034         1.73099         1.71531         1.71531 
       0.595184         1.69586         1.67792         1.67792 
       0.601379          1.6598         1.64139         1.64139 
       0.607522         1.62826         1.60626         1.60626 
       0.613639         1.59814         1.57235         1.57235 
       0.619772         1.55867         1.53936         1.53936 
       0.625918         1.52838         1.50728         1.50728 
       0.632068         1.50005         1.47612         1.47612 
       0.638161         1.46719         1.44613         1.44613 
         0.6443         1.43767         1.41678         1.41678 
       0.650464         1.40586         1.38814         1.38814 
       0.656582         1.38117         1.36051         1.36051 
       0.662703         1.35464         1.33364         1.33364 
       0.668861          1.3317         1.30734         1.30734 
       0.675024         1.30288         1.28175         1.28175 
       0.681124         1.27508          1.2571          1.2571 
       0.687237         1.25463         1.23307         1.23307 
       0.693381         1.23178         1.20956         1.20956 
       0.699536           1.203         1.18663         1.18663 
       0.705665         1.18201         1.16441         1.16441 
       0.711789         1.16285         1.14278         1.14278 
       0.717957         1.13928         1.12157         1.12157 
        0.72409         1.11984         1.10102         1.10102 
       0.730186         1.09871         1.08112         1.08112 
       0.736317         1.08324         1.06161         1.06161 
       0.742472          1.0629         1.04252         1.04252 
       0.748622           1.043         1.02392         1.02392 
        0.75476         1.02265         1.00582         1.00582 
       0.760888          1.0045        0.988188        0.988188 
       0.767043        0.992565        0.970917        0.970917 
       0.773185        0.972271          0.9541          0.9541 
       0.779291        0.956126        0.937783        0.937783 
       0.785407        0.940458        0.921829        0.921829 
       0.791564        0.925131         0.90615         0.90615 
       0.797719        0.910976        0.890849        0.890849 
       0.803834        0.896213        0.876002        0.876002 
       0.809972        0.880623        0.861446        0.861446 
       0.816124        0.865467        0.847193        0.847193 
       0.822261        0.850328        0.833305        0.833305 
       0.828378         0.83857        0.819775        0.819775 
       0.834502        0.826431        0.806537        0.806537 
       0.840667         0.81053         0.79351         0.79351 
       0.846816        0.798158        0.780811        0.780811 
       0.852925        0.788247        0.768473        0.768473 
       0.859047        0.775699         0.75638         0.75638 
       0.865192        0.762342         0.74451         0.74451 
       0.871341        0.750366         0.73289         0.73289 
       0.877463        0.741607        0.721575        0.721575 
       0.883569        0.728586         0.71053         0.71053 
       0.889708        0.717595        0.699662        0.699662 
       0.895864        0.706741        0.688997        0.688997 
       0.902008        0.695618         0.67858         0.67858 
       0.908149        0.685227        0.668387        0.668387 
       0.914301        0.672933        0.658389        0.658389 
       0.920448        0.664348        0.648608        0.648608 
       0.926574        0.654479        0.639062        0.639062 
       0.932687        0.644759        0.629731        0.629731 
       0.938823        0.637901        0.620555        0.620555 
       0.944975        0.628024        0.611543        0.611543 
       0.951105        0.619591        0.602744        0.602744 
       0.957225        0.612079        0.594136        0.594136 
       0.963368        0.602769        0.585669        0.585669 
       0.969511        0.593189        0.577369        0.577369 
       0.975621        0.584529        0.569276        0.569276 
       0.981748        0.578644        0.561319        0.561319 
       0.987916        0.570021        0.553465        0.553465 
        0.99406        0.561684        0.545794        0.545794 
        1.00019         0.55534        0.538284        0.538284 
        1.00632        0.545955        0.530924        0.530924 
        1.01246        0.538671        0.523692        0.523692 
        1.01859        0.532536        0.516609        0.516609 
        1.02471        0.524991        0.509666        0.509666 
        1.03085        0.519742        0.502829        0.502829 
        1.03698        0.511621        0.496133        0.496133 
        1.04314        0.505315        0.489532        0.489532 
        1.04929        0.498094        0.483067        0.483067 
        1.05541        0.492765        0.476747        0.476747 
        1.06154        0.485506        0.470525        0.470525 
        1.06769        0.478802        0.464406        0.464406 
        1.07382        0.473318        0.458417        0.458417 
        1.07993        0.466543        0.452548        0.452548 
        1.08607         0.46257        0.446759        0.446759 
        1.09222        0.455595        0.441066        0.441066 
        1.09836        0.451386         0.43548         0.43548 
        1.10449        0.445581        0.429998        0.429998 
        1.11063        0.438867        0.424606        0.424606 
        1.11677        0.433021        0.419309        0.419309 
         1.1229        0.428661        0.414112        0.414112 
        1.12903        0.422874           0.409           0.409 
        1.13518        0.418504        0.403971        0.403971 
        1.14131        0.412918        0.399031        0.399031 
        1.14745        0.406427        0.394176        0.394176 
        1.15359        0.402908        0.389402        0.389402 
        1.15973        0.397117        0.384706        0.384706 
        1.16584        0.394051         0.38011         0.38011 
        1.17197        0.389016        0.375582        0.375582 
        1.17811        0.385001        0.371116        0.371116 
        1.18424         0.38127        0.366735        0.366735 
        1.19038        0.375813        0.362414        0.362414 
        1.19652         0.37054        0.358164        0.358164 
        1.20267        0.367776        0.353984        0.353984 
        1.20881        0.363038        0.349871        0.349871 
        1.21495        0.359786        0.345831        0.345831 
        1.22108        0.355192        0.341856        0.341856 
         1.2272         0.35169        0.337954        0.337954 
        1.23334        0.347288        0.334104        0.334104 
        1.23949        0.343502        0.330306        0.330306 
        1.24562        0.339711        0.326578        0.326578 
        1.25174         0.33622        0.322913        0.322913 
        1.25789        0.333024        0.319294        0.319294 
        1.26402        0.328187        0.315738        0.315738 
        1.27014        0.325023        0.312245        0.312245 
        1.27628         0.32208        0.308794        0.308794 
        1.28244        0.317469         0.30539         0.30539 
        1.28858        0.314674        0.302041        0.302041 
        1.29471        0.312144        0.298751        0.298751 
        1.30084        0.308017        0.295513        0.295513 
        1.30697        0.304828        0.292319        0.292319 
        1.31312        0.300652        0.289168        0.289168 
        1.31925        0.298009        0.286073        0.286073 
        1.32537         0.29535        0.283028        0.283028 
        1.33151         0.29262        0.280016        0.280016 
        1.33765        0.289469         0.27705         0.27705 
        1.34378        0.285851        0.274133        0.274133 
        1.34992        0.283239        0.271257        0.271257 
        1.35606        0.280354        0.268416        0.268416 
         1.3622        0.277539        0.265621        0.265621 
        1.36833        0.274518        0.262873        0.262873 
        1.37445         0.27109        0.260166        0.260166 
        1.38059        0.268646        0.257489        0.257489 
        1.38675        0.267218        0.254843        0.254843 
        1.39288        0.263969        0.252245        0.252245 
        1.39901        0.261343        0.249686        0.249686 
        1.40515        0.259115        0.247156        0.247156 
         1.4113        0.255829        0.244662        0.244662 
        1.41742         0.25342        0.242213        0.242213 
        1.42355        0.251623        0.239793        0.239793 
         1.4297         0.24856        0.237399        0.237399 
        1.43585        0.246426        0.235039        0.235039 
        1.44198        0.244484         0.23272         0.23272 
        1.44809        0.241597        0.230438        0.230438 
        1.45423        0.239567        0.228177        0.228177 
        1.46036        0.237064        0.225952        0.225952 
        1.46649        0.235383        0.223755        0.223755 
        1.47263         0.23285        0.221586        0.221586 
        1.47877        0.230058        0.219448        0.219448 
        1.48491        0.228407        0.217334        0.217334 
        1.49104        0.225621        0.215253        0.215253 
        1.49718        0.223679        0.213198        0.213198 
        1.50333        0.222204        0.211166        0.211166 
        1.50947        0.219803        0.209166        0.209166 
         1.5156        0.217665        0.207194        0.207194 
        1.52172         0.21587        0.205248        0.205248 
        1.52787        0.213816        0.203323        0.203323 
          1.534        0.211617        0.201426        0.201426 
        1.54013        0.209681        0.199555        0.199555 
        1.54627        0.208229        0.197704        0.197704 
        1.55241        0.205882        0.195877        0.195877 
        1.55855         0.20385        0.194075        0.194075 
        1.56467        0.202971        0.192302        0.192302 
         1.5708        0.200724        0.190545        0.190545 
        1.57695        0.198901        0.188808        0.188808 
        1.58308         0.19705        0.187097        0.187097 
        1.58922         0.19545        0.185406        0.185406 
        1.59535        0.193646        0.183737        0.183737 
         1.6015        0.191778        0.182086        0.182086 
        1.60764        0.190371        0.180457        0.180457 
        1.61376        0.188285        0.178852        0.178852 
        1.61989        0.186948        0.177265        0.177265 
        1.62604        0.185518        0.175694        0.175694 
        1.63218        0.183875        0.174143        0.174143 
        1.63831        0.182335        0.172615        0.172615 
        1.64444        0.180762        0.171105        0.171105 
        1.65059        0.179286        0.169609        0.169609 
        1.65673        0.177762        0.168133        0.168133 
        1.66285        0.176496        0.166679        0.166679 
        1.66898        0.174885        0.165241        0.165241 
        1.67512        0.173127        0.163818        0.163818 
        1.68127        0.171568        0.162411        0.162411 
         1.6874        0.170573        0.161023        0.161023 
        1.69353         0.16871        0.159652        0.159652 
        1.69967        0.167887        0.158294        0.158294 
        1.70581        0.165892        0.156953        0.156953 
        1.71193        0.164753        0.155632        0.155632 
        1.71806        0.163152        0.154324        0.154324 
        1.72421        0.162348        0.153029        0.153029 
        1.73035        0.160704         0.15175         0.15175 
        1.73649         0.15964        0.150486        0.150486 
        1.74262        0.158236        0.149237        0.149237 
        1.74876        0.156913        0.148002        0.148002 
        1.75489        0.155898        0.146783        0.146783 
        1.76101        0.154319        0.145579        0.145579 
        1.76715        0.153119        0.144387        0.144387 
        1.77329        0.151679        0.143206        0.143206 
        1.77943        0.150627        0.142039        0.142039 
        1.78557        0.149744        0.140886        0.140886 
        1.79171        0.148498        0.139746        0.139746 
        1.79785        0.147327        0.138618        0.138618 
        1.80399          0.1461        0.137503        0.137503 
        1.81012        0.145104        0.136403        0.136403 
        1.81625        0.143825        0.135314        0.135314 
        1.82239        0.142726        0.134236        0.134236 
        1.82853        0.141534        0.133171        0.133171 
        1.83466        0.140571        0.132118        0.132118 
        1.84078         0.13943        0.131077        0.131077 
        1.84692        0.138241        0.130046        0.130046 
        1.85306        0.137484        0.129025        0.129025 
         1.8592        0.136133        0.128017        0.128017 
        1.86533        0.135334         0.12702         0.12702 
        1.87147        0.134228        0.126033        0.126033 
        1.87761        0.133424        0.125055        0.125055 
