# k  (h/Mpc)    Pcb(k)  (Mpc/h)^3    Pcb_linear(k) (Mpc/h)^3    Pcb_NL(k) (Mpc/h)^3   ShotnoiseSubtracted = false
     0.00783031         7512.73         7607.97         7607.97 
       0.013688         9671.36         9620.58         9620.58 
       0.019231         9928.15         9916.63         9916.63 
      0.0249154         9201.24         9339.84         9339.84 
      0.0312784          8215.8         8274.79         8274.79 
      0.0375637         7221.81         7220.27         7220.27 
      0.0433917         6340.57         6423.33         6423.33 
      0.0492413         5796.14         5829.34         5829.34 
      0.0555754         5244.66         5363.73         5363.73 
      0.0619321         4994.27          4988.7          4988.7 
       0.067871         4555.22         4646.86         4646.86 
      0.0738098         4189.29          4276.1          4276.1 
      0.0800417         3749.92         3858.18         3858.18 
      0.0862327         3384.58         3445.73         3445.73 
      0.0921407          3074.5         3091.04         3091.04 
      0.0982031         2763.82         2792.02         2792.02 
       0.104506         2591.08         2557.75         2557.75 
       0.110769         2414.16         2389.88         2389.88 
       0.116806         2271.56         2266.47         2266.47 
       0.122832         2172.82         2156.62         2156.62 
       0.129052         2021.55         2037.92         2037.92 
       0.135211         1900.66         1906.73         1906.73 
       0.141259         1794.61         1767.85         1767.85 
       0.147318         1675.25         1628.97         1628.97 
       0.153489         1535.11         1499.58         1499.58 
       0.159709         1446.81         1389.96         1389.96 
       0.165845         1387.37         1304.63         1304.63 
       0.171974         1309.23         1238.76         1238.76 
       0.178125         1252.24         1185.27         1185.27 
       0.184229         1205.83         1137.07         1137.07 
        0.19034         1129.28         1087.71         1087.71 
       0.196428         1103.24          1034.6          1034.6 
       0.202534          1061.5         977.899         977.899 
       0.208729         1003.78         919.818         919.818 
       0.214876         948.507         865.343         865.343 
       0.220989          917.78         817.176         817.176 
       0.227147          869.66         775.987         775.987 
        0.23329         836.775         741.732         741.732 
       0.239377         819.617         712.754         712.754 
       0.245482         768.008         686.373         686.373 
       0.251667         759.926         660.351         660.351 
       0.257832          732.46         633.866         633.866 
       0.263955         706.567         606.803         606.803 
       0.270079         681.051           579.6           579.6 
        0.27624         670.749         553.107         553.107 
       0.282372         642.461         528.584         528.584 
        0.28843         626.103         506.721         506.721 
       0.294538         597.119         487.119         487.119 
       0.300721         593.665         469.406         469.406 
        0.30691         566.745         453.146         453.146 
       0.313033         555.114         437.862         437.862 
       0.319153         537.594         422.882         422.882 
       0.325316         522.355         407.893         407.893 
        0.33145         506.949         393.107         393.107 
       0.337538         500.102         378.801         378.801 
       0.343633         483.995         365.117         365.117 
       0.349808         468.579         352.119         352.119 
       0.355968         463.664         340.118         340.118 
       0.362074         453.923         329.108         329.108 
       0.368217         441.776          318.78          318.78 
       0.374374         425.009         308.969         308.969 
       0.380519         420.463         299.541         299.541 
       0.386598         410.375         290.465         290.465 
       0.392688         406.882         281.574         281.574 
        0.39888          395.64         272.781         272.781 
       0.405048         387.232          264.33          264.33 
       0.411186         379.533         256.284         256.284 
       0.417313         372.843         248.664         248.664 
       0.423458         365.829         241.432         241.432 
       0.429607         358.036         234.569         234.569 
       0.435692         349.048         228.101         228.101 
       0.441815         346.535         221.854         221.854 
       0.447964         339.809         215.791         215.791 
       0.454126         327.928         209.903         209.903 
       0.460267         324.138         204.215         204.215 
       0.466387         320.478         198.725         198.725 
        0.47254         313.398         193.399         193.399 
       0.478662         311.999         188.307         188.307 
       0.484765         302.943          183.44          183.44 
       0.490885         299.102         178.757         178.757 
       0.497035         294.495         174.238         174.238 
       0.503198         287.928         169.882         169.882 
       0.509342         285.258         165.692         165.692 
       0.515458         281.799         161.655         161.655 
       0.521598         277.035         157.726         157.726 
       0.527764         272.375         153.903         153.903 
       0.533884         269.259         150.231         150.231 
           0.54          265.49         146.683         146.683 
       0.546137         264.017         143.242         143.242 
       0.552299         258.882         139.904         139.904 
       0.558452         255.901         136.685         136.685 
       0.564573         251.772         133.591         133.591 
       0.570708         247.389         130.591         130.591 
       0.576825         244.152         127.692         127.692 
       0.582926         241.244         124.888         124.888 
       0.589034         238.159         122.163         122.163 
       0.595184          235.74         119.499         119.499 
       0.601379         233.528         116.898         116.898 
       0.607522         228.811         114.396         114.396 
       0.613639         227.722         111.981         111.981 
       0.619772         222.576         109.632         109.632 
       0.625918         220.927         107.347         107.347 
       0.632068          218.19         105.128         105.128 
       0.638161         216.946         102.992         102.992 
         0.6443         213.461         100.901         100.901 
       0.650464         211.374         98.8618         98.8618 
       0.656582         209.688         96.8941         96.8941 
       0.662703         207.134         94.9801         94.9801 
       0.668861         204.045         93.1075         93.1075 
       0.675024         201.679         91.2846         91.2846 
       0.681124         200.781         89.5295         89.5295 
       0.687237         197.537         87.8177         87.8177 
       0.693381         194.839         86.1434         86.1434 
       0.699536         193.562         84.5106         84.5106 
       0.705665         193.055         82.9278         82.9278 
       0.711789          189.29         81.3878         81.3878 
       0.717957         188.452         79.8769         79.8769 
        0.72409         186.056         78.4135         78.4135 
       0.730186          183.33         76.9962         76.9962 
       0.736317         182.242         75.6067         75.6067 
       0.742472         181.092         74.2469         74.2469 
       0.748622         179.571         72.9222         72.9222 
        0.75476         177.959         71.6331         71.6331 
       0.760888         175.513         70.3776         70.3776 
       0.767043         174.639         69.1476         69.1476 
       0.773185         172.824         67.9499         67.9499 
       0.779291         170.149         66.7878         66.7878 
       0.785407         169.412         65.6516         65.6516 
       0.791564         167.774         64.5349         64.5349 
       0.797719         165.621         63.4452         63.4452 
       0.803834         164.875         62.3879         62.3879 
       0.809972         162.843         61.3512         61.3512 
       0.816124         162.745         60.3361         60.3361 
       0.822261         160.591          59.347          59.347 
       0.828378         159.106         58.3834         58.3834 
       0.834502         158.843         57.4406         57.4406 
       0.840667         156.403         56.5128         56.5128 
       0.846816          155.18         55.6084         55.6084 
       0.852925         154.104         54.7298         54.7298 
       0.859047         152.381         53.8685         53.8685 
       0.865192           151.5         53.0231         53.0231 
       0.871341         149.989         52.1956         52.1956 
       0.877463         148.815         51.3897         51.3897 
       0.883569         147.715         50.6031         50.6031 
       0.889708         146.655         49.8291         49.8291 
       0.895864         145.178         49.0696         49.0696 
       0.902008         144.335         48.3277         48.3277 
       0.908149         143.508         47.6017         47.6017 
       0.914301         141.889         46.8897         46.8897 
       0.920448         140.951         46.1931         46.1931 
       0.926574         140.155         45.5132         45.5132 
       0.932687         139.434         44.8487         44.8487 
       0.938823         137.574         44.1952         44.1952 
       0.944975         136.517         43.5533         43.5533 
       0.951105         135.768         42.9267         42.9267 
       0.957225         134.125         42.3137         42.3137 
       0.963368         133.264         41.7106         41.7106 
       0.969511         132.789         41.1195         41.1195 
       0.975621         132.126         40.5431         40.5431 
       0.981748         131.234         39.9764         39.9764 
       0.987916         129.677         39.4171         39.4171 
        0.99406         129.068         38.8708         38.8708 
        1.00019         128.178         38.3359         38.3359 
        1.00632         127.295         37.8118         37.8118 
        1.01246         126.349         37.2967         37.2967 
        1.01859         124.894         36.7922         36.7922 
        1.02471         124.898         36.2978         36.2978 
        1.03085         123.602         35.8109         35.8109 
        1.03698         122.645          35.334          35.334 
        1.04314         121.643         34.8638         34.8638 
        1.04929         120.958         34.4035         34.4035 
        1.05541         120.151         33.9533         33.9533 
        1.06154         119.395         33.5102         33.5102 
        1.06769         119.037         33.0744         33.0744 
        1.07382         118.354         32.6479         32.6479 
        1.07993         117.403         32.2299         32.2299 
        1.08607         116.448         31.8176         31.8176 
        1.09222         115.876         31.4122         31.4122 
        1.09836         114.914         31.0144         31.0144 
        1.10449         114.189          30.624          30.624 
        1.11063         113.488         30.2399         30.2399 
        1.11677         112.958         29.8627         29.8627 
         1.1229          111.76         29.4926         29.4926 
        1.12903         110.867         29.1285         29.1285 
        1.13518         111.058         28.7703         28.7703 
        1.14131         109.992         28.4185         28.4185 
        1.14745         109.075         28.0727         28.0727 
        1.15359         108.482         27.7327         27.7327 
        1.15973         108.118         27.3983         27.3983 
        1.16584         107.178         27.0709         27.0709 
        1.17197         106.563         26.7485         26.7485 
        1.17811         105.879         26.4304         26.4304 
        1.18424         105.153         26.1184         26.1184 
        1.19038         104.581         25.8107         25.8107 
        1.19652         104.042          25.508          25.508 
        1.20267         103.229         25.2103         25.2103 
        1.20881         102.602         24.9174         24.9174 
        1.21495         101.899         24.6297         24.6297 
        1.22108         101.326         24.3466         24.3466 
         1.2272         100.601         24.0687         24.0687 
        1.23334         100.138         23.7945         23.7945 
        1.23949         99.2615          23.524          23.524 
        1.24562         99.0065         23.2585         23.2585 
        1.25174         98.2504         22.9975         22.9975 
        1.25789         97.7499         22.7397         22.7397 
        1.26402         97.3418         22.4865         22.4865 
        1.27014         96.3801         22.2377         22.2377 
        1.27628         96.1458         21.9919         21.9919 
        1.28244         95.3003         21.7495         21.7495 
        1.28858          94.951          21.511          21.511 
        1.29471         94.3256         21.2767         21.2767 
        1.30084         93.6855         21.0461         21.0461 
        1.30697         93.1529         20.8186         20.8186 
        1.31312         92.7454         20.5942         20.5942 
        1.31925         92.2243         20.3738         20.3738 
        1.32537         91.7883         20.1569         20.1569 
        1.33151         90.9019         19.9424         19.9424 
        1.33765         90.4318         19.7311         19.7311 
        1.34378          89.856         19.5234         19.5234 
        1.34992         89.6462         19.3186         19.3186 
        1.35606         89.0738         19.1162         19.1162 
         1.3622         88.2351         18.9172         18.9172 
        1.36833         88.0669         18.7215         18.7215 
        1.37445         87.3982         18.5287         18.5287 
        1.38059         86.8834          18.338          18.338 
        1.38675         86.3588         18.1496         18.1496 
        1.39288         85.8027         17.9646         17.9646 
        1.39901         85.6687         17.7823         17.7823 
        1.40515         85.1701         17.6021         17.6021 
         1.4113         84.4004         17.4245         17.4245 
        1.41742         84.2615         17.2501         17.2501 
        1.42355         83.5065         17.0778         17.0778 
         1.4297         83.1191         16.9073         16.9073 
        1.43585         82.4806         16.7392         16.7392 
        1.44198         82.2252          16.574          16.574 
        1.44809         81.7177         16.4115         16.4115 
        1.45423         81.2695         16.2505         16.2505 
        1.46036         80.9578          16.092          16.092 
        1.46649         80.4307         15.9356         15.9356 
        1.47263         79.9816         15.7811         15.7811 
        1.47877         79.7095         15.6288         15.6288 
        1.48491         79.1522         15.4782         15.4782 
        1.49104          78.681           15.33           15.33 
        1.49718         78.2331         15.1837         15.1837 
        1.50333         77.7925          15.039          15.039 
        1.50947         77.2858         14.8965         14.8965 
         1.5156          77.069         14.7561         14.7561 
        1.52172         76.5198         14.6175         14.6175 
        1.52787         76.3092         14.4804         14.4804 
          1.534         75.8747         14.3453         14.3453 
        1.54013         75.3079          14.212          14.212 
        1.54627         74.9664         14.0802         14.0802 
        1.55241         74.4929         13.9501         13.9501 
        1.55855         74.1172         13.8218         13.8218 
        1.56467         73.5729         13.6955         13.6955 
         1.5708         73.4097         13.5704         13.5704 
        1.57695         73.1082         13.4467         13.4467 
        1.58308         72.4648         13.3248         13.3248 
        1.58922         72.3272         13.2044         13.2044 
        1.59535         72.0334         13.0855         13.0855 
         1.6015         71.3836         12.9679         12.9679 
        1.60764         71.1798         12.8519         12.8519 
        1.61376         70.6873         12.7376         12.7376 
        1.61989         70.2733         12.6246         12.6246 
        1.62604         70.0183         12.5127         12.5127 
        1.63218         69.7778         12.4023         12.4023 
        1.63831         69.2787         12.2934         12.2934 
        1.64444         68.9466         12.1859         12.1859 
        1.65059         68.3908         12.0793         12.0793 
        1.65673         68.1894         11.9742         11.9742 
        1.66285         67.8243         11.8706         11.8706 
        1.66898          67.481         11.7683         11.7683 
        1.67512         67.0048         11.6669         11.6669 
        1.68127         66.6422         11.5667         11.5667 
         1.6874         66.3714         11.4678         11.4678 
        1.69353         66.0363         11.3702         11.3702 
        1.69967          65.676         11.2735         11.2735 
        1.70581         65.4711          11.178          11.178 
        1.71193         65.2039         11.0839         11.0839 
        1.71806         64.5767         10.9908         10.9908 
        1.72421         64.4671         10.8985         10.8985 
        1.73035         64.0318         10.8074         10.8074 
        1.73649         63.6117         10.7174         10.7174 
        1.74262         63.4382         10.6285         10.6285 
        1.74876         63.1232         10.5405         10.5405 
        1.75489         62.6881         10.4537         10.4537 
        1.76101         62.4792         10.3679         10.3679 
        1.76715         62.0275          10.283          10.283 
        1.77329         61.7783          10.199          10.199 
        1.77943         61.4373         10.1158         10.1158 
        1.78557         61.2243         10.0337         10.0337 
        1.79171         60.8586         9.95251         9.95251 
        1.79785         60.6104         9.87221         9.87221 
        1.80399         60.2054         9.79281         9.79281 
        1.81012         60.0599          9.7144          9.7144 
        1.81625         59.4691         9.63689         9.63689 
        1.82239         59.2923         9.56012         9.56012 
        1.82853         58.8678         9.48422         9.48422 
        1.83466         58.7115         9.40923         9.40923 
        1.84078         58.2554         9.33513         9.33513 
        1.84692         57.9928         9.26172         9.26172 
        1.85306         57.7518         9.18901         9.18901 
         1.8592         57.3391          9.1172          9.1172 
        1.86533         57.1342          9.0462          9.0462 
        1.87147         56.8173         8.97588         8.97588 
