# k  (h/Mpc)    Pcb(k)  (Mpc/h)^3    Pcb_linear(k) (Mpc/h)^3    Pcb_NL(k) (Mpc/h)^3   ShotnoiseSubtracted = false
     0.00783031         14418.3         14633.8         14633.8 
       0.013688         18713.3         18553.7         18553.7 
       0.019231         19149.1         19135.8         19135.8 
      0.0249154         17624.8         18026.8         18026.8 
      0.0312784         15756.9         15972.9         15972.9 
      0.0375637         13885.3         13938.1         13938.1 
      0.0433917         12115.6         12400.1         12400.1 
      0.0492413         11106.8         11253.6         11253.6 
      0.0555754         9964.99         10354.9         10354.9 
      0.0619321         9567.01         9630.95         9630.95 
       0.067871         8648.84         8971.07         8971.07 
      0.0738098         7960.54         8255.31         8255.31 
      0.0800417         7100.61         7448.52         7448.52 
      0.0862327         6438.77         6652.28         6652.28 
      0.0921407         5893.58         5967.53         5967.53 
      0.0982031         5303.62         5390.26         5390.26 
       0.104506         5011.99         4937.98         4937.98 
       0.110769         4667.66         4613.89         4613.89 
       0.116806         4405.17         4375.65         4375.65 
       0.122832         4200.11         4163.56         4163.56 
       0.129052         3889.21         3934.41         3934.41 
       0.135211         3668.17         3681.13         3681.13 
       0.141259         3492.84         3413.02         3413.02 
       0.147318         3281.81         3144.89         3144.89 
       0.153489         3009.73         2895.08         2895.08 
       0.159709         2856.19         2683.47         2683.47 
       0.165845         2764.69         2518.73         2518.73 
       0.171974         2619.95         2391.55         2391.55 
       0.178125         2500.11         2288.28         2288.28 
       0.184229         2397.34         2195.22         2195.22 
        0.19034         2266.11         2099.93         2099.93 
       0.196428         2218.05          1997.4          1997.4 
       0.202534         2129.72         1887.94         1887.94 
       0.208729         2032.68         1775.81         1775.81 
       0.214876         1949.32         1670.64         1670.64 
       0.220989            1886         1577.64         1577.64 
       0.227147         1808.04         1498.13         1498.13 
        0.23329         1741.98         1431.99         1431.99 
       0.239377         1718.94         1376.05         1376.05 
       0.245482         1614.83         1325.12         1325.12 
       0.251667         1606.13         1274.88         1274.88 
       0.257832          1543.5         1223.75         1223.75 
       0.263955         1492.71          1171.5          1171.5 
       0.270079          1443.6         1118.98         1118.98 
        0.27624         1427.28         1067.83         1067.83 
       0.282372         1367.67         1020.49         1020.49 
        0.28843         1361.86         978.279         978.279 
       0.294538         1296.27         940.436         940.436 
       0.300721         1290.08         906.238         906.238 
        0.30691         1239.71         874.847         874.847 
       0.313033         1215.92         845.339         845.339 
       0.319153         1197.92         816.418         816.418 
       0.325316         1158.29         787.481         787.481 
        0.33145         1133.17         758.935         758.935 
       0.337538         1114.13         731.317         731.317 
       0.343633          1089.8         704.897         704.897 
       0.349808         1054.41         679.803         679.803 
       0.355968         1047.49         656.635         656.635 
       0.362074         1037.36         635.379         635.379 
       0.368217         1005.55         615.439         615.439 
       0.374374         967.934         596.497         596.497 
       0.380519          970.21         578.296         578.296 
       0.386598         943.949         560.774         560.774 
       0.392688         940.233         543.609         543.609 
        0.39888         913.906         526.633         526.633 
       0.405048         902.327         510.317         510.317 
       0.411186         889.975         494.783         494.783 
       0.417313         871.791         480.073         480.073 
       0.423458         856.986          466.11          466.11 
       0.429607         845.776          452.86          452.86 
       0.435692         828.461         440.374         440.374 
       0.441815         822.616         428.313         428.313 
       0.447964          804.94         416.607         416.607 
       0.454126          797.45          405.24          405.24 
       0.460267         779.054         394.259         394.259 
       0.466387         770.118          383.66          383.66 
        0.47254         763.265         373.377         373.377 
       0.478662         757.004         363.547         363.547 
       0.484765         735.821          354.15          354.15 
       0.490885         731.182         345.111         345.111 
       0.497035         715.908         336.385         336.385 
       0.503198          711.34         327.976         327.976 
       0.509342         703.754         319.886         319.886 
       0.515458         700.027         312.093         312.093 
       0.521598         683.203         304.507         304.507 
       0.527764         669.901         297.126         297.126 
       0.533884          669.01         290.037         290.037 
           0.54          661.66         283.188         283.188 
       0.546137         656.423         276.544         276.544 
       0.552299          647.03           270.1           270.1 
       0.558452         642.912         263.886         263.886 
       0.564573         634.042         257.912         257.912 
       0.570708         627.236         252.119         252.119 
       0.576825         610.103         246.524         246.524 
       0.582926         613.021          241.11          241.11 
       0.589034         606.878         235.848         235.848 
       0.595184         600.973         230.706         230.706 
       0.601379         592.723         225.684         225.684 
       0.607522         584.844         220.854         220.854 
       0.613639         584.958         216.191         216.191 
       0.619772         571.262         211.655         211.655 
       0.625918         568.758         207.245         207.245 
       0.632068         561.101          202.96          202.96 
       0.638161         559.167         198.837         198.837 
         0.6443          548.91         194.801         194.801 
       0.650464         546.936         190.863         190.863 
       0.656582         543.385         187.064         187.064 
       0.662703         540.716         183.369         183.369 
       0.668861         531.219         179.754         179.754 
       0.675024         526.978         176.235         176.235 
       0.681124         523.645         172.846         172.846 
       0.687237         519.004         169.542         169.542 
       0.693381         512.583         166.309         166.309 
       0.699536         504.539         163.157         163.157 
       0.705665         503.779         160.101         160.101 
       0.711789         500.526         157.128         157.128 
       0.717957         495.766         154.211         154.211 
        0.72409         493.323         151.386         151.386 
       0.730186         485.894         148.649         148.649 
       0.736317         482.835         145.967         145.967 
       0.742472         480.599         143.342         143.342 
       0.748622         474.946         140.784         140.784 
        0.75476         468.258         138.295         138.295 
       0.760888         463.971         135.871         135.871 
       0.767043         464.462         133.497         133.497 
       0.773185         459.202         131.185         131.185 
       0.779291         454.196         128.941         128.941 
       0.785407         451.029         126.747         126.747 
       0.791564         445.773         124.592         124.592 
       0.797719         443.624         122.488         122.488 
       0.803834         439.249         120.446         120.446 
       0.809972         437.857         118.445         118.445 
       0.816124         436.611         116.485         116.485 
       0.822261         430.144         114.576         114.576 
       0.828378          427.68         112.715         112.715 
       0.834502         423.456         110.895         110.895 
       0.840667         419.805         109.104         109.104 
       0.846816         417.842         107.358         107.358 
       0.852925         414.336         105.662         105.662 
       0.859047         413.116         103.999         103.999 
       0.865192         407.979         102.367         102.367 
       0.871341         404.674         100.769         100.769 
       0.877463         403.805         99.2133         99.2133 
       0.883569         400.009         97.6947         97.6947 
       0.889708         397.119         96.2005         96.2005 
       0.895864         394.714         94.7341         94.7341 
       0.902008         391.792         93.3017         93.3017 
       0.908149         387.587         91.9002         91.9002 
       0.914301         384.811         90.5256         90.5256 
       0.920448         382.575         89.1807         89.1807 
       0.926574         376.907         87.8681         87.8681 
       0.932687         377.271         86.5851         86.5851 
       0.938823         372.927         85.3235         85.3235 
       0.944975         373.171         84.0844         84.0844 
       0.951105         368.318         82.8747         82.8747 
       0.957225          366.03         81.6911         81.6911 
       0.963368         361.936         80.5269         80.5269 
       0.969511         360.743         79.3856         79.3856 
       0.975621         358.122         78.2729         78.2729 
       0.981748          356.52         77.1788         77.1788 
       0.987916         354.252          76.099          76.099 
        0.99406         348.382         75.0442         75.0442 
        1.00019         347.359         74.0116         74.0116 
        1.00632         345.653         72.9997         72.9997 
        1.01246         342.824         72.0054         72.0054 
        1.01859         343.054         71.0314         71.0314 
        1.02471         337.982         70.0768         70.0768 
        1.03085         335.909         69.1367         69.1367 
        1.03698         334.947          68.216          68.216 
        1.04314         331.591         67.3084         67.3084 
        1.04929         328.506         66.4196         66.4196 
        1.05541         329.002         65.5506         65.5506 
        1.06154          323.52         64.6951         64.6951 
        1.06769         322.322         63.8538         63.8538 
        1.07382         320.249         63.0303         63.0303 
        1.07993         318.103         62.2234         62.2234 
        1.08607         317.189         61.4274         61.4274 
        1.09222         314.098         60.6446         60.6446 
        1.09836         312.073         59.8766         59.8766 
        1.10449         308.925         59.1229         59.1229 
        1.11063         305.969         58.3814         58.3814 
        1.11677         305.855         57.6531         57.6531 
         1.1229         303.805         56.9386         56.9386 
        1.12903         301.469         56.2357         56.2357 
        1.13518         298.808         55.5442         55.5442 
        1.14131         297.196         54.8649         54.8649 
        1.14745         295.661         54.1974         54.1974 
        1.15359         293.558          53.541          53.541 
        1.15973         291.476         52.8954         52.8954 
        1.16584         289.354         52.2634         52.2634 
        1.17197         288.958         51.6409         51.6409 
        1.17811         285.514         51.0267         51.0267 
        1.18424         283.374         50.4245         50.4245 
        1.19038         282.318         49.8303         49.8303 
        1.19652         280.025          49.246          49.246 
        1.20267         279.278         48.6711         48.6711 
        1.20881         277.103         48.1057         48.1057 
        1.21495         274.857         47.5502         47.5502 
        1.22108         273.284         47.0037         47.0037 
         1.2272         271.489         46.4672         46.4672 
        1.23334         269.783         45.9378         45.9378 
        1.23949         268.107         45.4156         45.4156 
        1.24562         266.773          44.903          44.903 
        1.25174         264.437         44.3991         44.3991 
        1.25789         262.224         43.9015         43.9015 
        1.26402         260.505         43.4125         43.4125 
        1.27014         258.831         42.9322         42.9322 
        1.27628         257.367         42.4578         42.4578 
        1.28244         256.806         41.9897         41.9897 
        1.28858         254.128         41.5293         41.5293 
        1.29471         252.266         41.0769         41.0769 
        1.30084         250.884         40.6318         40.6318 
        1.30697         249.326         40.1926         40.1926 
        1.31312         246.811         39.7593         39.7593 
        1.31925         246.328         39.3338         39.3338 
        1.32537         245.064          38.915          38.915 
        1.33151          242.57         38.5009         38.5009 
        1.33765         240.861         38.0931         38.0931 
        1.34378         240.031          37.692          37.692 
        1.34992         238.474         37.2966         37.2966 
        1.35606         237.922         36.9059         36.9059 
         1.3622         235.697         36.5217         36.5217 
        1.36833         233.591         36.1438         36.1438 
        1.37445         232.533         35.7716         35.7716 
        1.38059         230.439         35.4035         35.4035 
        1.38675         229.595         35.0397         35.0397 
        1.39288         227.962         34.6826         34.6826 
        1.39901         227.298         34.3306         34.3306 
        1.40515         225.218         33.9828         33.9828 
         1.4113         223.941         33.6399         33.6399 
        1.41742         222.237         33.3032         33.3032 
        1.42355         221.039         32.9704         32.9704 
         1.4297         219.187         32.6413         32.6413 
        1.43585         218.077         32.3168         32.3168 
        1.44198         216.845          31.998          31.998 
        1.44809         215.665         31.6841         31.6841 
        1.45423         214.181         31.3733         31.3733 
        1.46036          213.01         31.0673         31.0673 
        1.46649         211.174         30.7653         30.7653 
        1.47263         209.928         30.4671         30.4671 
        1.47877          208.67          30.173          30.173 
        1.48491         206.836         29.8824         29.8824 
        1.49104         206.198         29.5963         29.5963 
        1.49718         204.258         29.3137         29.3137 
        1.50333         203.539         29.0344         29.0344 
        1.50947         202.183         28.7593         28.7593 
         1.5156          200.27         28.4882         28.4882 
        1.52172         199.452         28.2207         28.2207 
        1.52787         197.911          27.956          27.956 
          1.534         197.252         27.6951         27.6951 
        1.54013         195.577         27.4379         27.4379 
        1.54627         194.533         27.1834         27.1834 
        1.55241         193.224         26.9322         26.9322 
        1.55855         191.921         26.6845         26.6845 
        1.56467         190.595         26.4406         26.4406 
         1.5708          190.09         26.1991         26.1991 
        1.57695         188.538         25.9603         25.9603 
        1.58308         187.449          25.725          25.725 
        1.58922          185.79         25.4925         25.4925 
        1.59535         184.356          25.263          25.263 
         1.6015         183.937          25.036          25.036 
        1.60764         182.556         24.8119         24.8119 
        1.61376         181.383         24.5912         24.5912 
        1.61989         180.382         24.3731         24.3731 
        1.62604         179.168         24.1571         24.1571 
        1.63218         178.122         23.9439         23.9439 
        1.63831         176.812         23.7338         23.7338 
        1.64444         176.013         23.5261         23.5261 
        1.65059         174.701         23.3204         23.3204 
        1.65673         173.498         23.1175         23.1175 
        1.66285         172.519         22.9175         22.9175 
        1.66898         171.318         22.7199         22.7199 
        1.67512         170.979         22.5242         22.5242 
        1.68127         169.011         22.3307         22.3307 
         1.6874         168.172         22.1399         22.1399 
        1.69353         167.258         21.9514         21.9514 
        1.69967          165.78         21.7647         21.7647 
        1.70581         165.162         21.5803         21.5803 
        1.71193         163.723         21.3987         21.3987 
        1.71806         163.273         21.2189         21.2189 
        1.72421         161.969         21.0407         21.0407 
        1.73035         161.244         20.8649         20.8649 
        1.73649         160.274          20.691          20.691 
        1.74262         159.065         20.5194         20.5194 
        1.74876         158.134         20.3495         20.3495 
        1.75489         157.099          20.182          20.182 
        1.76101         155.852         20.0164         20.0164 
        1.76715         155.438         19.8525         19.8525 
        1.77329         154.495         19.6902         19.6902 
        1.77943         153.483         19.5296         19.5296 
        1.78557         152.556         19.3711         19.3711 
        1.79171         151.701         19.2144         19.2144 
        1.79785         150.461         19.0594         19.0594 
        1.80399         149.603         18.9061         18.9061 
        1.81012         148.653         18.7547         18.7547 
        1.81625         148.047         18.6051         18.6051 
        1.82239         146.892         18.4568         18.4568 
        1.82853         146.398         18.3103         18.3103 
        1.83466         145.117         18.1655         18.1655 
        1.84078         144.557         18.0225         18.0225 
        1.84692         143.045         17.8807         17.8807 
        1.85306         142.818         17.7404         17.7404 
         1.8592         141.715         17.6017         17.6017 
        1.86533         140.831         17.4647         17.4647 
        1.87147         139.799         17.3289         17.3289 
