# k  (h/Mpc)    Pcb(k)  (Mpc/h)^3    Pcb_linear(k) (Mpc/h)^3    Pcb_NL(k) (Mpc/h)^3   ShotnoiseSubtracted = false
     0.00783031         1882.26         1901.71         1901.71 
       0.013688          2405.8         2405.29         2405.29 
       0.019231         2480.75         2479.62         2479.62 
      0.0249154         2318.73         2335.57         2335.57 
      0.0312784         2065.55         2069.35         2069.35 
      0.0375637         1809.97          1805.7          1805.7 
      0.0433917         1600.75         1606.43         1606.43 
      0.0492413         1457.81          1457.9          1457.9 
      0.0555754         1331.53         1341.47         1341.47 
      0.0619321         1253.07         1247.68         1247.68 
       0.067871         1155.56          1162.2          1162.2 
      0.0738098         1062.45         1069.47         1069.47 
      0.0800417          955.24         964.956         964.956 
      0.0862327         857.409         861.803         861.803 
      0.0921407         772.719         773.094         773.094 
      0.0982031         695.626          698.31          698.31 
       0.104506         644.348         639.717         639.717 
       0.110769         601.072         597.733         597.733 
       0.116806         566.046         566.868         566.868 
       0.122832         541.456         539.393         539.393 
       0.129052         507.738         509.707         509.707 
       0.135211         475.253         476.894         476.894 
       0.141259         444.253          442.16          442.16 
       0.147318         412.078         407.425         407.425 
       0.153489         378.028         375.062         375.062 
       0.159709         352.153         347.646         347.646 
       0.165845         334.336         326.304         326.304 
       0.171974         314.621         309.829         309.829 
       0.178125         301.553         296.449         296.449 
       0.184229         290.323         284.394         284.394 
        0.19034         273.871         272.049         272.049 
       0.196428         263.859         258.766         258.766 
       0.202534         252.479         244.585         244.585 
       0.208729         236.904         230.058         230.058 
       0.214876         221.949         216.433         216.433 
       0.220989         213.089         204.386         204.386 
       0.227147         200.267         194.085         194.085 
        0.23329         191.983         185.517         185.517 
       0.239377         185.819         178.269         178.269 
       0.245482         176.648         171.671         171.671 
       0.251667         172.437         165.163         165.163 
       0.257832         165.878         158.538         158.538 
       0.263955          159.02          151.77          151.77 
       0.270079         152.642         144.966         144.966 
        0.27624         147.855         138.339         138.339 
       0.282372         141.605         132.206         132.206 
        0.28843         135.553         126.738         126.738 
       0.294538         130.343         121.835         121.835 
       0.300721         127.356         117.405         117.405 
        0.30691         121.963         113.338         113.338 
       0.313033         118.267         109.515         109.515 
       0.319153         112.875         105.768         105.768 
       0.325316         110.909          102.02          102.02 
        0.33145         106.662         98.3215         98.3215 
       0.337538         103.843         94.7434         94.7434 
       0.343633         100.119         91.3207         91.3207 
       0.349808         97.0768         88.0698         88.0698 
       0.355968         94.3512         85.0683         85.0683 
       0.362074          91.413         82.3145         82.3145 
       0.368217         88.7948         79.7313         79.7313 
       0.374374         86.1288         77.2773         77.2773 
       0.380519         83.9824         74.9193         74.9193 
       0.386598         81.6796         72.6493         72.6493 
       0.392688         79.9329         70.4256         70.4256 
        0.39888         77.5568         68.2264         68.2264 
       0.405048         75.6686         66.1126         66.1126 
       0.411186         73.8825         64.1001         64.1001 
       0.417313         71.4771         62.1944         62.1944 
       0.423458         69.7119         60.3855         60.3855 
       0.429607         67.8378         58.6689         58.6689 
       0.435692         65.7746         57.0513         57.0513 
       0.441815         64.7706         55.4888         55.4888 
       0.447964         63.6631         53.9723         53.9723 
       0.454126         61.1066         52.4996         52.4996 
       0.460267           60.04          51.077          51.077 
       0.466387         58.3829         49.7039         49.7039 
        0.47254         57.4685         48.3717         48.3717 
       0.478662          56.429         47.0982         47.0982 
       0.484765         54.8639         45.8809         45.8809 
       0.490885         53.6435         44.7097         44.7097 
       0.497035          52.881         43.5794         43.5794 
       0.503198         51.5196         42.4899         42.4899 
       0.509342         50.2233         41.4419         41.4419 
       0.515458         49.2128         40.4323         40.4323 
       0.521598         48.4212         39.4494         39.4494 
       0.527764         47.4223         38.4933         38.4933 
       0.533884         46.5889         37.5749         37.5749 
           0.54         45.6279         36.6876         36.6876 
       0.546137          44.903         35.8269         35.8269 
       0.552299         44.1839         34.9919         34.9919 
       0.558452         42.8369         34.1869         34.1869 
       0.564573         42.2119          33.413          33.413 
       0.570708         41.5791         32.6626         32.6626 
       0.576825         40.5602         31.9377         31.9377 
       0.582926          39.826         31.2363         31.2363 
       0.589034         38.7796         30.5546         30.5546 
       0.595184         38.2896         29.8885         29.8885 
       0.601379         37.6402         29.2378         29.2378 
       0.607522         36.9055         28.6121         28.6121 
       0.613639         36.5917          28.008          28.008 
       0.619772          35.641         27.4204         27.4204 
       0.625918         35.4468          26.849          26.849 
       0.632068         34.8667         26.2939         26.2939 
       0.638161         34.1432         25.7597         25.7597 
         0.6443         33.4805         25.2368         25.2368 
       0.650464         32.9012         24.7267         24.7267 
       0.656582         32.6865         24.2346         24.2346 
       0.662703         32.0583         23.7559         23.7559 
       0.668861         31.4881         23.2875         23.2875 
       0.675024         30.9448         22.8316         22.8316 
       0.681124         30.4167         22.3926         22.3926 
       0.687237         29.9059         21.9645         21.9645 
       0.693381         29.6386         21.5457         21.5457 
       0.699536          28.906         21.1373         21.1373 
       0.705665         28.8019         20.7414         20.7414 
       0.711789         28.1723         20.3562         20.3562 
       0.717957         27.8093         19.9784         19.9784 
        0.72409         27.3932         19.6123         19.6123 
       0.730186         27.0177         19.2578         19.2578 
       0.736317         26.7301         18.9103         18.9103 
       0.742472         26.2686         18.5702         18.5702 
       0.748622         25.9946         18.2389         18.2389 
        0.75476         25.5112         17.9165         17.9165 
       0.760888         25.1875         17.6024         17.6024 
       0.767043          24.885         17.2948         17.2948 
       0.773185         24.4349         16.9952         16.9952 
       0.779291          24.292         16.7046         16.7046 
       0.785407         23.9884         16.4204         16.4204 
       0.791564         23.5468         16.1411         16.1411 
       0.797719         23.0859         15.8685         15.8685 
       0.803834          23.028         15.6041         15.6041 
       0.809972         22.8095         15.3448         15.3448 
       0.816124          22.254         15.0909         15.0909 
       0.822261         22.0972         14.8435         14.8435 
       0.828378         21.8562         14.6025         14.6025 
       0.834502         21.6219         14.3667         14.3667 
       0.840667          21.334         14.1347         14.1347 
       0.846816         20.9631         13.9085         13.9085 
       0.852925         20.7753         13.6887         13.6887 
       0.859047          20.536         13.4733         13.4733 
       0.865192         20.3381         13.2618         13.2618 
       0.871341          20.169         13.0549         13.0549 
       0.877463         19.8068         12.8533         12.8533 
       0.883569         19.5465         12.6566         12.6566 
       0.889708          19.265          12.463          12.463 
       0.895864         19.1428          12.273          12.273 
       0.902008         18.9849         12.0874         12.0874 
       0.908149         18.7671         11.9059         11.9059 
       0.914301         18.6222         11.7278         11.7278 
       0.920448         18.2531         11.5535         11.5535 
       0.926574         18.1099         11.3835         11.3835 
       0.932687         17.9178         11.2173         11.2173 
       0.938823          17.685         11.0538         11.0538 
       0.944975         17.4757         10.8933         10.8933 
       0.951105         17.3418         10.7366         10.7366 
       0.957225         17.1752         10.5833         10.5833 
       0.963368           16.99         10.4324         10.4324 
       0.969511         16.8487         10.2846         10.2846 
       0.975621         16.6897         10.1404         10.1404 
       0.981748         16.4768         9.99868         9.99868 
       0.987916         16.3502         9.85879         9.85879 
        0.99406         16.1334         9.72213         9.72213 
        1.00019         15.8984         9.58836         9.58836 
        1.00632         15.8728         9.45726         9.45726 
        1.01246         15.7009         9.32845         9.32845 
        1.01859         15.4611         9.20226         9.20226 
        1.02471         15.3893          9.0786          9.0786 
        1.03085         15.2404         8.95681         8.95681 
        1.03698         14.9963         8.83753         8.83753 
        1.04314         14.9148         8.71995         8.71995 
        1.04929         14.7211          8.6048          8.6048 
        1.05541         14.5657         8.49221         8.49221 
        1.06154         14.4584         8.38139         8.38139 
        1.06769         14.3855         8.27239         8.27239 
        1.07382         14.1896         8.16571         8.16571 
        1.07993         14.0945         8.06117         8.06117 
        1.08607         13.9442         7.95805         7.95805 
        1.09222         13.8307         7.85664         7.85664 
        1.09836         13.6627         7.75714         7.75714 
        1.10449         13.5732         7.65949         7.65949 
        1.11063         13.4326         7.56344         7.56344 
        1.11677         13.3617         7.46908         7.46908 
         1.1229         13.2653         7.37652         7.37652 
        1.12903         13.1084         7.28546         7.28546 
        1.13518         12.9535         7.19587         7.19587 
        1.14131         12.8688         7.10786         7.10786 
        1.14745         12.7578         7.02139         7.02139 
        1.15359         12.6714         6.93636         6.93636 
        1.15973         12.5604         6.85271         6.85271 
        1.16584         12.3763         6.77083         6.77083 
        1.17197         12.3185         6.69019         6.69019 
        1.17811         12.2395         6.61062         6.61062 
        1.18424         12.1251          6.5326          6.5326 
        1.19038          12.067         6.45562         6.45562 
        1.19652         11.9394         6.37992         6.37992 
        1.20267         11.8079         6.30545         6.30545 
        1.20881         11.7823          6.2322          6.2322 
        1.21495          11.682         6.16024         6.16024 
        1.22108         11.5401         6.08943         6.08943 
         1.2272         11.4606         6.01992         6.01992 
        1.23334         11.3421         5.95134         5.95134 
        1.23949         11.2537         5.88368         5.88368 
        1.24562         11.2047         5.81727         5.81727 
        1.25174          11.119           5.752           5.752 
        1.25789         11.0335         5.68754         5.68754 
        1.26402           10.98         5.62418         5.62418 
        1.27014         10.8773         5.56196         5.56196 
        1.27628           10.74          5.5005          5.5005 
        1.28244         10.6599         5.43985         5.43985 
        1.28858         10.6468         5.38021         5.38021 
        1.29471         10.5292         5.32161         5.32161 
        1.30084         10.4266         5.26393         5.26393 
        1.30697         10.4076         5.20703         5.20703 
        1.31312         10.2504          5.1509          5.1509 
        1.31925         10.1898         5.09578         5.09578 
        1.32537          10.131         5.04152         5.04152 
        1.33151         10.0777         4.98787         4.98787 
        1.33765         9.98135         4.93504         4.93504 
        1.34378         9.90327         4.88309         4.88309 
        1.34992         9.83095         4.83185         4.83185 
        1.35606         9.77611         4.78124         4.78124 
         1.3622          9.7155         4.73146         4.73146 
        1.36833         9.62733         4.68251         4.68251 
        1.37445         9.57273         4.63429         4.63429 
        1.38059         9.53221          4.5866          4.5866 
        1.38675         9.43637         4.53947         4.53947 
        1.39288         9.38387          4.4932          4.4932 
        1.39901         9.28529         4.44761         4.44761 
        1.40515         9.25173         4.40254         4.40254 
         1.4113         9.18923         4.35813         4.35813 
        1.41742         9.12186          4.3145          4.3145 
        1.42355         9.04543         4.27139         4.27139 
         1.4297         8.98532         4.22875         4.22875 
        1.43585         8.95251         4.18671         4.18671 
        1.44198         8.90689         4.14541         4.14541 
        1.44809         8.82402         4.10474         4.10474 
        1.45423         8.75332         4.06448         4.06448 
        1.46036         8.70472         4.02484         4.02484 
        1.46649         8.65124         3.98571         3.98571 
        1.47263         8.57338         3.94708         3.94708 
        1.47877          8.5261         3.90898         3.90898 
        1.48491          8.4754         3.87133         3.87133 
        1.49104          8.4212         3.83426         3.83426 
        1.49718          8.3754         3.79765         3.79765 
        1.50333         8.32091         3.76147         3.76147 
        1.50947         8.25842         3.72583         3.72583 
         1.5156         8.21387         3.69071         3.69071 
        1.52172         8.16868         3.65605         3.65605 
        1.52787         8.11061         3.62177         3.62177 
          1.534         8.05569         3.58797         3.58797 
        1.54013         8.01676         3.55464         3.55464 
        1.54627         7.94536         3.52167         3.52167 
        1.55241         7.90729         3.48912         3.48912 
        1.55855         7.87209         3.45703         3.45703 
        1.56467         7.80862         3.42544         3.42544 
         1.5708         7.78421         3.39415         3.39415 
        1.57695         7.70772         3.36321         3.36321 
        1.58308         7.66141         3.33273         3.33273 
        1.58922          7.6361         3.30261         3.30261 
        1.59535         7.60111         3.27288         3.27288 
         1.6015         7.53598         3.24347         3.24347 
        1.60764         7.48198         3.21444         3.21444 
        1.61376         7.45728         3.18585         3.18585 
        1.61989         7.40984         3.15759         3.15759 
        1.62604         7.35896         3.12961         3.12961 
        1.63218         7.33706         3.10198         3.10198 
        1.63831         7.29585         3.07476         3.07476 
        1.64444         7.25086         3.04786         3.04786 
        1.65059          7.1739         3.02122         3.02122 
        1.65673         7.16608         2.99492         2.99492 
        1.66285         7.09176         2.96902         2.96902 
        1.66898         7.06641         2.94341         2.94341 
        1.67512         7.03673         2.91806         2.91806 
        1.68127         6.98942         2.89299         2.89299 
         1.6874         6.96107         2.86827         2.86827 
        1.69353           6.912         2.84386         2.84386 
        1.69967         6.87194         2.81967         2.81967 
        1.70581         6.83568         2.79578         2.79578 
        1.71193         6.79604         2.77225         2.77225 
        1.71806         6.77378         2.74895         2.74895 
        1.72421         6.72039         2.72587         2.72587 
        1.73035         6.70307         2.70309         2.70309 
        1.73649         6.66375         2.68057         2.68057 
        1.74262         6.61025         2.65833         2.65833 
        1.74876         6.58888         2.63633         2.63633 
        1.75489         6.56372         2.61462         2.61462 
        1.76101         6.50578         2.59317         2.59317 
        1.76715         6.48628         2.57193         2.57193 
        1.77329         6.44927         2.55091         2.55091 
        1.77943         6.39893         2.53011         2.53011 
        1.78557          6.3883         2.50958         2.50958 
        1.79171         6.34487         2.48927         2.48927 
        1.79785          6.3097         2.46918         2.46918 
        1.80399         6.26643         2.44932         2.44932 
        1.81012         6.24597         2.42971         2.42971 
        1.81625         6.20551         2.41033         2.41033 
        1.82239         6.18408         2.39112         2.39112 
        1.82853          6.1462         2.37214         2.37214 
        1.83466         6.11952         2.35339         2.35339 
        1.84078          6.0887         2.33485         2.33485 
        1.84692         6.07181         2.31649         2.31649 
        1.85306         6.02142          2.2983          2.2983 
         1.8592          5.9864         2.28034         2.28034 
        1.86533         5.96085         2.26259         2.26259 
        1.87147         5.93765           2.245           2.245 
