# k  (h/Mpc)    P(k)  (Mpc/h)^3    P_linear(k)  (Mpc/h)^3     P_NL(k)  ShotnoiseSubtracted = false
     0.00783031         13568.6         13767.8         13767.8 
       0.013688         17585.7         17440.6         17440.6 
       0.019231           17998         17984.1         17984.1 
      0.0249154         16575.4         16940.4         16940.4 
      0.0312784         14816.8         15009.7         15009.7 
      0.0375637         13053.5         13097.3         13097.3 
      0.0433917         11396.6         11651.9         11651.9 
      0.0492413         10444.7         10574.5         10574.5 
      0.0555754         9378.75         9729.95         9729.95 
      0.0619321         8997.62         9049.67         9049.67 
       0.067871         8140.84         8429.59         8429.59 
      0.0738098         7492.17         7757.02         7757.02 
      0.0800417         6684.98         6998.92         6998.92 
      0.0862327         6059.08         6250.73         6250.73 
      0.0921407         5541.95          5607.3          5607.3 
      0.0982031         4986.17         5064.87         5064.87 
       0.104506         4708.84         4639.89         4639.89 
       0.110769          4385.3         4335.37         4335.37 
       0.116806         4137.09          4111.5          4111.5 
       0.122832         3945.89         3912.22         3912.22 
       0.129052         3655.09          3696.9          3696.9 
       0.135211         3446.69         3458.91         3458.91 
       0.141259         3279.24         3206.98         3206.98 
       0.147318         3079.01         2955.04         2955.04 
       0.153489         2823.29         2720.31         2720.31 
       0.159709         2677.96         2521.47         2521.47 
       0.165845         2589.59         2366.68         2366.68 
       0.171974         2453.26         2247.18         2247.18 
       0.178125         2341.24         2150.14         2150.14 
       0.184229         2246.39          2062.7          2062.7 
        0.19034         2120.21         1973.16         1973.16 
       0.196428          2075.6         1876.82         1876.82 
       0.202534         1993.75         1773.96         1773.96 
       0.208729         1901.05          1668.6          1668.6 
       0.214876         1820.37         1569.78         1569.78 
       0.220989         1761.42          1482.4          1482.4 
       0.227147         1686.79         1407.68         1407.68 
        0.23329         1624.93         1345.54         1345.54 
       0.239377         1602.42         1292.98         1292.98 
       0.245482         1504.43         1245.12         1245.12 
       0.251667         1495.94         1197.91         1197.91 
       0.257832         1437.73         1149.87         1149.87 
       0.263955         1390.34         1100.77         1100.77 
       0.270079         1344.07         1051.43         1051.43 
        0.27624         1329.02         1003.37         1003.37 
       0.282372         1273.12         958.882         958.882 
        0.28843         1265.48         919.221         919.221 
       0.294538         1204.08          883.66          883.66 
       0.300721         1198.92         851.528         851.528 
        0.30691         1150.82         822.033         822.033 
       0.313033         1129.01         794.306         794.306 
       0.319153         1110.56          767.13          767.13 
       0.325316         1074.13          739.94          739.94 
        0.33145         1050.15         713.118         713.118 
       0.337538         1033.14         687.166         687.166 
       0.343633         1009.22         662.342         662.342 
       0.349808         976.096         638.764         638.764 
       0.355968         970.016         616.994         616.994 
       0.362074         959.824         597.019         597.019 
       0.368217          930.83         578.285         578.285 
       0.374374         894.943         560.486         560.486 
       0.380519         896.381         543.384         543.384 
       0.386598         872.553          526.92          526.92 
       0.392688          869.34         510.791         510.791 
        0.39888          844.61          494.84          494.84 
       0.405048         833.093         479.509         479.509 
       0.411186         821.561         464.913         464.913 
       0.417313         804.876         451.091         451.091 
       0.423458          791.25         437.971         437.971 
       0.429607         780.332         425.521         425.521 
       0.435692         763.869         413.788         413.788 
       0.441815         758.596         402.456         402.456 
       0.447964         742.244         391.457         391.457 
       0.454126         733.955         380.775         380.775 
       0.460267         717.703         370.457         370.457 
       0.466387         709.795         360.498         360.498 
        0.47254         701.783         350.836         350.836 
       0.478662         697.141         341.599         341.599 
       0.484765         677.003          332.77          332.77 
       0.490885         672.498         324.276         324.276 
       0.497035          658.74         316.077         316.077 
       0.503198         653.913         308.176         308.176 
       0.509342         647.254         300.575         300.575 
       0.515458         643.378         293.252         293.252 
       0.521598          627.94         286.123         286.123 
       0.527764         615.595         279.188         279.188 
       0.533884         614.704         272.527         272.527 
           0.54         607.496         266.092         266.092 
       0.546137         603.371         259.849         259.849 
       0.552299         593.944         253.793         253.793 
       0.558452          590.59         247.955         247.955 
       0.564573         582.182         242.342         242.342 
       0.570708         575.582         236.898         236.898 
       0.576825         560.042         231.641         231.641 
       0.582926         562.164         226.554         226.554 
       0.589034         556.709          221.61          221.61 
       0.595184         551.291         216.779         216.779 
       0.601379         543.738         212.059         212.059 
       0.607522         536.535         207.521         207.521 
       0.613639          536.28         203.139         203.139 
       0.619772         523.286         198.878         198.878 
       0.625918         521.523         194.733         194.733 
       0.632068          514.15         190.707         190.707 
       0.638161         512.373         186.833         186.833 
         0.6443         502.886          183.04          183.04 
       0.650464         500.662         179.341         179.341 
       0.656582         497.814         175.771         175.771 
       0.662703          495.25         172.299         172.299 
       0.668861         486.429         168.902         168.902 
       0.675024         482.553         165.595         165.595 
       0.681124          479.41         162.411         162.411 
       0.687237             475         159.306         159.306 
       0.693381         469.043         156.269         156.269 
       0.699536         462.243         153.307         153.307 
       0.705665         460.926         150.436         150.436 
       0.711789         457.959         147.642         147.642 
       0.717957         453.616         144.901         144.901 
        0.72409         451.068         142.246         142.246 
       0.730186         444.661         139.675         139.675 
       0.736317         441.519         137.155         137.155 
       0.742472         439.618         134.688         134.688 
       0.748622         434.376         132.285         132.285 
        0.75476         428.647         129.946         129.946 
       0.760888         424.468         127.669         127.669 
       0.767043         425.187         125.437         125.437 
       0.773185         419.959         123.265         123.265 
       0.779291         415.019         121.157         121.157 
       0.785407         412.621         119.096         119.096 
       0.791564         407.617          117.07          117.07 
       0.797719         405.428         115.093         115.093 
       0.803834         401.635         113.175         113.175 
       0.809972         400.312         111.294         111.294 
       0.816124         399.306         109.453         109.453 
       0.822261         393.336         107.659         107.659 
       0.828378         391.041         105.911         105.911 
       0.834502         387.489           104.2           104.2 
       0.840667          383.81         102.517         102.517 
       0.846816         382.059         100.877         100.877 
       0.852925         378.877         99.2828         99.2828 
       0.859047         377.531         97.7203         97.7203 
       0.865192         373.002         96.1868         96.1868 
       0.871341         370.091         94.6857         94.6857 
       0.877463          368.84         93.2237         93.2237 
       0.883569         365.851         91.7968         91.7968 
       0.889708         362.853         90.3928         90.3928 
       0.895864         360.154         89.0149         89.0149 
       0.902008         357.849          87.669          87.669 
       0.908149         354.563         86.3521         86.3521 
       0.914301         351.378         85.0604         85.0604 
       0.920448         349.209         83.7967         83.7967 
       0.926574         344.569         82.5635         82.5635 
       0.932687         345.072         81.3579         81.3579 
       0.938823         340.911         80.1724         80.1724 
       0.944975         340.843         79.0081         79.0081 
       0.951105         336.797         77.8714         77.8714 
       0.957225         334.587         76.7593         76.7593 
       0.963368         330.699         75.6654         75.6654 
       0.969511         329.477          74.593          74.593 
       0.975621         326.918         73.5475         73.5475 
       0.981748         325.981         72.5195         72.5195 
       0.987916         323.637         71.5048         71.5048 
        0.99406         318.377         70.5137         70.5137 
        1.00019         317.739         69.5435         69.5435 
        1.00632         316.007         68.5926         68.5926 
        1.01246          313.34         67.6583         67.6583 
        1.01859         313.705         66.7431         66.7431 
        1.02471         308.969         65.8462         65.8462 
        1.03085         306.814         64.9628         64.9628 
        1.03698         306.025         64.0978         64.0978 
        1.04314         302.822         63.2449         63.2449 
        1.04929         300.391         62.4098         62.4098 
        1.05541         300.672         61.5932         61.5932 
        1.06154         295.729         60.7894         60.7894 
        1.06769         294.815         59.9989         59.9989 
        1.07382         292.936         59.2251         59.2251 
        1.07993         290.794         58.4669         58.4669 
        1.08607         289.971         57.7189         57.7189 
        1.09222         287.323         56.9834         56.9834 
        1.09836         285.331         56.2618         56.2618 
        1.10449         282.336         55.5535         55.5535 
        1.11063         279.886         54.8569         54.8569 
        1.11677         279.505         54.1725         54.1725 
         1.1229         277.652         53.5012         53.5012 
        1.12903         275.575         52.8407         52.8407 
        1.13518         273.441          52.191          52.191 
        1.14131         271.653         51.5526         51.5526 
        1.14745         270.682         50.9255         50.9255 
        1.15359         268.486         50.3087         50.3087 
        1.15973         266.671          49.702          49.702 
        1.16584         264.607         49.1082         49.1082 
        1.17197         264.332         48.5233         48.5233 
        1.17811         261.191         47.9462         47.9462 
        1.18424         259.393         47.3803         47.3803 
        1.19038         258.442          46.822          46.822 
        1.19652         256.291         46.2729         46.2729 
        1.20267         255.715         45.7328         45.7328 
        1.20881         253.468         45.2015         45.2015 
        1.21495          251.61         44.6796         44.6796 
        1.22108         250.157          44.166          44.166 
         1.2272         248.427         43.6619         43.6619 
        1.23334         246.948         43.1645         43.1645 
        1.23949         245.539         42.6738         42.6738 
        1.24562          244.21         42.1921         42.1921 
        1.25174         241.981         41.7187         41.7187 
        1.25789         240.064         41.2511         41.2511 
        1.26402         238.516         40.7917         40.7917 
        1.27014         236.997         40.3403         40.3403 
        1.27628          235.69         39.8946         39.8946 
        1.28244         235.195         39.4547         39.4547 
        1.28858         232.653         39.0222         39.0222 
        1.29471         230.864         38.5971         38.5971 
        1.30084         229.789         38.1788         38.1788 
        1.30697         228.244         37.7661         37.7661 
        1.31312         226.086          37.359          37.359 
        1.31925         225.766         36.9592         36.9592 
        1.32537         224.457         36.5657         36.5657 
        1.33151          222.17         36.1765         36.1765 
        1.33765         220.681         35.7934         35.7934 
        1.34378         219.869         35.4165         35.4165 
        1.34992         218.553         35.0449         35.0449 
        1.35606         218.288         34.6779         34.6779 
         1.3622         216.137         34.3168         34.3168 
        1.36833         214.005         33.9618         33.9618 
        1.37445         213.095          33.612          33.612 
        1.38059         211.271         33.2661         33.2661 
        1.38675         210.503         32.9243         32.9243 
        1.39288         208.921         32.5888         32.5888 
        1.39901         208.509          32.258          32.258 
        1.40515          206.38         31.9312         31.9312 
         1.4113          205.17         31.6091         31.6091 
        1.41742         203.752         31.2926         31.2926 
        1.42355         202.547           30.98           30.98 
         1.4297         200.979         30.6707         30.6707 
        1.43585         199.921         30.3658         30.3658 
        1.44198         198.735         30.0662         30.0662 
        1.44809         197.879         29.7713         29.7713 
        1.45423         196.424         29.4793         29.4793 
        1.46036         195.377         29.1917         29.1917 
        1.46649         193.657          28.908          28.908 
        1.47263         192.404         28.6278         28.6278 
        1.47877         191.441         28.3515         28.3515 
        1.48491         189.722         28.0784         28.0784 
        1.49104         189.208         27.8095         27.8095 
        1.49718         187.246          27.544          27.544 
        1.50333          186.62         27.2815         27.2815 
        1.50947         185.547         27.0231         27.0231 
         1.5156         183.792         26.7684         26.7684 
        1.52172         182.972         26.5169         26.5169 
        1.52787         181.493         26.2683         26.2683 
          1.534         180.999         26.0231         26.0231 
        1.54013         179.507         25.7814         25.7814 
        1.54627         178.514         25.5423         25.5423 
        1.55241         177.244         25.3062         25.3062 
        1.55855         176.168         25.0735         25.0735 
        1.56467         174.866         24.8443         24.8443 
         1.5708         174.377         24.6174         24.6174 
        1.57695         172.989          24.393          24.393 
        1.58308           172.1          24.172          24.172 
        1.58922         170.713         23.9535         23.9535 
        1.59535         169.333         23.7378         23.7378 
         1.6015         168.955         23.5246         23.5246 
        1.60764         167.626          23.314          23.314 
        1.61376         166.454         23.1066         23.1066 
        1.61989         165.583         22.9017         22.9017 
        1.62604         164.501         22.6987         22.6987 
        1.63218         163.585         22.4984         22.4984 
        1.63831         162.404         22.3009         22.3009 
        1.64444         161.679         22.1058         22.1058 
        1.65059         160.432         21.9126         21.9126 
        1.65673         159.258         21.7219         21.7219 
        1.66285         158.653          21.534          21.534 
        1.66898         157.423         21.3483         21.3483 
        1.67512         157.114         21.1644         21.1644 
        1.68127         155.312         20.9826         20.9826 
         1.6874         154.389         20.8033         20.8033 
        1.69353         153.808         20.6262         20.6262 
        1.69967         152.444         20.4508         20.4508 
        1.70581         151.798         20.2775         20.2775 
        1.71193         150.504         20.1069         20.1069 
        1.71806         150.103         19.9379         19.9379 
        1.72421         148.949         19.7705         19.7705 
        1.73035         148.413         19.6052         19.6052 
        1.73649         147.465         19.4419         19.4419 
        1.74262          146.23         19.2806         19.2806 
        1.74876         145.522          19.121          19.121 
        1.75489         144.468         18.9636         18.9636 
        1.76101         143.428          18.808          18.808 
        1.76715         142.981          18.654          18.654 
        1.77329         142.297         18.5015         18.5015 
        1.77943         141.114         18.3506         18.3506 
        1.78557         140.385         18.2017         18.2017 
        1.79171         139.575         18.0544         18.0544 
        1.79785          138.48         17.9087         17.9087 
        1.80399         137.684         17.7647         17.7647 
        1.81012         136.844         17.6225         17.6225 
        1.81625         136.201         17.4818         17.4818 
        1.82239         135.308         17.3426         17.3426 
        1.82853         134.738         17.2049         17.2049 
        1.83466         133.608         17.0689         17.0689 
        1.84078         133.119         16.9344         16.9344 
        1.84692         131.759         16.8013         16.8013 
        1.85306         131.555         16.6694         16.6694 
         1.8592         130.505         16.5391         16.5391 
        1.86533          129.56         16.4103         16.4103 
        1.87147         128.705         16.2827         16.2827 
        1.87761         128.236         16.1565         16.1565 
