# k  (h/Mpc)    P(k)  (Mpc/h)^3    P_linear(k)  (Mpc/h)^3     P_NL(k)  ShotnoiseSubtracted = false
     0.00783031         10766.5         10914.7         10914.7 
       0.013688         13905.2         13807.3         13807.3 
       0.019231         14247.6         14233.1         14233.1 
      0.0249154         13156.3         13405.5         13405.5 
      0.0312784         11755.1         11876.9         11876.9 
      0.0375637         10346.1         10363.3         10363.3 
      0.0433917         9054.53         9219.46         9219.46 
      0.0492413         8289.23         8366.89         8366.89 
      0.0555754         7468.04         7698.59         7698.59 
      0.0619321         7142.72          7160.3          7160.3 
       0.067871         6484.63         6669.65         6669.65 
      0.0738098         5965.73         6137.48         6137.48 
      0.0800417         5330.09         5537.65         5537.65 
      0.0862327         4822.31         4945.66         4945.66 
      0.0921407         4397.59         4436.57         4436.57 
      0.0982031         3954.26         4007.39         4007.39 
       0.104506         3723.43         3671.13         3671.13 
       0.110769         3467.91         3430.19         3430.19 
       0.116806         3267.14         3253.06         3253.06 
       0.122832         3120.44         3095.38         3095.38 
       0.129052         2895.28         2925.02         2925.02 
       0.135211         2727.35         2736.72         2736.72 
       0.141259         2586.26         2537.39         2537.39 
       0.147318         2421.91         2338.05         2338.05 
       0.153489          2219.8         2152.33         2152.33 
       0.159709         2100.61         1995.01         1995.01 
       0.165845         2023.57         1872.53         1872.53 
       0.171974         1914.18         1777.99         1777.99 
       0.178125            1828          1701.2          1701.2 
       0.184229          1757.6         1632.02         1632.02 
        0.19034         1650.81         1561.18         1561.18 
       0.196428         1616.12         1484.95         1484.95 
       0.202534          1554.3         1403.57         1403.57 
       0.208729         1476.47         1320.21         1320.21 
       0.214876         1405.28         1242.02         1242.02 
       0.220989         1360.35         1172.89         1172.89 
       0.227147         1296.68         1113.77         1113.77 
        0.23329         1248.57          1064.6          1064.6 
       0.239377         1227.88         1023.01         1023.01 
       0.245482         1150.75         985.145         985.145 
       0.251667         1142.41         947.797         947.797 
       0.257832         1098.95         909.784         909.784 
       0.263955         1062.23         870.939         870.939 
       0.270079         1025.36         831.895         831.895 
        0.27624         1013.32          793.87          793.87 
       0.282372         970.153         758.674         758.674 
        0.28843         956.642         727.294         727.294 
       0.294538         909.908         699.157         699.157 
       0.300721         906.753         673.735         673.735 
        0.30691         867.381         650.398         650.398 
       0.313033         851.059          628.46          628.46 
       0.319153         831.849         606.958         606.958 
       0.325316         805.687         585.445         585.445 
        0.33145         785.345         564.224         564.224 
       0.337538         774.284          543.69          543.69 
       0.343633          752.57         524.049         524.049 
       0.349808         727.564         505.394         505.394 
       0.355968         723.174         488.169         488.169 
       0.362074         712.596         472.366         472.366 
       0.368217         692.401         457.543         457.543 
       0.374374         663.911          443.46          443.46 
       0.380519         662.222         429.929         429.929 
       0.386598         645.726         416.903         416.903 
       0.392688         643.114         404.141         404.141 
        0.39888         624.402         391.521         391.521 
       0.405048         613.497          379.39          379.39 
       0.411186         603.845         367.842         367.842 
       0.417313         592.365         356.906         356.906 
       0.423458         582.181         346.525         346.525 
       0.429607         572.174         336.675         336.675 
       0.435692         559.278         327.392         327.392 
       0.441815         555.478         318.426         318.426 
       0.447964         543.665         309.723         309.723 
       0.454126         532.262         301.272         301.272 
       0.460267         523.382         293.108         293.108 
       0.466387         517.805         285.228         285.228 
        0.47254         508.095         277.584         277.584 
       0.478662         506.814         270.275         270.275 
       0.484765         491.231          263.29          263.29 
       0.490885         486.913         256.569         256.569 
       0.497035         477.836         250.082         250.082 
       0.503198         471.611          243.83          243.83 
       0.509342         467.661         237.817         237.817 
       0.515458         463.612         232.023         232.023 
       0.521598         453.265         226.383         226.383 
       0.527764         444.483         220.896         220.896 
       0.533884         442.765         215.625         215.625 
           0.54         436.879         210.533         210.533 
       0.546137         434.916         205.594         205.594 
       0.552299         426.448         200.803         200.803 
       0.558452         424.182         196.183         196.183 
       0.564573         417.632         191.742         191.742 
       0.570708         411.357         187.436         187.436 
       0.576825         402.624         183.276         183.276 
       0.582926         401.387         179.251         179.251 
       0.589034         397.537         175.339         175.339 
       0.595184          393.71         171.517         171.517 
       0.601379         388.979         167.783         167.783 
       0.607522         383.157         164.192         164.192 
       0.613639         381.664         160.725         160.725 
       0.619772         372.165         157.353         157.353 
       0.625918         371.397         154.074         154.074 
       0.632068          365.72         150.889         150.889 
       0.638161         364.316         147.823         147.823 
         0.6443         357.716         144.823         144.823 
       0.650464         355.049         141.895         141.895 
       0.656582         353.547         139.071         139.071 
       0.662703         351.265         136.324         136.324 
       0.668861         344.869         133.636         133.636 
       0.675024         341.519          131.02          131.02 
       0.681124         339.643         128.501         128.501 
       0.687237          335.98         126.044         126.044 
       0.693381         331.338         123.641         123.641 
       0.699536         328.196         121.297         121.297 
       0.705665         325.762         119.026         119.026 
       0.711789         323.053         116.815         116.815 
       0.717957         320.458         114.647         114.647 
        0.72409         317.491         112.546         112.546 
       0.730186         313.985         110.512         110.512 
       0.736317         310.993         108.518         108.518 
       0.742472         309.599         106.566         106.566 
       0.748622         306.451         104.665         104.665 
        0.75476         303.454         102.814         102.814 
       0.760888         299.849         101.012         101.012 
       0.767043         300.111         99.2469         99.2469 
       0.773185         296.049         97.5279         97.5279 
       0.779291         291.319           95.86           95.86 
       0.785407         290.504         94.2291         94.2291 
       0.791564         287.219         92.6265         92.6265 
       0.797719         284.822         91.0623         91.0623 
       0.803834         282.801         89.5448         89.5448 
       0.809972         281.048         88.0568         88.0568 
       0.816124         281.005         86.5999         86.5999 
       0.822261         276.493         85.1803         85.1803 
       0.828378         274.624         83.7972         83.7972 
       0.834502         273.644          82.444          82.444 
       0.840667         269.691         81.1124         81.1124 
       0.846816         268.236         79.8143         79.8143 
       0.852925         266.612         78.5531         78.5531 
       0.859047         264.706         77.3169         77.3169 
       0.865192         262.029         76.1036         76.1036 
       0.871341         259.868         74.9159         74.9159 
       0.877463         258.091         73.7592         73.7592 
       0.883569         256.796         72.6302         72.6302 
       0.889708         254.253         71.5193         71.5193 
       0.895864         251.212         70.4291         70.4291 
       0.902008         250.592         69.3643         69.3643 
       0.908149         249.278         68.3223         68.3223 
       0.914301         246.003         67.3003         67.3003 
       0.920448         244.218         66.3005         66.3005 
       0.926574         242.552         65.3247         65.3247 
       0.932687         242.527         64.3709         64.3709 
       0.938823         239.495         63.4329         63.4329 
       0.944975         238.109         62.5117         62.5117 
       0.951105         236.657         61.6124         61.6124 
       0.957225         234.495         60.7324         60.7324 
       0.963368         231.585         59.8669         59.8669 
       0.969511          230.63         59.0185         59.0185 
       0.975621         228.581         58.1912         58.1912 
       0.981748         228.778         57.3778         57.3778 
       0.987916         226.161         56.5751         56.5751 
        0.99406         223.742         55.7909         55.7909 
        1.00019         223.687         55.0232         55.0232 
        1.00632         221.673         54.2709         54.2709 
        1.01246         219.955         53.5317         53.5317 
        1.01859         219.475         52.8076         52.8076 
        1.02471         217.022         52.0979         52.0979 
        1.03085          214.68          51.399          51.399 
        1.03698         213.886         50.7145         50.7145 
        1.04314         212.083         50.0398         50.0398 
        1.04929         210.633          49.379          49.379 
        1.05541         210.297         48.7329         48.7329 
        1.06154         208.036         48.0969         48.0969 
        1.06769         207.604         47.4715         47.4715 
        1.07382         205.968         46.8593         46.8593 
        1.07993         204.086         46.2594         46.2594 
        1.08607         203.418         45.6676         45.6676 
        1.09222         202.114         45.0857         45.0857 
        1.09836         200.237         44.5147         44.5147 
        1.10449         198.285         43.9543         43.9543 
        1.11063         196.664         43.4031         43.4031 
        1.11677         196.389         42.8616         42.8616 
         1.1229         194.745         42.3304         42.3304 
        1.12903         193.616         41.8079         41.8079 
        1.13518           192.6         41.2938         41.2938 
        1.14131         190.852         40.7888         40.7888 
        1.14745         190.474         40.2925         40.2925 
        1.15359         188.882         39.8046         39.8046 
        1.15973         188.029         39.3246         39.3246 
        1.16584         185.961         38.8547         38.8547 
        1.17197         185.538         38.3919         38.3919 
        1.17811         184.105         37.9353         37.9353 
        1.18424         183.032         37.4876         37.4876 
        1.19038         182.432         37.0458         37.0458 
        1.19652         180.979         36.6114         36.6114 
        1.20267         180.216         36.1841         36.1841 
        1.20881         178.451         35.7637         35.7637 
        1.21495         177.717         35.3508         35.3508 
        1.22108         176.726         34.9445         34.9445 
         1.2272         175.118         34.5456         34.5456 
        1.23334         174.389          34.152          34.152 
        1.23949         173.032         33.7638         33.7638 
        1.24562         172.198         33.3827         33.3827 
        1.25174         170.202         33.0081         33.0081 
        1.25789         169.347         32.6382         32.6382 
        1.26402         168.491         32.2746         32.2746 
        1.27014         167.301         31.9175         31.9175 
        1.27628         166.472         31.5648         31.5648 
        1.28244         166.024         31.2168         31.2168 
        1.28858         164.676         30.8746         30.8746 
        1.29471          162.97         30.5382         30.5382 
        1.30084         162.349         30.2073         30.2073 
        1.30697         161.276         29.8808         29.8808 
        1.31312         160.505         29.5586         29.5586 
        1.31925         159.511         29.2423         29.2423 
        1.32537         158.544          28.931          28.931 
        1.33151         157.052         28.6231         28.6231 
        1.33765         156.565         28.3199         28.3199 
        1.34378         155.509         28.0218         28.0218 
        1.34992         154.877         27.7278         27.7278 
        1.35606           154.2         27.4374         27.4374 
         1.3622         152.895         27.1517         27.1517 
        1.36833          151.73         26.8708         26.8708 
        1.37445         150.726          26.594          26.594 
        1.38059         150.112         26.3204         26.3204 
        1.38675         149.159         26.0499         26.0499 
        1.39288         148.458         25.7844         25.7844 
        1.39901         148.093         25.5228         25.5228 
        1.40515         146.636         25.2642         25.2642 
         1.4113         145.318         25.0093         25.0093 
        1.41742          144.81         24.7589         24.7589 
        1.42355         143.804         24.5115         24.5115 
         1.4297         143.011         24.2668         24.2668 
        1.43585         141.681         24.0256         24.0256 
        1.44198         141.451         23.7886         23.7886 
        1.44809         140.502         23.5552         23.5552 
        1.45423         139.422         23.3242         23.3242 
        1.46036         138.833         23.0967         23.0967 
        1.46649           137.8         22.8722         22.8722 
        1.47263         137.234         22.6505         22.6505 
        1.47877         136.518         22.4319         22.4319 
        1.48491         135.027         22.2158         22.2158 
        1.49104         134.861         22.0031         22.0031 
        1.49718         133.388          21.793          21.793 
        1.50333         132.964         21.5853         21.5853 
        1.50947         132.359         21.3808         21.3808 
         1.5156         131.385         21.1793         21.1793 
        1.52172           130.5         20.9804         20.9804 
        1.52787         129.799         20.7836         20.7836 
          1.534         129.079         20.5897         20.5897 
        1.54013         128.091         20.3984         20.3984 
        1.54627         127.612         20.2092         20.2092 
        1.55241         126.573         20.0225         20.0225 
        1.55855         126.003         19.8383         19.8383 
        1.56467         125.444          19.657          19.657 
         1.5708         124.482         19.4775         19.4775 
        1.57695         123.906         19.2999         19.2999 
        1.58308         123.159          19.125          19.125 
        1.58922         122.637         18.9522         18.9522 
        1.59535           121.6         18.7815         18.7815 
         1.6015         121.121         18.6128         18.6128 
        1.60764         120.339         18.4462         18.4462 
        1.61376          119.91         18.2821         18.2821 
        1.61989         118.873         18.1199         18.1199 
        1.62604         118.366         17.9594         17.9594 
        1.63218         117.655         17.8009         17.8009 
        1.63831         116.754         17.6446         17.6446 
        1.64444         116.387         17.4902         17.4902 
        1.65059         115.757         17.3374         17.3374 
        1.65673         114.535         17.1865         17.1865 
        1.66285         114.484         17.0378         17.0378 
        1.66898         113.649         16.8909         16.8909 
        1.67512         113.088         16.7454         16.7454 
        1.68127         112.218         16.6015         16.6015 
         1.6874         111.278         16.4597         16.4597 
        1.69353         110.882         16.3196         16.3196 
        1.69967          110.41         16.1808         16.1808 
        1.70581         109.656         16.0437         16.0437 
        1.71193           109.2         15.9087         15.9087 
        1.71806         108.449          15.775          15.775 
        1.72421         107.784         15.6425         15.6425 
        1.73035         107.294         15.5118         15.5118 
        1.73649         106.531         15.3826         15.3826 
        1.74262         105.879         15.2549         15.2549 
        1.74876         105.539         15.1287         15.1287 
        1.75489         104.537         15.0041         15.0041 
        1.76101         104.181          14.881          14.881 
        1.76715         103.312         14.7591         14.7591 
        1.77329         103.086         14.6385         14.6385 
        1.77943         102.172         14.5191         14.5191 
        1.78557         101.724         14.4013         14.4013 
        1.79171          101.08         14.2848         14.2848 
        1.79785          100.52         14.1695         14.1695 
        1.80399          99.949         14.0555         14.0555 
        1.81012         99.4741          13.943          13.943 
        1.81625         98.7653         13.8317         13.8317 
        1.82239          98.487         13.7216         13.7216 
        1.82853           97.99         13.6126         13.6126 
        1.83466          97.147          13.505          13.505 
        1.84078         96.9402         13.3986         13.3986 
        1.84692         96.0669         13.2933         13.2933 
        1.85306         95.4847         13.1889         13.1889 
         1.8592         94.9595         13.0858         13.0858 
        1.86533         94.4592         12.9839         12.9839 
        1.87147         93.6751          12.883          12.883 
        1.87761         93.4324         12.7831         12.7831 
