# k  (h/Mpc)    P(k)  (Mpc/h)^3    P_linear(k)  (Mpc/h)^3     P_NL(k)  ShotnoiseSubtracted = false
     0.00783031         7051.32         7139.75         7139.75 
       0.013688         9073.75         9028.37         9028.37 
       0.019231         9317.03          9306.2          9306.2 
      0.0249154         8639.01         8764.93         8764.93 
      0.0312784         7713.01         7765.45         7765.45 
      0.0375637         6778.71         6775.84         6775.84 
      0.0433917         5954.04         6027.96         6027.96 
      0.0492413         5441.72         5470.53         5470.53 
      0.0555754         4926.72         5033.59         5033.59 
      0.0619321         4688.68         4681.64         4681.64 
       0.067871         4279.13         4360.85         4360.85 
      0.0738098         3935.24          4012.9          4012.9 
      0.0800417          3523.4         3620.71         3620.71 
      0.0862327         3179.12         3233.65         3233.65 
      0.0921407         2886.45         2900.79         2900.79 
      0.0982031         2594.78         2620.18         2620.18 
       0.104506         2431.11         2400.32         2400.32 
       0.110769         2265.25         2242.79         2242.79 
       0.116806         2131.22         2126.97         2126.97 
       0.122832         2038.89         2023.88         2023.88 
       0.129052         1897.69         1912.49         1912.49 
       0.135211         1783.72         1789.37         1789.37 
       0.141259         1683.26         1659.04         1659.04 
       0.147318          1570.7         1528.71         1528.71 
       0.153489          1439.3         1407.28         1407.28 
       0.159709         1355.69         1304.41         1304.41 
       0.165845         1299.26         1224.33         1224.33 
       0.171974         1225.71         1162.52         1162.52 
       0.178125          1172.6         1112.31         1112.31 
       0.184229         1129.26         1067.08         1067.08 
        0.19034          1057.5         1020.76         1020.76 
       0.196428         1032.63         970.919         970.919 
       0.202534         993.505          917.71          917.71 
       0.208729         938.951         863.204         863.204 
       0.214876         886.528         812.082         812.082 
       0.220989         857.648         766.879         766.879 
       0.227147         812.093         728.225         728.225 
        0.23329         781.298          696.08          696.08 
       0.239377         764.836         668.885         668.885 
       0.245482         716.856         644.127         644.127 
       0.251667         708.931         619.707         619.707 
       0.257832         683.467         594.853         594.853 
       0.263955         659.048         569.455         569.455 
       0.270079         635.137         543.926         543.926 
        0.27624         625.112         519.064         519.064 
       0.282372         598.802         496.051         496.051 
        0.28843         582.698         475.533         475.533 
       0.294538         556.033         457.137         457.137 
       0.300721         552.468         440.514         440.514 
        0.30691         527.387         425.256         425.256 
       0.313033         516.346         410.912         410.912 
       0.319153         499.446         396.853         396.853 
       0.325316         485.552         382.788         382.788 
        0.33145         470.969         368.912         368.912 
       0.337538          464.52         355.486         355.486 
       0.343633         449.418         342.644         342.644 
       0.349808         435.188         330.447         330.447 
       0.355968         430.227         319.185         319.185 
       0.362074         420.829         308.852         308.852 
       0.368217         409.614          299.16          299.16 
       0.374374         394.417         289.952         289.952 
       0.380519         389.729         281.104         281.104 
       0.386598         380.341         272.588         272.588 
       0.392688          376.79         264.243         264.243 
        0.39888         366.483         255.992         255.992 
       0.405048         358.581         248.061         248.061 
       0.411186         351.287          240.51          240.51 
       0.417313         345.036         233.359         233.359 
       0.423458         338.442         226.572         226.572 
       0.429607         331.086         220.131         220.131 
       0.435692         322.568         214.062         214.062 
       0.441815          320.25         208.199         208.199 
       0.447964          314.14         202.509         202.509 
       0.454126          302.68         196.983         196.983 
       0.460267         299.273         191.646         191.646 
       0.466387         295.839         186.494         186.494 
        0.47254         289.312         181.495         181.495 
       0.478662         287.806         176.717         176.717 
       0.484765         279.553         172.149         172.149 
       0.490885         275.873         167.755         167.755 
       0.497035         271.731         163.514         163.514 
       0.503198         265.399         159.426         159.426 
       0.509342         262.766         155.494         155.494 
       0.515458         259.499         151.706         151.706 
       0.521598         255.305         148.018         148.018 
       0.527764         251.084          144.43          144.43 
       0.533884         247.948         140.984         140.984 
           0.54         244.429         137.655         137.655 
       0.546137         242.986         134.426         134.426 
       0.552299         238.365         131.293         131.293 
       0.558452         235.324         128.272         128.272 
       0.564573         231.473         125.369         125.369 
       0.570708         227.535         122.553         122.553 
       0.576825         224.616         119.833         119.833 
       0.582926         221.743         117.202         117.202 
       0.589034         218.771         114.644         114.644 
       0.595184         216.534         112.144         112.144 
       0.601379         214.521         109.703         109.703 
       0.607522         210.019         107.355         107.355 
       0.613639         209.098         105.089         105.089 
       0.619772         204.414         102.884         102.884 
       0.625918         202.729          100.74          100.74 
       0.632068         200.329         98.6571         98.6571 
       0.638161         199.045         96.6529         96.6529 
         0.6443         195.948         94.6909         94.6909 
       0.650464         193.977         92.7769         92.7769 
       0.656582         192.261         90.9304         90.9304 
       0.662703         189.729         89.1342         89.1342 
       0.668861         187.057         87.3768         87.3768 
       0.675024         184.876         85.6661         85.6661 
       0.681124         183.954         84.0191         84.0191 
       0.687237         180.867         82.4127         82.4127 
       0.693381         178.458         80.8414         80.8414 
       0.699536         177.249         79.3091         79.3091 
       0.705665         177.014         77.8237         77.8237 
       0.711789         173.232         76.3785         76.3785 
       0.717957         172.521         74.9606         74.9606 
        0.72409         170.252         73.5873         73.5873 
       0.730186          167.66         72.2572         72.2572 
       0.736317         166.824         70.9532         70.9532 
       0.742472         165.674         69.6771         69.6771 
       0.748622         164.273         68.4339         68.4339 
        0.75476          162.76         67.2242         67.2242 
       0.760888         160.524         66.0459         66.0459 
       0.767043         159.583         64.8916         64.8916 
       0.773185         157.948         63.7677         63.7677 
       0.779291         155.681         62.6771         62.6771 
       0.785407         154.909         61.6108         61.6108 
       0.791564         153.358         60.5629         60.5629 
       0.797719         151.359         59.5402         59.5402 
       0.803834         150.692          58.548          58.548 
       0.809972         148.703         57.5751         57.5751 
       0.816124         148.542         56.6225         56.6225 
       0.822261         146.701         55.6943         55.6943 
       0.828378         145.312           54.79           54.79 
       0.834502         144.936         53.9052         53.9052 
       0.840667         142.837         53.0346         53.0346 
       0.846816          141.65         52.1858         52.1858 
       0.852925         140.576         51.3612         51.3612 
       0.859047         138.978         50.5529         50.5529 
       0.865192          138.26         49.7596         49.7596 
       0.871341         136.889          48.983          48.983 
       0.877463         135.705         48.2267         48.2267 
       0.883569         134.708         47.4885         47.4885 
       0.889708         133.779         46.7622         46.7622 
       0.895864         132.486         46.0494         46.0494 
       0.902008         131.645         45.3531         45.3531 
       0.908149         130.853         44.6719         44.6719 
       0.914301         129.374         44.0037         44.0037 
       0.920448         128.561         43.3499         43.3499 
       0.926574         127.777         42.7119         42.7119 
       0.932687         127.115         42.0883         42.0883 
       0.938823         125.367          41.475          41.475 
       0.944975         124.476         40.8727         40.8727 
       0.951105         123.714         40.2846         40.2846 
       0.957225         122.204         39.7093         39.7093 
       0.963368         121.544         39.1434         39.1434 
       0.969511          121.06         38.5887         38.5887 
       0.975621         120.471         38.0478         38.0478 
       0.981748         119.544         37.5159         37.5159 
       0.987916         118.206         36.9911         36.9911 
        0.99406         117.642         36.4783         36.4783 
        1.00019         116.689         35.9764         35.9764 
        1.00632         116.006         35.4845         35.4845 
        1.01246         115.061         35.0012         35.0012 
        1.01859          113.66         34.5277         34.5277 
        1.02471         113.847         34.0637         34.0637 
        1.03085         112.644         33.6067         33.6067 
        1.03698         111.731         33.1592         33.1592 
        1.04314         110.775          32.718          32.718 
        1.04929         110.194          32.286          32.286 
        1.05541         109.408         31.8635         31.8635 
        1.06154         108.771         31.4477         31.4477 
        1.06769         108.318         31.0388         31.0388 
        1.07382         107.788         30.6385         30.6385 
        1.07993         106.962         30.2462         30.2462 
        1.08607         106.055         29.8593         29.8593 
        1.09222         105.517         29.4788         29.4788 
        1.09836         104.672         29.1055         29.1055 
        1.10449         104.026         28.7391         28.7391 
        1.11063         103.374         28.3787         28.3787 
        1.11677         102.832         28.0247         28.0247 
         1.1229         101.814         27.6774         27.6774 
        1.12903         100.892         27.3357         27.3357 
        1.13518          101.12         26.9996         26.9996 
        1.14131         100.224         26.6693         26.6693 
        1.14745         99.2363         26.3449         26.3449 
        1.15359           98.79         26.0258         26.0258 
        1.15973         98.3946          25.712          25.712 
        1.16584         97.5887         25.4048         25.4048 
        1.17197         96.9982         25.1022         25.1022 
        1.17811         96.3922         24.8036         24.8036 
        1.18424         95.6673         24.5109         24.5109 
        1.19038         95.1479         24.2221         24.2221 
        1.19652         94.7143          23.938          23.938 
        1.20267         93.9397         23.6586         23.6586 
        1.20881         93.3998         23.3838         23.3838 
        1.21495         92.7223         23.1138         23.1138 
        1.22108         92.1864         22.8481         22.8481 
         1.2272         91.5381         22.5873         22.5873 
        1.23334         91.1206           22.33           22.33 
        1.23949         90.4473         22.0761         22.0761 
        1.24562          90.147         21.8269         21.8269 
        1.25174         89.5245          21.582          21.582 
        1.25789         89.0344         21.3401         21.3401 
        1.26402         88.6178         21.1024         21.1024 
        1.27014         87.6972          20.869          20.869 
        1.27628         87.5401         20.6384         20.6384 
        1.28244           86.72         20.4108         20.4108 
        1.28858         86.3905          20.187          20.187 
        1.29471         85.9375         19.9671         19.9671 
        1.30084         85.3035         19.7507         19.7507 
        1.30697         84.7918         19.5372         19.5372 
        1.31312         84.3862         19.3266         19.3266 
        1.31925         84.0272         19.1198         19.1198 
        1.32537         83.5747         18.9162         18.9162 
        1.33151         82.7806         18.7149         18.7149 
        1.33765         82.3639         18.5167         18.5167 
        1.34378         81.8447         18.3218         18.3218 
        1.34992         81.5659         18.1295         18.1295 
        1.35606         81.0827         17.9397         17.9397 
         1.3622          80.328         17.7529         17.7529 
        1.36833         80.1863         17.5692         17.5692 
        1.37445         79.6043         17.3883         17.3883 
        1.38059           79.08         17.2093         17.2093 
        1.38675         78.6606         17.0325         17.0325 
        1.39288         78.1173         16.8589         16.8589 
        1.39901         78.0012         16.6878         16.6878 
        1.40515         77.5628         16.5187         16.5187 
         1.4113         76.9228         16.3521         16.3521 
        1.41742         76.7295         16.1884         16.1884 
        1.42355         76.0657         16.0266         16.0266 
         1.4297         75.7138         15.8666         15.8666 
        1.43585         75.1599         15.7089         15.7089 
        1.44198         74.9059         15.5539         15.5539 
        1.44809         74.4561         15.4014         15.4014 
        1.45423         74.1037         15.2503         15.2503 
        1.46036         73.7478         15.1015         15.1015 
        1.46649         73.2737         14.9547         14.9547 
        1.47263         72.8652         14.8098         14.8098 
        1.47877         72.6325         14.6669         14.6669 
        1.48491         72.1709         14.5256         14.5256 
        1.49104         71.6953         14.3865         14.3865 
        1.49718         71.2697         14.2491         14.2491 
        1.50333         70.9135         14.1134         14.1134 
        1.50947          70.455         13.9796         13.9796 
         1.5156          70.228         13.8479         13.8479 
        1.52172         69.7907         13.7178         13.7178 
        1.52787         69.5639         13.5892         13.5892 
          1.534         69.1825         13.4624         13.4624 
        1.54013          68.706         13.3373         13.3373 
        1.54627         68.4028         13.2136         13.2136 
        1.55241         67.9389         13.0915         13.0915 
        1.55855         67.5422         12.9711         12.9711 
        1.56467         67.0607         12.8525         12.8525 
         1.5708         66.9756         12.7352         12.7352 
        1.57695         66.6608         12.6191         12.6191 
        1.58308         66.1642         12.5047         12.5047 
        1.58922          66.017         12.3917         12.3917 
        1.59535         65.7247         12.2801         12.2801 
         1.6015         65.1189         12.1698         12.1698 
        1.60764         64.9715         12.0609         12.0609 
        1.61376         64.5204         11.9536         11.9536 
        1.61989         64.1002         11.8475         11.8475 
        1.62604         63.9112         11.7426         11.7426 
        1.63218         63.6968         11.6389         11.6389 
        1.63831         63.2636         11.5368         11.5368 
        1.64444         62.9598         11.4358         11.4358 
        1.65059         62.4316         11.3359         11.3359 
        1.65673         62.2626         11.2372         11.2372 
        1.66285         61.9294           11.14           11.14 
        1.66898         61.6194         11.0439         11.0439 
        1.67512          61.201         10.9488         10.9488 
        1.68127         60.8517         10.8548         10.8548 
         1.6874         60.6499          10.762          10.762 
        1.69353         60.2986         10.6704         10.6704 
        1.69967         60.0143         10.5796         10.5796 
        1.70581         59.8428           10.49           10.49 
        1.71193         59.5422         10.4017         10.4017 
        1.71806         58.9935         10.3143         10.3143 
        1.72421         58.8946         10.2277         10.2277 
        1.73035         58.4885         10.1422         10.1422 
        1.73649         58.0905         10.0577         10.0577 
        1.74262         57.9659         9.97429         9.97429 
        1.74876          57.708         9.89174         9.89174 
        1.75489          57.296          9.8103          9.8103 
        1.76101         57.1153         9.72981         9.72981 
        1.76715         56.6961         9.65011         9.65011 
        1.77329         56.4494         9.57122         9.57122 
        1.77943         56.2018         9.49319         9.49319 
        1.78557         55.9931         9.41614         9.41614 
        1.79171         55.6315         9.33995         9.33995 
        1.79785         55.3954         9.26459         9.26459 
        1.80399         55.0476         9.19008         9.19008 
        1.81012         54.9255          9.1165          9.1165 
        1.81625         54.3694         9.04376         9.04376 
        1.82239         54.2321         8.97171         8.97171 
        1.82853         53.8097         8.90048         8.90048 
        1.83466          53.709         8.83011         8.83011 
        1.84078         53.2651         8.76057         8.76057 
        1.84692         53.0455         8.69167         8.69167 
        1.85306         52.8153         8.62344         8.62344 
         1.8592         52.4785         8.55605         8.55605 
        1.86533         52.2671         8.48942         8.48942 
        1.87147         52.0078         8.42342         8.42342 
        1.87761          51.807         8.35811         8.35811 
