# k  (h/Mpc)    P(k)  (Mpc/h)^3    P_linear(k)  (Mpc/h)^3     P_NL(k)  ShotnoiseSubtracted = false
     0.00783031         2086.91         2108.74         2108.74 
       0.013688         2668.46         2667.06         2667.06 
       0.019231         2750.92         2749.44         2749.44 
      0.0249154         2570.06          2589.7          2589.7 
      0.0312784         2289.82          2294.5          2294.5 
      0.0375637         2006.86         2002.16         2002.16 
      0.0433917         1774.19         1781.21         1781.21 
      0.0492413         1616.12         1616.51         1616.51 
      0.0555754         1475.42         1487.42         1487.42 
      0.0619321         1389.47         1383.43         1383.43 
       0.067871         1280.57         1288.64         1288.64 
      0.0738098         1177.39         1185.83         1185.83 
      0.0800417         1058.33         1069.94         1069.94 
      0.0862327         950.225         955.563         955.563 
      0.0921407         856.691         857.203         857.203 
      0.0982031         771.104         774.282         774.282 
       0.104506         714.769         709.315         709.315 
       0.110769         666.722         662.763         662.763 
       0.116806         627.736          628.54          628.54 
       0.122832         600.569         598.075         598.075 
       0.129052         562.909          565.16          565.16 
       0.135211         526.997         528.777         528.777 
       0.141259         492.895         490.264         490.264 
       0.147318         457.358          451.75          451.75 
       0.153489         419.513         415.866         415.866 
       0.159709         391.037         385.468         385.468 
       0.165845         371.471         361.804         361.804 
       0.171974         349.537         343.537         343.537 
       0.178125         335.026         328.701         328.701 
       0.184229         322.588         315.334         315.334 
        0.19034         304.075         301.646         301.646 
       0.196428         293.247         286.918         286.918 
       0.202534         280.754         271.194         271.194 
       0.208729         263.499         255.087         255.087 
       0.214876           246.9          239.98          239.98 
       0.220989         237.213         226.622         226.622 
       0.227147         222.949         215.199         215.199 
        0.23329         213.789           205.7           205.7 
       0.239377         207.072         197.664         197.664 
       0.245482         196.625         190.347         190.347 
       0.251667         192.121         183.131         183.131 
       0.257832          184.89         175.786         175.786 
       0.263955         177.276         168.281         168.281 
       0.270079         170.221         160.737         160.737 
        0.27624         165.056          153.39          153.39 
       0.282372         158.104         146.589         146.589 
        0.28843         151.422         140.526         140.526 
       0.294538         145.576          135.09          135.09 
       0.300721         142.396         130.178         130.178 
        0.30691         136.324         125.669         125.669 
       0.313033         132.256          121.43          121.43 
       0.319153         126.246         117.275         117.275 
       0.325316         124.023         113.119         113.119 
        0.33145         119.304         109.018         109.018 
       0.337538         116.288         105.051         105.051 
       0.343633         112.149         101.256         101.256 
       0.349808         108.746         97.6512         97.6512 
       0.355968          105.78         94.3231         94.3231 
       0.362074         102.514         91.2696         91.2696 
       0.368217          99.603         88.4055         88.4055 
       0.374374         96.6534         85.6845         85.6845 
       0.380519         94.2631           83.07           83.07 
       0.386598         91.6914         80.5531         80.5531 
       0.392688         89.7833         78.0873         78.0873 
        0.39888          87.156         75.6489         75.6489 
       0.405048         85.0582         73.3051         73.3051 
       0.411186         83.0821         71.0738         71.0738 
       0.417313         80.4339         68.9607         68.9607 
       0.423458         78.4715          66.955          66.955 
       0.429607         76.3878         65.0517         65.0517 
       0.435692         74.0394          63.258          63.258 
       0.441815         73.0006         61.5256         61.5256 
       0.447964         71.7646         59.8441         59.8441 
       0.454126         68.8385         58.2112         58.2112 
       0.460267         67.6932         56.6338         56.6338 
       0.466387         65.8972         55.1113         55.1113 
        0.47254         64.8683         53.6342         53.6342 
       0.478662         63.7284         52.2221         52.2221 
       0.484765         61.9775         50.8724         50.8724 
       0.490885         60.6308         49.5738         49.5738 
       0.497035         59.7737         48.3205         48.3205 
       0.503198         58.2313         47.1125         47.1125 
       0.509342         56.7769         45.9505         45.9505 
       0.515458         55.6854          44.831          44.831 
       0.521598          54.822         43.7413         43.7413 
       0.527764         53.7234         42.6811         42.6811 
       0.533884         52.7834         41.6628         41.6628 
           0.54         51.7111         40.6789         40.6789 
       0.546137         50.9287         39.7246         39.7246 
       0.552299          50.135         38.7988         38.7988 
       0.558452         48.6276         37.9062         37.9062 
       0.564573         47.8922         37.0481         37.0481 
       0.570708         47.2182          36.216          36.216 
       0.576825         46.0987         35.4123         35.4123 
       0.582926          45.255         34.6346         34.6346 
       0.589034          44.096         33.8787         33.8787 
       0.595184           43.55         33.1401         33.1401 
       0.601379         42.8536         32.4187         32.4187 
       0.607522         41.9724         31.7249         31.7249 
       0.613639         41.6647         31.0551         31.0551 
       0.619772         40.5886         30.4035         30.4035 
       0.625918         40.3728         29.7699         29.7699 
       0.632068         39.7255         29.1545         29.1545 
       0.638161         38.9378         28.5622         28.5622 
         0.6443         38.2018         27.9824         27.9824 
       0.650464         37.5596         27.4168         27.4168 
       0.656582         37.3115         26.8711         26.8711 
       0.662703         36.5874         26.3403         26.3403 
       0.668861         35.9677          25.821          25.821 
       0.675024         35.3666         25.3155         25.3155 
       0.681124         34.7638         24.8287         24.8287 
       0.687237         34.1794          24.354          24.354 
       0.693381         33.8929         23.8897         23.8897 
       0.699536         33.0833         23.4369         23.4369 
       0.705665         33.0152         22.9979         22.9979 
       0.711789         32.2608         22.5708         22.5708 
       0.717957           31.87         22.1519         22.1519 
        0.72409         31.4049          21.746          21.746 
       0.730186          30.964          21.353          21.353 
       0.736317         30.6572         20.9676         20.9676 
       0.742472          30.122         20.5905         20.5905 
       0.748622         29.8351         20.2231         20.2231 
        0.75476         29.3096         19.8656         19.8656 
       0.760888         28.9236         19.5174         19.5174 
       0.767043         28.5853         19.1763         19.1763 
       0.773185         28.0903         18.8442         18.8442 
       0.779291         27.9355         18.5219         18.5219 
       0.785407         27.6039         18.2068         18.2068 
       0.791564         27.0942         17.8971         17.8971 
       0.797719         26.5643         17.5949         17.5949 
       0.803834         26.5128         17.3017         17.3017 
       0.809972         26.2498         17.0142         17.0142 
       0.816124         25.6213         16.7327         16.7327 
       0.822261         25.4683         16.4584         16.4584 
       0.828378         25.2023         16.1912         16.1912 
       0.834502         24.9248         15.9297         15.9297 
       0.840667         24.6134         15.6724         15.6724 
       0.846816         24.1955         15.4216         15.4216 
       0.852925         23.9841         15.1779         15.1779 
       0.859047         23.7068         14.9391         14.9391 
       0.865192         23.4792         14.7046         14.7046 
       0.871341         23.3028         14.4751         14.4751 
       0.877463         22.8753         14.2516         14.2516 
       0.883569         22.5969         14.0335         14.0335 
       0.889708         22.2955         13.8189         13.8189 
       0.895864         22.1469         13.6082         13.6082 
       0.902008         21.9698         13.4025         13.4025 
       0.908149         21.7225         13.2011         13.2011 
       0.914301          21.584         13.0037         13.0037 
       0.920448         21.1446         12.8105         12.8105 
       0.926574         20.9964         12.6219         12.6219 
       0.932687         20.7684         12.4376         12.4376 
       0.938823         20.5057         12.2564         12.2564 
       0.944975         20.2818         12.0784         12.0784 
       0.951105         20.1284         11.9046         11.9046 
       0.957225         19.9182         11.7346         11.7346 
       0.963368         19.7276         11.5674         11.5674 
       0.969511         19.5671         11.4035         11.4035 
       0.975621         19.3977         11.2436         11.2436 
       0.981748         19.1407         11.0865         11.0865 
       0.987916         19.0038         10.9314         10.9314 
        0.99406         18.7655         10.7798         10.7798 
        1.00019         18.5068         10.6315         10.6315 
        1.00632         18.4679         10.4861         10.4861 
        1.01246         18.2791         10.3433         10.3433 
        1.01859         18.0045         10.2034         10.2034 
        1.02471         17.9353         10.0663         10.0663 
        1.03085         17.7622         9.93124         9.93124 
        1.03698         17.4758         9.79899         9.79899 
        1.04314         17.3831         9.66861         9.66861 
        1.04929         17.1682         9.54094         9.54094 
        1.05541         16.9923          9.4161          9.4161 
        1.06154         16.8747         9.29322         9.29322 
        1.06769         16.7847         9.17237         9.17237 
        1.07382          16.572         9.05408         9.05408 
        1.07993         16.4742         8.93817         8.93817 
        1.08607         16.2831         8.82382         8.82382 
        1.09222          16.163         8.71138         8.71138 
        1.09836         15.9642         8.60106         8.60106 
        1.10449          15.876         8.49279         8.49279 
        1.11063         15.7029         8.38628         8.38628 
        1.11677         15.6315         8.28166         8.28166 
         1.1229         15.5278         8.17903         8.17903 
        1.12903         15.3367         8.07806         8.07806 
        1.13518         15.1626         7.97873         7.97873 
        1.14131         15.0819         7.88115         7.88115 
        1.14745         14.9587         7.78527         7.78527 
        1.15359         14.8571         7.69098         7.69098 
        1.15973          14.724         7.59823         7.59823 
        1.16584         14.5166         7.50745         7.50745 
        1.17197         14.4681         7.41803         7.41803 
        1.17811         14.3549         7.32981         7.32981 
        1.18424         14.2218          7.2433          7.2433 
        1.19038           14.16         7.15794         7.15794 
        1.19652         14.0199         7.07401         7.07401 
        1.20267         13.8744         6.99144         6.99144 
        1.20881         13.8409         6.91022         6.91022 
        1.21495         13.7274         6.83042         6.83042 
        1.22108          13.569         6.75192         6.75192 
         1.2272         13.4654         6.67484         6.67484 
        1.23334         13.3446         6.59881         6.59881 
        1.23949         13.2365         6.52379         6.52379 
        1.24562         13.1869         6.45015         6.45015 
        1.25174          13.094         6.37778         6.37778 
        1.25789         12.9937          6.3063          6.3063 
        1.26402         12.9339         6.23605         6.23605 
        1.27014         12.8113         6.16706         6.16706 
        1.27628         12.6497         6.09891         6.09891 
        1.28244         12.5766         6.03167         6.03167 
        1.28858         12.5555         5.96554         5.96554 
        1.29471         12.4183         5.90056         5.90056 
        1.30084         12.3016         5.83661         5.83661 
        1.30697         12.2656         5.77352         5.77352 
        1.31312          12.104         5.71128         5.71128 
        1.31925         12.0274         5.65016         5.65016 
        1.32537         11.9729            5.59            5.59 
        1.33151         11.8934         5.53052         5.53052 
        1.33765         11.7972         5.47194         5.47194 
        1.34378         11.7115         5.41433         5.41433 
        1.34992         11.6128         5.35752         5.35752 
        1.35606         11.5664         5.30141         5.30141 
         1.3622         11.4938         5.24621         5.24621 
        1.36833         11.3871         5.19194         5.19194 
        1.37445         11.3299         5.13846         5.13846 
        1.38059         11.2757         5.08559         5.08559 
        1.38675         11.1614         5.03334         5.03334 
        1.39288         11.1053         4.98203         4.98203 
        1.39901         10.9963         4.93147         4.93147 
        1.40515         10.9575         4.88151         4.88151 
         1.4113         10.8846         4.83226         4.83226 
        1.41742         10.8069         4.78389         4.78389 
        1.42355          10.726         4.73609         4.73609 
         1.4297         10.6572         4.68881         4.68881 
        1.43585         10.6188         4.64219         4.64219 
        1.44198         10.5533          4.5964          4.5964 
        1.44809         10.4698         4.55131         4.55131 
        1.45423         10.3874         4.50667         4.50667 
        1.46036         10.3356         4.46271         4.46271 
        1.46649         10.2792         4.41933         4.41933 
        1.47263         10.1842          4.3765          4.3765 
        1.47877         10.1322         4.33425         4.33425 
        1.48491         10.0721         4.29251         4.29251 
        1.49104         10.0123          4.2514          4.2514 
        1.49718         9.95738         4.21081         4.21081 
        1.50333         9.89444         4.17069         4.17069 
        1.50947         9.82514         4.13117         4.13117 
         1.5156         9.76966         4.09223         4.09223 
        1.52172         9.71739          4.0538          4.0538 
        1.52787         9.64646         4.01579         4.01579 
          1.534         9.58862         3.97831         3.97831 
        1.54013          9.5369         3.94135         3.94135 
        1.54627          9.4601          3.9048          3.9048 
        1.55241         9.41992         3.86871         3.86871 
        1.55855         9.37584         3.83313         3.83313 
        1.56467         9.30257          3.7981          3.7981 
         1.5708         9.28079         3.76341         3.76341 
        1.57695         9.18937          3.7291          3.7291 
        1.58308         9.13879         3.69531         3.69531 
        1.58922         9.10558         3.66191         3.66191 
        1.59535         9.06528         3.62894         3.62894 
         1.6015          8.9896         3.59634         3.59634 
        1.60764         8.92807         3.56415         3.56415 
        1.61376         8.90664         3.53245         3.53245 
        1.61989         8.84082         3.50111         3.50111 
        1.62604         8.79301         3.47008         3.47008 
        1.63218         8.75883         3.43946         3.43946 
        1.63831         8.71472         3.40927         3.40927 
        1.64444         8.65692         3.37944         3.37944 
        1.65059         8.57947          3.3499          3.3499 
        1.65673         8.56562         3.32075         3.32075 
        1.66285         8.47758         3.29203         3.29203 
        1.66898         8.45083         3.26364         3.26364 
        1.67512         8.41809         3.23553         3.23553 
        1.68127         8.36075         3.20773         3.20773 
         1.6874          8.3274         3.18032         3.18032 
        1.69353         8.27265         3.15325         3.15325 
        1.69967         8.22281         3.12643         3.12643 
        1.70581         8.18277         3.09994         3.09994 
        1.71193         8.13366         3.07385         3.07385 
        1.71806         8.11379         3.04802         3.04802 
        1.72421         8.04834         3.02243         3.02243 
        1.73035         8.02949         2.99717         2.99717 
        1.73649         7.98573          2.9722          2.9722 
        1.74262         7.92525         2.94754         2.94754 
        1.74876         7.89773         2.92314         2.92314 
        1.75489         7.86682         2.89908         2.89908 
        1.76101         7.79974         2.87529         2.87529 
        1.76715         7.78134         2.85174         2.85174 
        1.77329         7.73204         2.82843         2.82843 
        1.77943         7.68107         2.80537         2.80537 
        1.78557         7.66663          2.7826          2.7826 
        1.79171         7.62072         2.76008         2.76008 
        1.79785         7.57283         2.73781         2.73781 
        1.80399         7.52525         2.71579         2.71579 
        1.81012         7.50085         2.69405         2.69405 
        1.81625         7.45254         2.67255         2.67255 
        1.82239         7.42815         2.65126         2.65126 
        1.82853         7.38003         2.63021         2.63021 
        1.83466         7.34846         2.60942         2.60942 
        1.84078         7.30877         2.58887         2.58887 
        1.84692         7.29483         2.56851         2.56851 
        1.85306         7.23862         2.54834         2.54834 
         1.8592         7.19836         2.52843         2.52843 
        1.86533         7.16739         2.50874         2.50874 
        1.87147         7.13956         2.48924         2.48924 
        1.87761         7.10638         2.46994         2.46994 
