# k  (h/Mpc)    Pcb(k)  (Mpc/h)^3    Pcb_linear(k) (Mpc/h)^3    Pcb_NL(k) (Mpc/h)^3   ShotnoiseSubtracted = false
     0.00783031         8730.87         8845.11         8845.11 
       0.013688         11252.9         11185.8         11185.8 
       0.019231         11543.2         11530.1         11530.1 
      0.0249154         10683.1         10859.5         10859.5 
      0.0312784         9541.55         9621.14         9621.14 
      0.0375637         8391.26         8395.03         8395.03 
      0.0433917         7358.32         7468.41         7468.41 
      0.0492413         6730.33         6777.77         6777.77 
      0.0555754         6079.95          6236.4          6236.4 
      0.0619321         5799.64         5800.35         5800.35 
       0.067871         5280.36         5402.89         5402.89 
      0.0738098         4856.71          4971.8          4971.8 
      0.0800417         4344.21         4485.89         4485.89 
      0.0862327         3924.56         4006.34         4006.34 
      0.0921407         3570.21         3593.94         3593.94 
      0.0982031         3209.58         3246.27         3246.27 
       0.104506         3014.21         2973.88         2973.88 
       0.110769         2807.94          2778.7          2778.7 
       0.116806          2643.1         2635.21         2635.21 
       0.122832         2526.95         2507.48         2507.48 
       0.129052         2348.42         2369.48         2369.48 
       0.135211         2209.69         2216.94         2216.94 
       0.141259          2089.8         2055.47         2055.47 
       0.147318         1953.06         1893.99         1893.99 
       0.153489         1789.79         1743.55         1743.55 
       0.159709         1689.66          1616.1          1616.1 
       0.165845         1622.97         1516.89         1516.89 
       0.171974         1532.97          1440.3          1440.3 
       0.178125         1465.31          1378.1          1378.1 
       0.184229         1410.42         1322.06         1322.06 
        0.19034         1321.69         1264.67         1264.67 
       0.196428         1292.65         1202.92         1202.92 
       0.202534         1243.76            1137            1137 
       0.208729         1178.12         1069.47         1069.47 
       0.214876         1116.08         1006.13         1006.13 
       0.220989         1080.32         950.124         950.124 
       0.227147         1025.93         902.234         902.234 
        0.23329         987.437         862.406         862.406 
       0.239377         968.718         828.714         828.714 
       0.245482          907.43          798.04          798.04 
       0.251667         899.165         767.785         767.785 
       0.257832         866.009         736.991         736.991 
       0.263955         836.219         705.525         705.525 
       0.270079          806.44         673.896         673.896 
        0.27624         795.559         643.093         643.093 
       0.282372         761.808          614.58          614.58 
        0.28843         745.738          589.16          589.16 
       0.294538         710.219          566.37          566.37 
       0.300721         707.086         545.774         545.774 
        0.30691         675.327         526.869         526.869 
       0.313033         662.092         509.098         509.098 
       0.319153         643.499         491.681         491.681 
       0.325316         624.377         474.254         474.254 
        0.33145         606.953         457.062         457.062 
       0.337538         598.872         440.429         440.429 
       0.343633          580.29         424.518         424.518 
       0.349808          561.45         409.406         409.406 
       0.355968         556.871         395.453         395.453 
       0.362074         546.533         382.651         382.651 
       0.368217         531.662         370.643         370.643 
       0.374374         510.403         359.235         359.235 
       0.380519         506.676         348.274         348.274 
       0.386598         494.483         337.721         337.721 
       0.392688         491.365         327.384         327.384 
        0.39888         477.397          317.16          317.16 
       0.405048         467.805         307.334         307.334 
       0.411186         459.237         297.979         297.979 
       0.417313         451.083          289.12          289.12 
       0.423458         442.938         280.711         280.711 
       0.429607         434.144         272.731         272.731 
       0.435692         423.868         265.211         265.211 
       0.441815         420.843         257.948         257.948 
       0.447964         412.291         250.898         250.898 
       0.454126         399.934         244.052         244.052 
       0.460267         394.776         237.439         237.439 
       0.466387         390.445         231.056         231.056 
        0.47254         382.005         224.863         224.863 
       0.478662         380.928         218.943         218.943 
       0.484765         369.493         213.284         213.284 
       0.490885         365.352          207.84          207.84 
       0.497035         359.273         202.585         202.585 
       0.503198         352.453         197.521         197.521 
       0.509342          349.59         192.649         192.649 
       0.515458         345.761         187.955         187.955 
       0.521598         339.126         183.386         183.386 
       0.527764          333.07         178.942         178.942 
       0.533884         330.319         174.672         174.672 
           0.54          325.82         170.547         170.547 
       0.546137         324.268         166.546         166.546 
       0.552299         317.704         162.665         162.665 
       0.558452         315.069         158.923         158.923 
       0.564573           310.1         155.325         155.325 
       0.570708         304.669         151.837         151.837 
       0.576825         300.068         148.467         148.467 
       0.582926         297.374         145.207         145.207 
       0.589034         294.039         142.037         142.037 
       0.595184         291.103         138.941         138.941 
       0.601379         288.198         135.916         135.916 
       0.607522         283.024         133.008         133.008 
       0.613639         281.543         130.199         130.199 
       0.619772         274.928         127.468         127.468 
       0.625918         273.636         124.811         124.811 
       0.632068          269.79         122.231         122.231 
       0.638161         268.606         119.748         119.748 
         0.6443         264.008         117.317         117.317 
       0.650464         261.601         114.946         114.946 
       0.656582         260.089         112.658         112.658 
       0.662703         257.622         110.432         110.432 
       0.668861         253.267         108.255         108.255 
       0.675024         250.438         106.136         106.136 
       0.681124         249.461         104.095         104.095 
       0.687237         246.001         102.105         102.105 
       0.693381         242.469         100.158         100.158 
       0.699536           240.8         98.2597         98.2597 
       0.705665         239.383         96.4195         96.4195 
       0.711789          236.01         94.6289         94.6289 
       0.717957         234.626         92.8722         92.8722 
        0.72409         231.963         91.1707         91.1707 
       0.730186         229.044         89.5228         89.5228 
       0.736317         227.099         87.9073         87.9073 
       0.742472          225.92         86.3262         86.3262 
       0.748622         223.988          84.786          84.786 
        0.75476         222.043         83.2872         83.2872 
       0.760888         219.038         81.8274         81.8274 
       0.767043         218.549         80.3973         80.3973 
       0.773185         216.046         79.0048         79.0048 
       0.779291         212.264         77.6536         77.6536 
       0.785407         211.657         76.3325         76.3325 
       0.791564         209.623         75.0342         75.0342 
       0.797719         207.196         73.7672         73.7672 
       0.803834         206.135         72.5378         72.5378 
       0.809972         204.089         71.3325         71.3325 
       0.816124         204.143         70.1522         70.1522 
       0.822261         201.067         69.0023         69.0023 
       0.828378         199.395         67.8819         67.8819 
       0.834502         199.278         66.7857         66.7857 
       0.840667         195.956          65.707          65.707 
       0.846816         194.664         64.6554         64.6554 
       0.852925           193.6         63.6338         63.6338 
       0.859047         191.623         62.6324         62.6324 
       0.865192         190.175         61.6495         61.6495 
       0.871341         188.317         60.6874         60.6874 
       0.877463         187.043         59.7504         59.7504 
       0.883569         185.819         58.8358         58.8358 
       0.889708         184.247         57.9359         57.9359 
       0.895864          182.14         57.0528         57.0528 
       0.902008         181.459         56.1901         56.1901 
       0.908149         180.529         55.3461         55.3461 
       0.914301         178.407         54.5182         54.5182 
       0.920448         177.075         53.7083         53.7083 
       0.926574         176.211         52.9178         52.9178 
       0.932687         175.504         52.1451         52.1451 
       0.938823         173.347         51.3853         51.3853 
       0.944975         171.895         50.6391         50.6391 
       0.951105          171.11         49.9105         49.9105 
       0.957225         169.142         49.1977         49.1977 
       0.963368         167.535         48.4966         48.4966 
       0.969511         167.009         47.8093         47.8093 
       0.975621         165.941         47.1391         47.1391 
       0.981748         165.428         46.4803         46.4803 
       0.987916         163.297           45.83           45.83 
        0.99406         162.359         45.1947         45.1947 
        1.00019           161.8         44.5729         44.5729 
        1.00632         160.325         43.9634         43.9634 
        1.01246         159.312         43.3646         43.3646 
        1.01859         157.984          42.778          42.778 
        1.02471          157.17         42.2031         42.2031 
        1.03085         155.494          41.637          41.637 
        1.03698         154.545         41.0825         41.0825 
        1.04314         153.403         40.5359         40.5359 
        1.04929         152.338         40.0006         40.0006 
        1.05541         151.623         39.4772         39.4772 
        1.06154         150.549         38.9621         38.9621 
        1.06769          150.35         38.4554         38.4554 
        1.07382         149.158         37.9595         37.9595 
        1.07993         147.863         37.4735         37.4735 
        1.08607         146.859         36.9941         36.9941 
        1.09222         146.149         36.5227         36.5227 
        1.09836         144.834         36.0601         36.0601 
        1.10449         143.736         35.6062         35.6062 
        1.11063         142.794         35.1597         35.1597 
        1.11677         142.391         34.7211         34.7211 
         1.1229         140.822         34.2908         34.2908 
        1.12903         140.039         33.8675         33.8675 
        1.13518         139.915          33.451          33.451 
        1.14131         138.429         33.0419         33.0419 
        1.14745          137.76         32.6399         32.6399 
        1.15359         136.768         32.2446         32.2446 
        1.15973         136.383         31.8558         31.8558 
        1.16584         134.959         31.4752         31.4752 
        1.17197         134.358         31.1003         31.1003 
        1.17811         133.523         30.7304         30.7304 
        1.18424          132.76         30.3677         30.3677 
        1.19038         132.154         30.0098         30.0098 
        1.19652         131.254          29.658          29.658 
        1.20267         130.397         29.3118         29.3118 
        1.20881         129.399         28.9712         28.9712 
        1.21495         128.717         28.6367         28.6367 
        1.22108         128.069         28.3076         28.3076 
         1.2272         127.006         27.9844         27.9844 
        1.23334         126.381         27.6657         27.6657 
        1.23949         125.054         27.3511         27.3511 
        1.24562         124.776         27.0424         27.0424 
        1.25174         123.513          26.739          26.739 
        1.25789         123.083         26.4393         26.4393 
        1.26402         122.542         26.1448         26.1448 
        1.27014         121.577         25.8555         25.8555 
        1.27628         120.994         25.5698         25.5698 
        1.28244         120.262         25.2879         25.2879 
        1.28858         119.805         25.0107         25.0107 
        1.29471         118.572         24.7382         24.7382 
        1.30084         118.017         24.4701         24.4701 
        1.30697         117.352         24.2056         24.2056 
        1.31312         117.005         23.9447         23.9447 
        1.31925         115.918         23.6884         23.6884 
        1.32537         115.474         23.4362         23.4362 
        1.33151         114.324         23.1868         23.1868 
        1.33765         113.898         22.9412         22.9412 
        1.34378         113.109         22.6997         22.6997 
        1.34992         112.967         22.4615         22.4615 
        1.35606         112.084         22.2263         22.2263 
         1.3622         111.176         21.9949         21.9949 
        1.36833         110.714         21.7673         21.7673 
        1.37445         109.917         21.5431         21.5431 
        1.38059          109.53         21.3214         21.3214 
        1.38675          108.64         21.1024         21.1024 
        1.39288         108.151         20.8873         20.8873 
        1.39901         107.752         20.6753         20.6753 
        1.40515         107.025         20.4658         20.4658 
         1.4113         105.996         20.2594         20.2594 
        1.41742         105.888         20.0565         20.0565 
        1.42355         105.027         19.8562         19.8562 
         1.4297         104.419         19.6579         19.6579 
        1.43585         103.578         19.4625         19.4625 
        1.44198         103.354         19.2705         19.2705 
        1.44809         102.579         19.0815         19.0815 
        1.45423         101.854         18.8943         18.8943 
        1.46036         101.653           18.71           18.71 
        1.46649         101.014         18.5281         18.5281 
        1.47263         100.456         18.3486         18.3486 
        1.47877         100.048         18.1714         18.1714 
        1.48491         99.1439         17.9964         17.9964 
        1.49104         98.7532         17.8241         17.8241 
        1.49718         98.0512         17.6539         17.6539 
        1.50333         97.5391         17.4857         17.4857 
        1.50947         96.9391           17.32           17.32 
         1.5156         96.5757         17.1568         17.1568 
        1.52172         95.8046         16.9956         16.9956 
        1.52787         95.5953         16.8363         16.8363 
          1.534         94.9769         16.6792         16.6792 
        1.54013         94.2518         16.5242         16.5242 
        1.54627         93.8011          16.371          16.371 
        1.55241         93.2762         16.2197         16.2197 
        1.55855         92.9327         16.0705         16.0705 
        1.56467         92.2668         15.9236         15.9236 
         1.5708         91.7593         15.7782         15.7782 
        1.57695         91.5182         15.6344         15.6344 
        1.58308         90.5301         15.4927         15.4927 
        1.58922         90.4201         15.3526         15.3526 
        1.59535         89.9651         15.2144         15.2144 
         1.6015         89.3486         15.0777         15.0777 
        1.60764         88.8518         14.9428         14.9428 
        1.61376         88.4653         14.8099         14.8099 
        1.61989         87.8716         14.6785         14.6785 
        1.62604         87.4531         14.5484         14.5484 
        1.63218         87.1029           14.42           14.42 
        1.63831           86.39         14.2935         14.2935 
        1.64444         86.0163         14.1684         14.1684 
        1.65059         85.4254         14.0445         14.0445 
        1.65673         84.8731         13.9223         13.9223 
        1.66285         84.6367         13.8019         13.8019 
        1.66898         84.0384         13.6829         13.6829 
        1.67512         83.5409          13.565          13.565 
        1.68127         83.0956         13.4485         13.4485 
         1.6874         82.6626         13.3335         13.3335 
        1.69353         82.2365         13.2201         13.2201 
        1.69967         81.7368         13.1076         13.1076 
        1.70581         81.4367         12.9965         12.9965 
        1.71193         81.1505         12.8872         12.8872 
        1.71806         80.3588         12.7789         12.7789 
        1.72421         80.1175         12.6716         12.6716 
        1.73035         79.6266         12.5657         12.5657 
        1.73649         79.1855          12.461          12.461 
        1.74262         78.8072         12.3576         12.3576 
        1.74876         78.4567         12.2553         12.2553 
        1.75489         77.8342         12.1544         12.1544 
        1.76101         77.6042         12.0547         12.0547 
        1.76715         77.0856          11.956          11.956 
        1.77329         76.7418         11.8582         11.8582 
        1.77943         76.2202         11.7616         11.7616 
        1.78557         75.9612         11.6661         11.6661 
        1.79171         75.4993         11.5717         11.5717 
        1.79785         75.1388         11.4783         11.4783 
        1.80399         74.7301          11.386          11.386 
        1.81012         74.4453         11.2949         11.2949 
        1.81625         73.8083         11.2047         11.2047 
        1.82239         73.5163         11.1155         11.1155 
        1.82853         73.1944         11.0272         11.0272 
        1.83466         72.7498           10.94           10.94 
        1.84078         72.4108         10.8539         10.8539 
        1.84692         71.8561         10.7685         10.7685 
        1.85306          71.549          10.684          10.684 
         1.8592         71.0014         10.6005         10.6005 
        1.86533         70.7573         10.5179         10.5179 
        1.87147          70.249         10.4362         10.4362 
