# k  (h/Mpc)    Pcb(k)  (Mpc/h)^3    Pcb_linear(k) (Mpc/h)^3    Pcb_NL(k) (Mpc/h)^3   ShotnoiseSubtracted = false
     0.00783031           14057         14265.2         14265.2 
       0.013688           18231           18078           18078 
       0.019231         18656.9         18643.1         18643.1 
      0.0249154         17176.8         17561.9         17561.9 
      0.0312784         15355.4         15560.7         15560.7 
      0.0375637         13529.7         13578.2         13578.2 
      0.0433917         11808.8         12079.8         12079.8 
      0.0492413           10824         10962.9         10962.9 
      0.0555754         9715.27         10087.4         10087.4 
      0.0619321         9323.94          9382.1          9382.1 
       0.067871         8432.52         8739.26         8739.26 
      0.0738098         7761.02         8041.99         8041.99 
      0.0800417         6923.74         7256.04         7256.04 
      0.0862327         6276.95         6480.36         6480.36 
      0.0921407         5743.38         5813.31         5813.31 
      0.0982031         5167.92         5250.95         5250.95 
       0.104506         4882.15         4810.36         4810.36 
       0.110769         4546.72         4494.65         4494.65 
       0.116806         4290.21         4262.56         4262.56 
       0.122832          4091.2         4055.95         4055.95 
       0.129052         3789.01         3832.73         3832.73 
       0.135211         3573.34         3585.99         3585.99 
       0.141259         3401.16         3324.81         3324.81 
       0.147318         3194.59         3063.61         3063.61 
       0.153489          2929.5         2820.26         2820.26 
       0.159709          2779.4         2614.11         2614.11 
       0.165845         2689.04         2453.63         2453.63 
       0.171974         2547.88         2329.74         2329.74 
       0.178125         2431.43         2229.13         2229.13 
       0.184229          2332.2         2138.49         2138.49 
        0.19034         2202.86         2045.65         2045.65 
       0.196428         2156.34         1945.77         1945.77 
       0.202534         2070.89         1839.14         1839.14 
       0.208729         1975.59         1729.91         1729.91 
       0.214876         1893.18         1627.46         1627.46 
       0.220989         1831.77         1536.87         1536.87 
       0.227147         1755.13          1459.4          1459.4 
        0.23329         1690.88         1394.98         1394.98 
       0.239377            1668         1340.48         1340.48 
       0.245482         1566.48         1290.87         1290.87 
       0.251667         1557.86         1241.93         1241.93 
       0.257832         1497.16         1192.12         1192.12 
       0.263955         1447.87         1141.22         1141.22 
       0.270079         1399.96         1090.06         1090.06 
        0.27624         1384.22         1040.23         1040.23 
       0.282372         1326.19         994.112         994.112 
        0.28843         1319.43         952.994         952.994 
       0.294538         1255.64         916.129         916.129 
       0.300721         1249.96         882.815         882.815 
        0.30691         1200.48         852.235         852.235 
       0.313033          1177.6          823.49          823.49 
       0.319153         1159.27         795.317         795.317 
       0.325316         1121.07         767.127         767.127 
        0.33145         1096.42         739.319         739.319 
       0.337538         1078.32         712.414         712.414 
       0.343633         1054.08         686.677         686.677 
       0.349808         1019.66         662.233         662.233 
       0.355968         1013.14         639.663         639.663 
       0.362074         1002.94         618.956         618.956 
       0.368217         972.402         599.532         599.532 
       0.374374         935.461         581.079         581.079 
       0.380519         937.333         563.349         563.349 
       0.386598         912.185         546.279         546.279 
       0.392688         908.722         529.558         529.558 
        0.39888         883.066         513.021         513.021 
       0.405048         871.456         497.127         497.127 
       0.411186         859.476         481.995         481.995 
       0.417313          841.96         467.665         467.665 
       0.423458         827.685         454.063         454.063 
       0.429607         816.573         441.155         441.155 
       0.435692         799.595         428.991         428.991 
       0.441815         794.017         417.243         417.243 
       0.447964         776.923         405.839         405.839 
       0.454126         769.009         394.765         394.765 
       0.460267         751.594         384.068         384.068 
       0.466387         743.156         373.744         373.744 
        0.47254         735.658         363.726         363.726 
       0.478662          730.21          354.15          354.15 
       0.484765          709.44         344.997         344.997 
       0.490885         704.851          336.19          336.19 
       0.497035         690.275         327.691         327.691 
       0.503198         685.566         319.499         319.499 
       0.509342         678.417         311.618         311.618 
       0.515458         674.595         304.026         304.026 
       0.521598          658.38         296.636         296.636 
       0.527764         645.496         289.446         289.446 
       0.533884          644.61         282.541         282.541 
           0.54          637.28         275.868         275.868 
       0.546137         632.611         269.397         269.397 
       0.552299         623.139         263.118         263.118 
       0.558452         619.407         257.065         257.065 
       0.564573         610.726         251.246         251.246 
       0.570708         604.001         245.603         245.603 
       0.576825          587.56         240.152         240.152 
       0.582926         590.112         234.878         234.878 
       0.589034         584.294         229.752         229.752 
       0.595184         578.604         224.743         224.743 
       0.601379         570.657         219.851         219.851 
       0.607522         563.094         215.146         215.146 
       0.613639         563.032         210.603         210.603 
       0.619772         549.608         206.185         206.185 
       0.625918         547.488         201.888         201.888 
       0.632068         539.926         197.714         197.714 
       0.638161         538.071         193.698         193.698 
         0.6443         528.142         189.766         189.766 
       0.650464         526.032          185.93          185.93 
       0.656582          522.83         182.229         182.229 
       0.662703         520.198          178.63          178.63 
       0.668861         510.997         175.108         175.108 
       0.675024         506.935          171.68          171.68 
       0.681124         503.675         168.379         168.379 
       0.687237         499.125         165.159         165.159 
       0.693381          492.91         162.011         162.011 
       0.699536         485.457          158.94          158.94 
       0.705665         484.416         155.963         155.963 
       0.711789         481.299         153.067         153.067 
       0.717957          476.72         150.225         150.225 
        0.72409         474.225         147.473         147.473 
       0.730186         467.269         144.807         144.807 
       0.736317         464.151         142.194         142.194 
       0.742472         462.084         139.637         139.637 
       0.748622         456.601         137.145         137.145 
        0.75476         450.367         134.721         134.721 
       0.760888         446.103          132.36          132.36 
       0.767043         446.736         130.046         130.046 
       0.773185         441.457         127.794         127.794 
       0.779291         436.466         125.608         125.608 
       0.785407         433.683         123.471         123.471 
       0.791564         428.513         121.371         121.371 
       0.797719         426.335         119.322         119.322 
       0.803834         422.238         117.333         117.333 
       0.809972         420.885         115.384         115.384 
       0.816124         419.747         113.474         113.474 
       0.822261          413.51         111.614         111.614 
       0.828378         411.122         109.802         109.802 
       0.834502         407.202         108.029         108.029 
       0.840667         403.527         106.284         106.284 
       0.846816         401.675         104.583         104.583 
       0.852925         398.303         102.931         102.931 
       0.859047         397.017         101.311         101.311 
       0.865192          392.17         99.7209         99.7209 
       0.871341         389.052         98.1646         98.1646 
       0.877463         387.984         96.6489         96.6489 
       0.883569         384.583         95.1696         95.1696 
       0.889708         381.615          93.714          93.714 
       0.895864         379.056         92.2855         92.2855 
       0.902008         376.419         90.8901         90.8901 
       0.908149          372.67         89.5248         89.5248 
       0.914301         369.667         88.1857         88.1857 
       0.920448          367.45         86.8756         86.8756 
       0.926574         362.275          85.597          85.597 
       0.932687         362.723         84.3472         84.3472 
       0.938823         358.446         83.1181         83.1181 
       0.944975         358.548         81.9111         81.9111 
       0.951105         354.059         80.7326         80.7326 
       0.957225          351.81         79.5796         79.5796 
       0.963368           347.8         78.4455         78.4455 
       0.969511          346.59         77.3337         77.3337 
       0.975621         343.981         76.2497         76.2497 
       0.981748         342.718          75.184          75.184 
       0.987916         340.408         74.1321         74.1321 
        0.99406         334.799         73.1045         73.1045 
        1.00019         333.967         72.0986         72.0986 
        1.00632         332.244         71.1128         71.1128 
        1.01246         329.484         70.1442         70.1442 
        1.01859         329.805         69.1954         69.1954 
        1.02471          324.86         68.2655         68.2655 
        1.03085         322.736         67.3497         67.3497 
        1.03698         321.867         66.4528         66.4528 
        1.04314         318.569         65.5687         65.5687 
        1.04929         315.807         64.7028         64.7028 
        1.05541         316.193         63.8563         63.8563 
        1.06154          310.94         63.0229         63.0229 
        1.06769         309.896         62.2033         62.2033 
        1.07382         307.914         61.4012         61.4012 
        1.07993         305.757         60.6151         60.6151 
        1.08607         304.885         59.8396         59.8396 
        1.09222         302.004         59.0771         59.0771 
        1.09836          299.99         58.3289         58.3289 
        1.10449         296.896         57.5947         57.5947 
        1.11063           294.2         56.8724         56.8724 
        1.11677         293.926         56.1629         56.1629 
         1.1229         291.979         55.4669         55.4669 
        1.12903         289.755         54.7822         54.7822 
        1.13518         287.361         54.1086         54.1086 
        1.14131         285.645         53.4468         53.4468 
        1.14745         284.397         52.7966         52.7966 
        1.15359         282.229         52.1572         52.1572 
        1.15973          280.27         51.5282         51.5282 
        1.16584         278.177         50.9125         50.9125 
        1.17197         277.849         50.3061         50.3061 
        1.17811         274.527         49.7078         49.7078 
        1.18424         272.551         49.1211         49.1211 
        1.19038         271.552         48.5423         48.5423 
        1.19652         269.297         47.9731         47.9731 
        1.20267         268.657         47.4131         47.4131 
        1.20881         266.426         46.8623         46.8623 
        1.21495         264.359         46.3212         46.3212 
        1.22108         262.842         45.7888         45.7888 
         1.2272         261.082         45.2661         45.2661 
        1.23334         259.479         44.7505         44.7505 
        1.23949         257.941         44.2417         44.2417 
        1.24562         256.595         43.7423         43.7423 
        1.25174           254.3         43.2515         43.2515 
        1.25789         252.233         42.7668         42.7668 
        1.26402         250.583         42.2904         42.2904 
        1.27014         248.982         41.8225         41.8225 
        1.27628         247.596         41.3604         41.3604 
        1.28244         247.055         40.9044         40.9044 
        1.28858         244.436         40.4559         40.4559 
        1.29471         242.593         40.0152         40.0152 
        1.30084         241.367         39.5815         39.5815 
        1.30697         239.812         39.1537         39.1537 
        1.31312         237.457         38.7316         38.7316 
        1.31925          237.07         38.3171         38.3171 
        1.32537         235.775         37.9092         37.9092 
        1.33151         233.375         37.5057         37.5057 
        1.33765         231.759         37.1085         37.1085 
        1.34378         230.941         36.7178         36.7178 
        1.34992         229.496         36.3325         36.3325 
        1.35606         229.111          35.952          35.952 
         1.3622         226.905         35.5777         35.5777 
        1.36833         224.762         35.2096         35.2096 
        1.37445         223.795          34.847          34.847 
        1.38059         221.817         34.4884         34.4884 
        1.38675         221.015         34.1341         34.1341 
        1.39288         219.389         33.7861         33.7861 
        1.39901         218.853         33.4433         33.4433 
        1.40515         216.731         33.1044         33.1044 
         1.4113          215.49         32.7704         32.7704 
        1.41742         213.921         32.4424         32.4424 
        1.42355         212.715         32.1182         32.1182 
         1.4297         210.987         31.7976         31.7976 
        1.43585         209.905         31.4815         31.4815 
        1.44198         208.685         31.1709         31.1709 
        1.44809         207.683         30.8652         30.8652 
        1.45423         206.209         30.5624         30.5624 
        1.46036         205.088         30.2643         30.2643 
        1.46649         203.299         29.9701         29.9701 
        1.47263         202.033         29.6796         29.6796 
        1.47877         200.925         29.3931         29.3931 
        1.48491         199.152           29.11           29.11 
        1.49104         198.556         28.8313         28.8313 
        1.49718         196.599          28.556          28.556 
        1.50333         195.933         28.2839         28.2839 
        1.50947         194.705         28.0159         28.0159 
         1.5156         192.858         27.7519         27.7519 
        1.52172         192.039         27.4912         27.4912 
        1.52787         190.519         27.2334         27.2334 
          1.534         189.948         26.9793         26.9793 
        1.54013         188.364         26.7287         26.7287 
        1.54627         187.331         26.4808         26.4808 
        1.55241         186.027          26.236          26.236 
        1.55855         184.847         25.9948         25.9948 
        1.56467         183.509         25.7572         25.7572 
         1.5708         183.031         25.5219         25.5219 
        1.57695         181.552         25.2893         25.2893 
        1.58308         180.553         25.0601         25.0601 
        1.58922          179.03         24.8336         24.8336 
        1.59535         177.612           24.61           24.61 
         1.6015         177.211         24.3889         24.3889 
        1.60764         175.845         24.1706         24.1706 
        1.61376         174.661         23.9556         23.9556 
        1.61989         173.737         23.7431         23.7431 
        1.62604         172.583         23.5327         23.5327 
        1.63218         171.593          23.325          23.325 
        1.63831         170.351         23.1203         23.1203 
        1.64444         169.569          22.918          22.918 
        1.65059         168.272         22.7177         22.7177 
        1.65673         167.087           22.52           22.52 
        1.66285         166.298         22.3252         22.3252 
        1.66898         165.073         22.1327         22.1327 
        1.67512         164.757          21.942          21.942 
        1.68127          162.86         21.7535         21.7535 
         1.6874         161.977         21.5676         21.5676 
        1.69353         161.223          21.384          21.384 
        1.69967         159.789         21.2022         21.2022 
        1.70581         159.156         21.0225         21.0225 
        1.71193         157.781         20.8456         20.8456 
        1.71806         157.359         20.6704         20.6704 
        1.72421         156.123         20.4969         20.4969 
        1.73035         155.489         20.3256         20.3256 
        1.73649          154.53         20.1562         20.1562 
        1.74262         153.301          19.989          19.989 
        1.74876          152.48         19.8236         19.8236 
        1.75489         151.436         19.6604         19.6604 
        1.76101         150.277          19.499          19.499 
        1.76715         149.859         19.3393         19.3393 
        1.77329         149.029         19.1812         19.1812 
        1.77943         147.932         19.0249         19.0249 
        1.78557         147.108         18.8705         18.8705 
        1.79171         146.266         18.7178         18.7178 
        1.79785         145.104         18.5667         18.5667 
        1.80399         144.255         18.4174         18.4174 
        1.81012         143.356         18.2699         18.2699 
        1.81625         142.742         18.1242         18.1242 
        1.82239         141.704         17.9798         17.9798 
        1.82853         141.173          17.837          17.837 
        1.83466         139.957          17.696          17.696 
        1.84078         139.434         17.5566         17.5566 
        1.84692         137.984         17.4186         17.4186 
        1.85306         137.781         17.2818         17.2818 
         1.8592           136.7         17.1468         17.1468 
        1.86533         135.772         17.0132         17.0132 
        1.87147         134.814          16.881          16.881 
