# k  (h/Mpc)    Pcb(k)  (Mpc/h)^3    Pcb_linear(k) (Mpc/h)^3    Pcb_NL(k) (Mpc/h)^3   ShotnoiseSubtracted = false
     0.00783031         947.236          956.45          956.45 
       0.013688         1208.21         1209.93         1209.93 
       0.019231         1247.34         1247.41         1247.41 
      0.0249154         1168.58         1174.99         1174.99 
      0.0312784         1040.05         1041.08         1041.08 
      0.0375637         910.509          908.45          908.45 
      0.0433917         806.808         808.204         808.204 
      0.0492413         733.942         733.482         733.482 
      0.0555754           671.9         674.909         674.909 
      0.0619321         630.012         627.727         627.727 
       0.067871         582.715         584.719         584.719 
      0.0738098         535.806         538.069         538.069 
      0.0800417         482.298         485.486         485.486 
      0.0862327          432.26         433.588         433.588 
      0.0921407         388.889         388.958         388.958 
      0.0982031         350.393         351.333         351.333 
       0.104506         323.421         321.854         321.854 
       0.110769         301.792         300.731         300.731 
       0.116806         284.594         285.202         285.202 
       0.122832          271.91         271.379         271.379 
       0.129052         255.564         256.444         256.444 
       0.135211         239.032         239.935         239.935 
       0.141259         222.839          222.46          222.46 
       0.147318         206.326         204.984         204.984 
       0.153489         189.419         188.701         188.701 
       0.159709         175.985         174.908         174.908 
       0.165845         166.564         164.171         164.171 
       0.171974         156.909         155.882         155.882 
       0.178125         150.336          149.15          149.15 
       0.184229         144.626         143.085         143.085 
        0.19034         136.989         136.874         136.874 
       0.196428         131.346         130.191         130.191 
       0.202534         125.287         123.056         123.056 
       0.208729         117.474         115.747         115.747 
       0.214876         110.055         108.892         108.892 
       0.220989         105.229         102.831         102.831 
       0.227147         98.9812         97.6481         97.6481 
        0.23329         94.7523         93.3376         93.3376 
       0.239377         91.4033         89.6911         89.6911 
       0.245482         87.3752         86.3713         86.3713 
       0.251667         84.8795         83.0969         83.0969 
       0.257832         81.4739         79.7641         79.7641 
       0.263955         78.0739         76.3586         76.3586 
       0.270079         74.8121         72.9355         72.9355 
        0.27624         72.0922         69.6016         69.6016 
       0.282372         68.9783         66.5157         66.5157 
        0.28843         65.9223         63.7645         63.7645 
       0.294538         63.4106          61.298          61.298 
       0.300721         61.6426         59.0689         59.0689 
        0.30691         59.1304         57.0229         57.0229 
       0.313033         57.2336         55.0995         55.0995 
       0.319153         54.6693         53.2145         53.2145 
       0.325316         53.6413         51.3283         51.3283 
        0.33145         51.5691         49.4677         49.4677 
       0.337538         49.9234         47.6675         47.6675 
       0.343633         48.0686         45.9454         45.9454 
       0.349808         46.5718         44.3099         44.3099 
       0.355968         45.1196         42.7997         42.7997 
       0.362074         43.6623         41.4142         41.4142 
       0.368217         42.3597         40.1146         40.1146 
       0.374374         40.9738         38.8799         38.8799 
       0.380519         39.9329         37.6936         37.6936 
       0.386598         38.8138         36.5515         36.5515 
       0.392688         37.8673         35.4327         35.4327 
        0.39888          36.664         34.3262         34.3262 
       0.405048         35.6965         33.2627         33.2627 
       0.411186         34.7651         32.2502         32.2502 
       0.417313         33.5806         31.2914         31.2914 
       0.423458         32.7193         30.3813         30.3813 
       0.429607         31.7708         29.5176         29.5176 
       0.435692         30.8671         28.7038         28.7038 
       0.441815         30.1998         27.9177         27.9177 
       0.447964         29.6315         27.1547         27.1547 
       0.454126         28.5476         26.4137         26.4137 
       0.460267         27.9228          25.698          25.698 
       0.466387         27.0725         25.0071         25.0071 
        0.47254         26.5773         24.3369         24.3369 
       0.478662          26.023         23.6962         23.6962 
       0.484765         25.2796         23.0837         23.0837 
       0.490885         24.6704         22.4945         22.4945 
       0.497035         24.2952         21.9257         21.9257 
       0.503198         23.6544         21.3776         21.3776 
       0.509342         23.0799         20.8504         20.8504 
       0.515458         22.5153         20.3424         20.3424 
       0.521598         22.0805         19.8479         19.8479 
       0.527764         21.5535         19.3668         19.3668 
       0.533884         21.1653         18.9048         18.9048 
           0.54         20.6896         18.4583         18.4583 
       0.546137         20.2936         18.0253         18.0253 
       0.552299         19.9028         17.6052         17.6052 
       0.558452         19.2953         17.2002         17.2002 
       0.564573         19.0232         16.8108         16.8108 
       0.570708         18.6555         16.4333         16.4333 
       0.576825         18.1639         16.0685         16.0685 
       0.582926         17.8509         15.7157         15.7157 
       0.589034         17.3354         15.3727         15.3727 
       0.595184         17.0769         15.0376         15.0376 
       0.601379         16.7191         14.7102         14.7102 
       0.607522         16.4538         14.3954         14.3954 
       0.613639         16.2335         14.0914         14.0914 
       0.619772         15.7995         13.7958         13.7958 
       0.625918         15.6483         13.5083         13.5083 
       0.632068         15.3864          13.229          13.229 
       0.638161         15.0098         12.9603         12.9603 
         0.6443         14.7026         12.6972         12.6972 
       0.650464         14.4018         12.4406         12.4406 
       0.656582         14.2774          12.193          12.193 
       0.662703         14.0074         11.9521         11.9521 
       0.668861         13.7459         11.7165         11.7165 
       0.675024         13.4662         11.4871         11.4871 
       0.681124         13.2304         11.2662         11.2662 
       0.687237          13.019         11.0508         11.0508 
       0.693381         12.8374         10.8401         10.8401 
       0.699536         12.4901         10.6346         10.6346 
       0.705665         12.3489         10.4355         10.4355 
       0.711789         12.1348         10.2417         10.2417 
       0.717957         11.9296         10.0516         10.0516 
        0.72409         11.7246          9.8674          9.8674 
       0.730186         11.5684         9.68905         9.68905 
       0.736317         11.4311          9.5142          9.5142 
       0.742472         11.2428         9.34308         9.34308 
       0.748622         11.0557         9.17639         9.17639 
        0.75476         10.8082         9.01417         9.01417 
       0.760888         10.6844         8.85618         8.85618 
       0.767043         10.5484         8.70139         8.70139 
       0.773185         10.3276         8.55068         8.55068 
       0.779291         10.2348         8.40445         8.40445 
       0.785407         10.0706         8.26146         8.26146 
       0.791564         9.90041         8.12095         8.12095 
       0.797719         9.73456         7.98382         7.98382 
       0.803834         9.65125         7.85077         7.85077 
       0.809972         9.54064         7.72031         7.72031 
       0.816124         9.32617         7.59258         7.59258 
       0.822261         9.19109         7.46811         7.46811 
       0.828378         9.08292         7.34685         7.34685 
       0.834502         8.98831         7.22822         7.22822 
       0.840667          8.8217         7.11147         7.11147 
       0.846816         8.67124         6.99766         6.99766 
       0.852925         8.58995         6.88709         6.88709 
       0.859047         8.47164          6.7787          6.7787 
       0.865192          8.3868         6.67233         6.67233 
       0.871341         8.28484         6.56819         6.56819 
       0.877463         8.15425         6.46678         6.46678 
       0.883569         8.01231         6.36779         6.36779 
       0.889708          7.8795          6.2704          6.2704 
       0.895864         7.81381         6.17482         6.17482 
       0.902008         7.71696         6.08146         6.08146 
       0.908149         7.62535         5.99011         5.99011 
       0.914301         7.50585         5.90051         5.90051 
       0.920448         7.39225         5.81285         5.81285 
       0.926574         7.29804         5.72729         5.72729 
       0.932687         7.22926         5.64367         5.64367 
       0.938823         7.12938         5.56143         5.56143 
       0.944975         7.02892         5.48067         5.48067 
       0.951105         6.95929         5.40182         5.40182 
       0.957225         6.91764         5.32467         5.32467 
       0.963368         6.80946         5.24879         5.24879 
       0.969511         6.72625          5.1744          5.1744 
       0.975621         6.63436         5.10187         5.10187 
       0.981748         6.56457         5.03056         5.03056 
       0.987916         6.49062         4.96018         4.96018 
        0.99406         6.38369         4.89142         4.89142 
        1.00019         6.29335         4.82412         4.82412 
        1.00632         6.25729         4.75816         4.75816 
        1.01246         6.18545         4.69335         4.69335 
        1.01859         6.09891         4.62987         4.62987 
        1.02471         6.03484         4.56765         4.56765 
        1.03085         5.96754         4.50637         4.50637 
        1.03698         5.88256         4.44636         4.44636 
        1.04314           5.831          4.3872          4.3872 
        1.04929         5.75362         4.32927         4.32927 
        1.05541         5.68595         4.27262         4.27262 
        1.06154         5.63254         4.21686         4.21686 
        1.06769         5.59647         4.16203         4.16203 
        1.07382         5.50444         4.10835         4.10835 
        1.07993         5.43884         4.05576         4.05576 
        1.08607         5.40336         4.00387         4.00387 
        1.09222         5.33984         3.95285         3.95285 
        1.09836         5.28577         3.90279         3.90279 
        1.10449         5.22587         3.85366         3.85366 
        1.11063         5.16916         3.80534         3.80534 
        1.11677         5.12121         3.75786         3.75786 
         1.1229         5.06621         3.71129         3.71129 
        1.12903          5.0087         3.66548         3.66548 
        1.13518         4.95862         3.62041         3.62041 
        1.14131          4.8893         3.57613         3.57613 
        1.14745         4.82767         3.53262         3.53262 
        1.15359         4.80248         3.48984         3.48984 
        1.15973         4.74153         3.44775         3.44775 
        1.16584         4.69579         3.40656         3.40656 
        1.17197            4.65         3.36598         3.36598 
        1.17811         4.61109         3.32595         3.32595 
        1.18424         4.57314          3.2867          3.2867 
        1.19038         4.53123         3.24797         3.24797 
        1.19652         4.48324         3.20988         3.20988 
        1.20267         4.43251         3.17241         3.17241 
        1.20881         4.39379         3.13556         3.13556 
        1.21495         4.35698         3.09935         3.09935 
        1.22108         4.30805         3.06373         3.06373 
         1.2272         4.28075         3.02876         3.02876 
        1.23334         4.21954         2.99426         2.99426 
        1.23949          4.1798         2.96021         2.96021 
        1.24562         4.15625          2.9268          2.9268 
        1.25174         4.10181         2.89396         2.89396 
        1.25789         4.07202         2.86153         2.86153 
        1.26402         4.03054         2.82965         2.82965 
        1.27014         3.99037         2.79835         2.79835 
        1.27628         3.96342         2.76742         2.76742 
        1.28244         3.90989         2.73691         2.73691 
        1.28858         3.89199         2.70691         2.70691 
        1.29471         3.84711         2.67742         2.67742 
        1.30084         3.80817          2.6484          2.6484 
        1.30697         3.79825         2.61978         2.61978 
        1.31312         3.72457         2.59153         2.59153 
        1.31925         3.70953          2.5638          2.5638 
        1.32537         3.67396          2.5365          2.5365 
        1.33151         3.65614         2.50951         2.50951 
        1.33765         3.60434         2.48293         2.48293 
        1.34378         3.57594         2.45679         2.45679 
        1.34992         3.55893         2.43101         2.43101 
        1.35606          3.5088         2.40555         2.40555 
         1.3622         3.49244          2.3805          2.3805 
        1.36833         3.45962         2.35588         2.35588 
        1.37445         3.42873         2.33161         2.33161 
        1.38059         3.41028         2.30762         2.30762 
        1.38675         3.38396         2.28391         2.28391 
        1.39288         3.34577         2.26063         2.26063 
        1.39901         3.31145         2.23769         2.23769 
        1.40515         3.28897         2.21502         2.21502 
         1.4113         3.26345         2.19267         2.19267 
        1.41742         3.23854         2.17072         2.17072 
        1.42355         3.21239         2.14903         2.14903 
         1.4297         3.17827         2.12758         2.12758 
        1.43585         3.16471         2.10643         2.10643 
        1.44198         3.14233         2.08565         2.08565 
        1.44809         3.10347         2.06519         2.06519 
        1.45423         3.07904         2.04493         2.04493 
        1.46036         3.05336         2.02499         2.02499 
        1.46649         3.02718          2.0053          2.0053 
        1.47263         3.00126         1.98587         1.98587 
        1.47877         2.97359          1.9667          1.9667 
        1.48491         2.95436         1.94775         1.94775 
        1.49104         2.93616          1.9291          1.9291 
        1.49718         2.91179         1.91068         1.91068 
        1.50333         2.89025         1.89248         1.89248 
        1.50947         2.86717         1.87455         1.87455 
         1.5156         2.84525         1.85688         1.85688 
        1.52172         2.82541         1.83944         1.83944 
        1.52787         2.80333         1.82219         1.82219 
          1.534         2.78045         1.80519         1.80519 
        1.54013         2.76043         1.78842         1.78842 
        1.54627         2.73183         1.77183         1.77183 
        1.55241         2.71166         1.75546         1.75546 
        1.55855         2.69902         1.73931         1.73931 
        1.56467         2.67775         1.72342         1.72342 
         1.5708         2.65091         1.70767         1.70767 
        1.57695         2.63428         1.69211         1.69211 
        1.58308         2.61241         1.67677         1.67677 
        1.58922         2.59949         1.66162         1.66162 
        1.59535         2.57907         1.64666         1.64666 
         1.6015         2.56055         1.63186         1.63186 
        1.60764         2.54351         1.61726         1.61726 
        1.61376         2.52538         1.60287         1.60287 
        1.61989         2.50398         1.58865         1.58865 
        1.62604         2.48479         1.57458         1.57458 
        1.63218         2.47535         1.56068         1.56068 
        1.63831         2.44975         1.54698         1.54698 
        1.64444         2.43135         1.53345         1.53345 
        1.65059         2.41638         1.52004         1.52004 
        1.65673         2.40142         1.50681         1.50681 
        1.66285         2.37845         1.49378         1.49378 
        1.66898         2.36708          1.4809          1.4809 
        1.67512         2.34462         1.46814         1.46814 
        1.68127         2.33109         1.45553         1.45553 
         1.6874          2.3211         1.44309         1.44309 
        1.69353         2.29288         1.43081         1.43081 
        1.69967           2.281         1.41864         1.41864 
        1.70581         2.27245         1.40662         1.40662 
        1.71193         2.25301         1.39478         1.39478 
        1.71806         2.24098         1.38306         1.38306 
        1.72421         2.22469         1.37145         1.37145 
        1.73035         2.20852         1.35999         1.35999 
        1.73649         2.19221         1.34866         1.34866 
        1.74262         2.17724         1.33747         1.33747 
        1.74876         2.16767          1.3264          1.3264 
        1.75489         2.14845         1.31548         1.31548 
        1.76101          2.1327         1.30468         1.30468 
        1.76715         2.12098           1.294           1.294 
        1.77329         2.10816         1.28342         1.28342 
        1.77943         2.08895         1.27296         1.27296 
        1.78557         2.07917         1.26262         1.26262 
        1.79171         2.06872         1.25241         1.25241 
        1.79785         2.04975          1.2423          1.2423 
        1.80399         2.03923         1.23231         1.23231 
        1.81012         2.02908         1.22244         1.22244 
        1.81625         2.01218         1.21269         1.21269 
        1.82239         1.99813         1.20303         1.20303 
        1.82853          1.9815         1.19348         1.19348 
        1.83466         1.97587         1.18404         1.18404 
        1.84078          1.9623         1.17472         1.17472 
        1.84692         1.95093         1.16548         1.16548 
        1.85306         1.93416         1.15633         1.15633 
         1.8592         1.92333         1.14729         1.14729 
        1.86533         1.91062         1.13836         1.13836 
        1.87147         1.90244         1.12951         1.12951 
