# k  (h/Mpc)    P(k)  (Mpc/h)^3    P_linear(k)  (Mpc/h)^3     P_NL(k)  ShotnoiseSubtracted = false
     0.00783031         3215.28         3250.73         3250.73 
       0.013688         4118.74         4110.95         4110.95 
       0.019231         4241.33         4237.74         4237.74 
      0.0249154         3954.16         3991.43         3991.43 
      0.0312784         3525.41         3536.39         3536.39 
      0.0375637         3092.27         3085.78         3085.78 
      0.0433917         2728.89         2745.22         2745.22 
      0.0492413         2488.19         2491.38         2491.38 
      0.0555754         2266.53         2292.41         2292.41 
      0.0619321         2141.17         2132.14         2132.14 
       0.067871         1967.98         1986.05         1986.05 
      0.0738098         1809.43         1827.59         1827.59 
      0.0800417         1624.68         1648.98         1648.98 
      0.0862327         1460.73          1472.7          1472.7 
      0.0921407         1319.32         1321.11         1321.11 
      0.0982031         1186.83         1193.31         1193.31 
       0.104506          1103.6         1093.19         1093.19 
       0.110769         1029.11         1021.44         1021.44 
       0.116806         968.241         968.696         968.696 
       0.122832         926.802         921.744         921.744 
       0.129052         866.885         871.015         871.015 
       0.135211          812.39         814.942         814.942 
       0.141259         761.732         755.586         755.586 
       0.147318          707.91         696.228         696.228 
       0.153489         649.021         640.924         640.924 
       0.159709         606.723         594.076         594.076 
       0.165845         577.828         557.606         557.606 
       0.171974         543.754         529.452         529.452 
       0.178125         521.112         506.588         506.588 
       0.184229         501.965         485.987         485.987 
        0.19034         471.694         464.891         464.891 
       0.196428         456.844         442.192         442.192 
       0.202534         438.313         417.959         417.959 
       0.208729         411.975         393.135         393.135 
       0.214876         386.463         369.852         369.852 
       0.220989         372.318         349.265         349.265 
       0.227147         350.266         331.661         331.661 
        0.23329         336.285         317.021         317.021 
       0.239377         326.765         304.635         304.635 
       0.245482          308.73         293.359         293.359 
       0.251667         302.892         282.238         282.238 
       0.257832         291.949         270.918         270.918 
       0.263955         280.237         259.351         259.351 
       0.270079         269.425         247.724         247.724 
        0.27624         262.477         236.401         236.401 
       0.282372         251.538          225.92          225.92 
        0.28843         241.617         216.576         216.576 
       0.294538         231.984         208.197         208.197 
       0.300721         228.051         200.627         200.627 
        0.30691         218.043         193.678         193.678 
       0.313033         212.058         187.145         187.145 
       0.319153         202.817         180.742         180.742 
       0.325316         198.801         174.336         174.336 
        0.33145         191.578         168.016         168.016 
       0.337538          187.65         161.902         161.902 
       0.343633         181.173         156.053         156.053 
       0.349808         175.657         150.498         150.498 
       0.355968         171.592         145.369         145.369 
       0.362074         166.554         140.663         140.663 
       0.368217         161.994         136.249         136.249 
       0.374374         157.282         132.055         132.055 
       0.380519         153.669         128.026         128.026 
       0.386598          149.59         124.147         124.147 
       0.392688          146.87         120.346         120.346 
        0.39888         142.843         116.588         116.588 
       0.405048         139.526         112.976         112.976 
       0.411186          136.41         109.537         109.537 
       0.417313         132.654         106.281         106.281 
       0.423458         129.631          103.19          103.19 
       0.429607          126.33         100.256         100.256 
       0.435692         122.378         97.4919         97.4919 
       0.441815         121.192         94.8219         94.8219 
       0.447964         119.168         92.2304         92.2304 
       0.454126         114.075         89.7137         89.7137 
       0.460267         112.537         87.2827         87.2827 
       0.466387         110.198         84.9364         84.9364 
        0.47254         108.325         82.6599         82.6599 
       0.478662         106.694         80.4835         80.4835 
       0.484765         103.865         78.4034         78.4034 
       0.490885         101.874         76.4021         76.4021 
       0.497035         100.469         74.4704         74.4704 
       0.503198         97.7958         72.6087         72.6087 
       0.509342         95.6226         70.8179         70.8179 
       0.515458         94.1048         69.0925         69.0925 
       0.521598         92.8269          67.413          67.413 
       0.527764          91.181         65.7791         65.7791 
       0.533884         89.6015         64.2097         64.2097 
           0.54         87.9106         62.6934         62.6934 
       0.546137         86.8711         61.2226         61.2226 
       0.552299         85.5892         59.7958         59.7958 
       0.558452         83.2904         58.4202         58.4202 
       0.564573         81.8328         57.0977         57.0977 
       0.570708         80.9078         55.8153         55.8153 
       0.576825         79.3344         54.5766         54.5766 
       0.582926         77.8637         53.3781         53.3781 
       0.589034         76.1203         52.2131         52.2131 
       0.595184         75.2312         51.0748         51.0748 
       0.601379         74.3052         49.9629         49.9629 
       0.607522         72.5008         48.8938         48.8938 
       0.613639         72.2947         47.8614         47.8614 
       0.619772         70.5018         46.8572         46.8572 
       0.625918         70.0166         45.8808         45.8808 
       0.632068         69.0495         44.9322         44.9322 
       0.638161         67.9404         44.0194         44.0194 
         0.6443         66.8677         43.1258         43.1258 
       0.650464         65.8589         42.2542         42.2542 
       0.656582         65.2819         41.4132         41.4132 
       0.662703         63.9751         40.5951         40.5951 
       0.668861         63.1998         39.7948         39.7948 
       0.675024         62.2801         39.0156         39.0156 
       0.681124         61.3012         38.2655         38.2655 
       0.687237         60.2732         37.5339         37.5339 
       0.693381         59.7787         36.8183         36.8183 
       0.699536          58.643         36.1204         36.1204 
       0.705665         58.8117         35.4439         35.4439 
       0.711789         57.2651         34.7857         34.7857 
       0.717957         56.7576         34.1399         34.1399 
        0.72409         55.9648         33.5145         33.5145 
       0.730186         55.1042         32.9087         32.9087 
       0.736317         54.7996         32.3148         32.3148 
       0.742472         53.8862         31.7336         31.7336 
       0.748622         53.4491         31.1674         31.1674 
        0.75476         52.7122         30.6165         30.6165 
       0.760888         51.9647         30.0798         30.0798 
       0.767043          51.407         29.5541         29.5541 
       0.773185         50.6988         29.0422         29.0422 
       0.779291         50.4335         28.5456         28.5456 
       0.785407         49.9279         28.0599         28.0599 
       0.791564         49.0638         27.5827         27.5827 
       0.797719         48.2395         27.1169         27.1169 
       0.803834         48.1448          26.665          26.665 
       0.809972         47.4477         26.2219         26.2219 
       0.816124         46.6206          25.788          25.788 
       0.822261         46.3988         25.3653         25.3653 
       0.828378         45.9938         24.9535         24.9535 
       0.834502         45.4426         24.5505         24.5505 
       0.840667         45.0122          24.154          24.154 
       0.846816         44.3568         23.7674         23.7674 
       0.852925         43.9937         23.3919         23.3919 
       0.859047         43.4123         23.0237         23.0237 
       0.865192         43.1059         22.6624         22.6624 
       0.871341          42.872         22.3087         22.3087 
       0.877463         42.0248         21.9643         21.9643 
       0.883569         41.6819         21.6281         21.6281 
       0.889708         41.3556         21.2973         21.2973 
       0.895864         40.9784         20.9727         20.9727 
       0.902008         40.6471         20.6556         20.6556 
       0.908149         40.2425         20.3453         20.3453 
       0.914301         40.0491          20.041          20.041 
       0.920448         39.3361         19.7432         19.7432 
       0.926574         39.1139         19.4527         19.4527 
       0.932687         38.6952         19.1686         19.1686 
       0.938823         38.1979         18.8893         18.8893 
       0.944975         37.9973          18.615          18.615 
       0.951105         37.6606         18.3472         18.3472 
       0.957225         37.2095         18.0851         18.0851 
       0.963368         37.0294         17.8274         17.8274 
       0.969511         36.7195         17.5748         17.5748 
       0.975621         36.4323         17.3284         17.3284 
       0.981748         35.9456         17.0862         17.0862 
       0.987916         35.7415         16.8472         16.8472 
        0.99406         35.4346         16.6136         16.6136 
        1.00019         34.9836          16.385          16.385 
        1.00632         34.8492          16.161          16.161 
        1.01246         34.5707         15.9409         15.9409 
        1.01859         34.1067         15.7253         15.7253 
        1.02471         34.0712         15.5139         15.5139 
        1.03085         33.7304         15.3058         15.3058 
        1.03698         33.2316          15.102          15.102 
        1.04314         32.9941          14.901          14.901 
        1.04929         32.7655         14.7043         14.7043 
        1.05541         32.4206         14.5119         14.5119 
        1.06154         32.2835         14.3225         14.3225 
        1.06769         32.0294         14.1362         14.1362 
        1.07382         31.7611         13.9539         13.9539 
        1.07993         31.6341         13.7753         13.7753 
        1.08607         31.1993         13.5991         13.5991 
        1.09222         31.0751         13.4258         13.4258 
        1.09836         30.7106         13.2558         13.2558 
        1.10449         30.5838         13.0889         13.0889 
        1.11063         30.1749         12.9247         12.9247 
        1.11677         30.0815         12.7635         12.7635 
         1.1229         29.9581         12.6053         12.6053 
        1.12903         29.5431         12.4497         12.4497 
        1.13518         29.3394         12.2966         12.2966 
        1.14131         29.2655         12.1462         12.1462 
        1.14745         28.9975         11.9985         11.9985 
        1.15359          28.856         11.8532         11.8532 
        1.15973         28.5355         11.7102         11.7102 
        1.16584          28.245         11.5703         11.5703 
        1.17197         28.2894         11.4325         11.4325 
        1.17811         27.8944         11.2965         11.2965 
        1.18424         27.6528         11.1632         11.1632 
        1.19038          27.601         11.0317         11.0317 
        1.19652         27.4153         10.9023         10.9023 
        1.20267          27.196          10.775          10.775 
        1.20881          27.024         10.6499         10.6499 
        1.21495         26.8129         10.5269         10.5269 
        1.22108         26.6174         10.4059         10.4059 
         1.2272          26.331         10.2871         10.2871 
        1.23334           26.23         10.1699         10.1699 
        1.23949         26.0262         10.0543         10.0543 
        1.24562         25.9365         9.94083         9.94083 
        1.25174         25.7896         9.82928         9.82928 
        1.25789         25.5957         9.71912         9.71912 
        1.26402         25.4841         9.61086         9.61086 
        1.27014         25.2038         9.50453         9.50453 
        1.27628         25.0023          9.3995          9.3995 
        1.28244         24.9249         9.29587         9.29587 
        1.28858         24.8205         9.19396         9.19396 
        1.29471         24.6026          9.0938          9.0938 
        1.30084         24.4261         8.99525         8.99525 
        1.30697         24.2561         8.89802         8.89802 
        1.31312         24.0499         8.80209         8.80209 
        1.31925         23.9281          8.7079          8.7079 
        1.32537         23.8585         8.61519         8.61519 
        1.33151         23.6291         8.52351         8.52351 
        1.33765         23.5497         8.43322         8.43322 
        1.34378         23.4422         8.34444         8.34444 
        1.34992         23.1296         8.25689         8.25689 
        1.35606         23.0932         8.17041         8.17041 
         1.3622         22.9591         8.08534         8.08534 
        1.36833         22.7826         8.00169         8.00169 
        1.37445         22.7337         7.91928         7.91928 
        1.38059          22.579         7.83779         7.83779 
        1.38675         22.3465         7.75726         7.75726 
        1.39288         22.2787         7.67819         7.67819 
        1.39901          22.103         7.60027         7.60027 
        1.40515         22.0149         7.52327         7.52327 
         1.4113         21.8619         7.44737         7.44737 
        1.41742          21.681         7.37281         7.37281 
        1.42355         21.6265         7.29915         7.29915 
         1.4297         21.4978         7.22628         7.22628 
        1.43585         21.4373         7.15444         7.15444 
        1.44198         21.2011         7.08386         7.08386 
        1.44809          21.138         7.01438         7.01438 
        1.45423         21.0151         6.94557         6.94557 
        1.46036         20.9399         6.87783         6.87783 
        1.46649          20.802         6.81097         6.81097 
        1.47263         20.6397         6.74495         6.74495 
        1.47877         20.5522         6.67985         6.67985 
        1.48491         20.4322         6.61551         6.61551 
        1.49104         20.3889         6.55216         6.55216 
        1.49718         20.2039          6.4896          6.4896 
        1.50333         20.1148         6.42777         6.42777 
        1.50947         20.0416         6.36687         6.36687 
         1.5156         19.8627         6.30686         6.30686 
        1.52172         19.7249         6.24762         6.24762 
        1.52787         19.6886         6.18904         6.18904 
          1.534         19.5538         6.13128         6.13128 
        1.54013         19.3958         6.07432         6.07432 
        1.54627         19.3395         6.01799         6.01799 
        1.55241         19.2164         5.96237         5.96237 
        1.55855         19.1313         5.90753         5.90753 
        1.56467         19.0431         5.85354         5.85354 
         1.5708         18.9774         5.80008         5.80008 
        1.57695         18.7901         5.74721         5.74721 
        1.58308         18.7803         5.69512         5.69512 
        1.58922         18.6541         5.64365         5.64365 
        1.59535         18.5487         5.59284         5.59284 
         1.6015         18.4368         5.54259         5.54259 
        1.60764         18.3774         5.49298         5.49298 
        1.61376         18.2943         5.44413         5.44413 
        1.61989         18.1191         5.39583         5.39583 
        1.62604         18.1124         5.34801         5.34801 
        1.63218         17.9759         5.30081         5.30081 
        1.63831          17.925         5.25429         5.25429 
        1.64444         17.7759         5.20832         5.20832 
        1.65059         17.7075         5.16279         5.16279 
        1.65673         17.6514         5.11786         5.11786 
        1.66285         17.5111         5.07359         5.07359 
        1.66898         17.4678         5.02984         5.02984 
        1.67512         17.3923         4.98652         4.98652 
        1.68127          17.261         4.94367         4.94367 
         1.6874         17.1817         4.90143         4.90143 
        1.69353         17.1387         4.85971         4.85971 
        1.69967         17.0035         4.81838         4.81838 
        1.70581         16.9118         4.77755         4.77755 
        1.71193         16.8276         4.73735         4.73735 
        1.71806         16.7869         4.69753         4.69753 
        1.72421         16.6841          4.6581          4.6581 
        1.73035         16.6362         4.61916         4.61916 
        1.73649         16.5263         4.58068         4.58068 
        1.74262         16.4896         4.54268         4.54268 
        1.74876         16.3836         4.50508         4.50508 
        1.75489         16.3176         4.46799         4.46799 
        1.76101         16.2114         4.43133         4.43133 
        1.76715          16.206         4.39504         4.39504 
        1.77329         16.0895         4.35911         4.35911 
        1.77943         15.9957         4.32357         4.32357 
        1.78557         15.9345         4.28848         4.28848 
        1.79171         15.8959         4.25377         4.25377 
        1.79785         15.7736         4.21945         4.21945 
        1.80399         15.7128         4.18552         4.18552 
        1.81012         15.6513           4.152           4.152 
        1.81625         15.5634         4.11888         4.11888 
        1.82239         15.5165         4.08606         4.08606 
        1.82853         15.3865         4.05362         4.05362 
        1.83466         15.3424         4.02157         4.02157 
        1.84078         15.2311          3.9899          3.9899 
        1.84692         15.2134         3.95852         3.95852 
        1.85306         15.1328         3.92745         3.92745 
         1.8592         15.0785         3.89675         3.89675 
        1.86533         15.0082         3.86641         3.86641 
        1.87147         14.9355         3.83635         3.83635 
        1.87761         14.8849         3.80661         3.80661 
