# k  (h/Mpc)    P(k)  (Mpc/h)^3    P_linear(k)  (Mpc/h)^3     P_NL(k)  ShotnoiseSubtracted = false
     0.00783031         11599.3           11762           11762 
       0.013688         14993.9         14882.6         14882.6 
       0.019231           15357         15342.3         15342.3 
      0.0249154         14168.9         14450.5         14450.5 
      0.0312784         12661.6         12802.8         12802.8 
      0.0375637         11147.2         11171.3         11171.3 
      0.0433917         9748.46         9938.29         9938.29 
      0.0492413         8927.47         9019.26         9019.26 
      0.0555754         8034.91         8298.86         8298.86 
      0.0619321         7692.23          7718.6          7718.6 
       0.067871         6976.17          7189.7          7189.7 
      0.0738098         6418.59         6616.04         6616.04 
      0.0800417         5732.32         5969.43         5969.43 
      0.0862327         5189.07         5331.29         5331.29 
      0.0921407         4736.38          4782.5          4782.5 
      0.0982031          4259.5         4319.85         4319.85 
       0.104506         4014.59         3957.38         3957.38 
       0.110769         3738.91         3697.65         3697.65 
       0.116806          3523.8         3506.71         3506.71 
       0.122832          3364.2         3336.74         3336.74 
       0.129052         3119.74          3153.1          3153.1 
       0.135211         2939.86         2950.11         2950.11 
       0.141259         2790.59         2735.24         2735.24 
       0.147318         2615.32         2520.36         2520.36 
       0.153489         2397.31         2320.16         2320.16 
       0.159709         2270.36         2150.57         2150.57 
       0.165845         2189.58         2018.54         2018.54 
       0.171974         2072.26         1916.62         1916.62 
       0.178125         1978.43         1833.85         1833.85 
       0.184229         1901.19         1759.28         1759.28 
        0.19034         1787.93         1682.91         1682.91 
       0.196428         1750.56         1600.74         1600.74 
       0.202534         1683.09         1513.01         1513.01 
       0.208729         1600.59         1423.15         1423.15 
       0.214876         1526.23         1338.86         1338.86 
       0.220989         1477.29         1264.34         1264.34 
       0.227147         1410.16         1200.61         1200.61 
        0.23329         1358.02         1147.61         1147.61 
       0.239377         1336.69         1102.78         1102.78 
       0.245482         1253.25         1061.96         1061.96 
       0.251667         1244.89          1021.7          1021.7 
       0.257832         1197.08         980.723         980.723 
       0.263955         1157.32         938.849         938.849 
       0.270079         1117.62         896.761         896.761 
        0.27624         1104.88         855.771         855.771 
       0.282372          1057.9          817.83          817.83 
        0.28843         1045.86         784.003         784.003 
       0.294538         994.658         753.673         753.673 
       0.300721         991.186         726.268         726.268 
        0.30691         948.967         701.111         701.111 
       0.313033         931.189         677.463         677.463 
       0.319153         911.976         654.284         654.284 
       0.325316         882.859         631.095         631.095 
        0.33145          861.41         608.218         608.218 
       0.337538         848.798         586.084         586.084 
       0.343633         826.182         564.911         564.911 
       0.349808         798.685         544.801         544.801 
       0.355968         794.024         526.233         526.233 
       0.362074         783.505         509.198         509.198 
       0.368217         760.879         493.219         493.219 
       0.374374         729.851         478.038         478.038 
       0.380519         729.056         463.452         463.452 
       0.386598          710.58          449.41          449.41 
       0.392688         707.967         435.653         435.653 
        0.39888         687.368         422.049         422.049 
       0.405048          676.16         408.973         408.973 
       0.411186         666.041         396.524         396.524 
       0.417313         653.041         384.735         384.735 
       0.423458         641.933         373.545         373.545 
       0.429607         631.585         362.926         362.926 
       0.435692         617.543          352.92          352.92 
       0.441815         613.379         343.254         343.254 
       0.447964         600.225         333.873         333.873 
       0.454126         589.615         324.763         324.763 
       0.460267         578.724         315.962         315.962 
       0.466387         572.593         307.469         307.469 
        0.47254         562.902         299.228         299.228 
       0.478662          561.05         291.349         291.349 
       0.484765         543.931          283.82          283.82 
       0.490885         539.578         276.575         276.575 
       0.497035         529.194         269.582         269.582 
       0.503198         523.379         262.843         262.843 
       0.509342         518.733          256.36          256.36 
       0.515458         514.664         250.114         250.114 
       0.521598          502.78         244.034         244.034 
       0.527764         492.885          238.12          238.12 
       0.533884         491.535         232.438         232.438 
           0.54         485.145         226.949         226.949 
       0.546137         482.768         221.625         221.625 
       0.552299         473.807          216.46          216.46 
       0.558452         471.474          211.48          211.48 
       0.564573         464.309         206.693         206.693 
       0.570708         457.911         202.051         202.051 
       0.576825         447.113         197.567         197.567 
       0.582926          446.79         193.228         193.228 
       0.589034         442.613         189.011         189.011 
       0.595184         438.365          184.89          184.89 
       0.601379         432.754         180.865         180.865 
       0.607522          426.65         176.995         176.995 
       0.613639         425.414         173.257         173.257 
       0.619772         414.725         169.623         169.623 
       0.625918          413.91         166.088         166.088 
       0.632068         407.618         162.654         162.654 
       0.638161         406.098          159.35          159.35 
         0.6443         398.636         156.115         156.115 
       0.650464             396          152.96          152.96 
       0.656582         394.294         149.915         149.915 
       0.662703         391.986         146.954         146.954 
       0.668861         384.843         144.056         144.056 
       0.675024         381.365         141.236         141.236 
       0.681124         379.007         138.521         138.521 
       0.687237         375.164         135.872         135.872 
       0.693381         370.165         133.282         133.282 
       0.699536         366.135         130.755         130.755 
       0.705665         363.734         128.306         128.306 
       0.711789          361.09         125.924         125.924 
       0.717957         357.962         123.586         123.586 
        0.72409         355.015         121.322         121.322 
       0.730186         350.893         119.129         119.129 
       0.736317         347.731         116.979         116.979 
       0.742472         346.255         114.875         114.875 
       0.748622         342.428         112.826         112.826 
        0.75476         338.789         110.831         110.831 
       0.760888         335.001         108.889         108.889 
       0.767043         335.529         106.986         106.986 
       0.773185         330.929         105.132         105.132 
       0.779291         326.057         103.334         103.334 
       0.785407         324.966         101.576         101.576 
       0.791564         321.089         99.8489         99.8489 
       0.797719         318.744         98.1628         98.1628 
       0.803834         316.237         96.5269         96.5269 
       0.809972         314.668         94.9229         94.9229 
       0.816124         314.408         93.3524         93.3524 
       0.822261         309.424         91.8221         91.8221 
       0.828378         307.447         90.3311         90.3311 
       0.834502         305.783         88.8725         88.8725 
       0.840667         301.865          87.437          87.437 
       0.846816         300.322         86.0377         86.0377 
       0.852925         298.267         84.6782         84.6782 
       0.859047         296.494         83.3456         83.3456 
       0.865192         293.288         82.0377         82.0377 
       0.871341         291.017         80.7573         80.7573 
       0.877463         289.181         79.5104         79.5104 
       0.883569         287.655         78.2934         78.2934 
       0.889708         284.819         77.0959         77.0959 
       0.895864         281.645         75.9207         75.9207 
       0.902008         280.739         74.7728         74.7728 
       0.908149         279.088         73.6496         73.6496 
       0.914301         275.537          72.548          72.548 
       0.920448         273.631         71.4702         71.4702 
       0.926574         271.272         70.4183         70.4183 
       0.932687         271.533         69.3901         69.3901 
       0.938823         268.085          68.379          68.379 
       0.944975         267.009          67.386          67.386 
       0.951105         264.965         66.4165         66.4165 
       0.957225         262.815          65.468          65.468 
       0.963368         259.506          64.535          64.535 
       0.969511          258.38         63.6203         63.6203 
       0.975621         256.099         62.7286         62.7286 
       0.981748         256.217         61.8518         61.8518 
       0.987916         253.596         60.9864         60.9864 
        0.99406         250.325         60.1411         60.1411 
        1.00019         250.286         59.3136         59.3136 
        1.00632         248.309         58.5026         58.5026 
        1.01246         246.224         57.7057         57.7057 
        1.01859         246.146         56.9252         56.9252 
        1.02471         242.897         56.1602         56.1602 
        1.03085          240.55         55.4068         55.4068 
        1.03698         239.818         54.6689         54.6689 
        1.04314         237.496         53.9415         53.9415 
        1.04929         235.977         53.2292         53.2292 
        1.05541         235.792         52.5328         52.5328 
        1.06154         232.726         51.8472         51.8472 
        1.06769         232.157          51.173          51.173 
        1.07382         230.503          50.513          50.513 
        1.07993         228.466         49.8664         49.8664 
        1.08607         227.841         49.2284         49.2284 
        1.09222         226.202         48.6011         48.6011 
        1.09836         224.213         47.9856         47.9856 
        1.10449         221.915         47.3816         47.3816 
        1.11063          220.09         46.7874         46.7874 
        1.11677         219.751         46.2037         46.2037 
         1.1229         218.086         45.6311         45.6311 
        1.12903         216.693         45.0678         45.0678 
        1.13518         215.374         44.5136         44.5136 
        1.14131         213.571         43.9692         43.9692 
        1.14745         213.218         43.4343         43.4343 
        1.15359         211.334         42.9083         42.9083 
        1.15973         210.191         42.3908         42.3908 
        1.16584          208.07         41.8843         41.8843 
        1.17197         207.765         41.3855         41.3855 
        1.17811         205.815         40.8933         40.8933 
        1.18424         204.623         40.4106         40.4106 
        1.19038         203.886         39.9344         39.9344 
        1.19652         202.299         39.4662         39.4662 
        1.20267         201.631         39.0055         39.0055 
        1.20881           199.6         38.5523         38.5523 
        1.21495         198.614         38.1072         38.1072 
        1.22108         197.476         37.6692         37.6692 
         1.2272         195.784         37.2392         37.2392 
        1.23334         194.911          36.815          36.815 
        1.23949         193.619         36.3964         36.3964 
        1.24562         192.599         35.9856         35.9856 
        1.25174         190.515         35.5818         35.5818 
        1.25789         189.328         35.1831         35.1831 
        1.26402         188.304         34.7912         34.7912 
        1.27014         186.979         34.4062         34.4062 
        1.27628         186.044          34.026          34.026 
        1.28244         185.688         33.6509         33.6509 
        1.28858         183.809          33.282          33.282 
        1.29471         182.149         32.9194         32.9194 
        1.30084         181.451         32.5626         32.5626 
        1.30697         180.132         32.2107         32.2107 
        1.31312          178.99         31.8634         31.8634 
        1.31925           178.3         31.5224         31.5224 
        1.32537          177.13         31.1868         31.1868 
        1.33151         175.443         30.8549         30.8549 
        1.33765         174.684         30.5281         30.5281 
        1.34378         173.703         30.2067         30.2067 
        1.34992          172.87         29.8898         29.8898 
        1.35606         172.398         29.5767         29.5767 
         1.3622         170.789         29.2688         29.2688 
        1.36833         169.242          28.966          28.966 
        1.37445         168.249         28.6677         28.6677 
        1.38059         167.309         28.3727         28.3727 
        1.38675         166.494         28.0812         28.0812 
        1.39288         165.458         27.7949         27.7949 
        1.39901         165.255         27.5129         27.5129 
        1.40515         163.466         27.2341         27.2341 
         1.4113         162.168         26.9593         26.9593 
        1.41742         161.424         26.6895         26.6895 
        1.42355         160.324         26.4228         26.4228 
         1.4297          159.43          26.159          26.159 
        1.43585         158.135         25.8989         25.8989 
        1.44198         157.546         25.6435         25.6435 
        1.44809         156.754         25.3919         25.3919 
        1.45423         155.532         25.1429         25.1429 
        1.46036          154.72         24.8976         24.8976 
        1.46649         153.542         24.6556         24.6556 
        1.47263         152.742         24.4166         24.4166 
        1.47877         152.039         24.1809         24.1809 
        1.48491         150.387          23.948          23.948 
        1.49104         150.293         23.7187         23.7187 
        1.49718         148.522         23.4922         23.4922 
        1.50333         148.048         23.2684         23.2684 
        1.50947         147.407         23.0479         23.0479 
         1.5156         146.192         22.8307         22.8307 
        1.52172         145.277         22.6163         22.6163 
        1.52787         144.297         22.4042         22.4042 
          1.534         143.703         22.1951         22.1951 
        1.54013         142.583         21.9889         21.9889 
        1.54627         141.971          21.785          21.785 
        1.55241         140.841         21.5837         21.5837 
        1.55855         140.118         21.3852         21.3852 
        1.56467         139.382         21.1897         21.1897 
         1.5708         138.454         20.9962         20.9962 
        1.57695         137.656         20.8048         20.8048 
        1.58308         137.015         20.6162         20.6162 
        1.58922         136.232         20.4299         20.4299 
        1.59535         135.037          20.246          20.246 
         1.6015         134.601         20.0641         20.0641 
        1.60764          133.69         19.8845         19.8845 
        1.61376         132.956         19.7076         19.7076 
        1.61989         131.943         19.5328         19.5328 
        1.62604         131.292         19.3597         19.3597 
        1.63218         130.577         19.1888         19.1888 
        1.63831         129.563         19.0204         19.0204 
        1.64444         129.173          18.854          18.854 
        1.65059         128.469         18.6892         18.6892 
        1.65673         127.134         18.5266         18.5266 
        1.66285         126.994         18.3663         18.3663 
        1.66898         126.073         18.2079         18.2079 
        1.67512         125.537         18.0511         18.0511 
        1.68127         124.378          17.896          17.896 
         1.6874         123.309         17.7431         17.7431 
        1.69353         123.084         17.5921         17.5921 
        1.69967         122.326         17.4424         17.4424 
        1.70581         121.564         17.2946         17.2946 
        1.71193         120.826         17.1491         17.1491 
        1.71806         120.247          17.005          17.005 
        1.72421         119.426         16.8622         16.8622 
        1.73035         119.053         16.7213         16.7213 
        1.73649         118.193          16.582          16.582 
        1.74262         117.318         16.4444         16.4444 
        1.74876          116.96         16.3083         16.3083 
        1.75489         115.845          16.174          16.174 
        1.76101         115.336         16.0413         16.0413 
        1.76715         114.525         15.9099         15.9099 
        1.77329         114.321         15.7799         15.7799 
        1.77943         113.209         15.6512         15.6512 
        1.78557          112.61         15.5242         15.5242 
        1.79171         111.969         15.3986         15.3986 
        1.79785         111.264         15.2743         15.2743 
        1.80399         110.621         15.1515         15.1515 
        1.81012         110.047         15.0302         15.0302 
        1.81625         109.314         14.9103         14.9103 
        1.82239         108.994         14.7915         14.7915 
        1.82853         108.363          14.674          14.674 
        1.83466         107.482          14.558          14.558 
        1.84078         107.135         14.4434         14.4434 
        1.84692         106.204         14.3298         14.3298 
        1.85306         105.736         14.2173         14.2173 
         1.8592         104.977         14.1062         14.1062 
        1.86533         104.296         13.9963         13.9963 
        1.87147         103.631         13.8875         13.8875 
        1.87761         103.288         13.7798         13.7798 
