# k  (h/Mpc)    Pcb(k)  (Mpc/h)^3    Pcb_linear(k) (Mpc/h)^3    Pcb_NL(k) (Mpc/h)^3   ShotnoiseSubtracted = false
     0.00783031         106.601          107.54          107.54 
       0.013688         135.536         136.111         136.111 
       0.019231         140.193         140.353         140.353 
      0.0249154         131.819         132.216         132.216 
      0.0312784         117.132         117.155         117.155 
      0.0375637          102.39         102.233         102.233 
      0.0433917         90.9958         90.9538         90.9538 
      0.0492413         82.6323         82.5458         82.5458 
      0.0555754         75.8986         75.9546         75.9546 
      0.0619321         70.7472         70.6453         70.6453 
       0.067871         65.7358         65.8055         65.8055 
      0.0738098         60.4678         60.5557         60.5557 
      0.0800417         54.5276          54.638          54.638 
      0.0862327         48.7663         48.7975         48.7975 
      0.0921407         43.7842         43.7748         43.7748 
      0.0982031         39.5214         39.5404         39.5404 
       0.104506         36.2872         36.2228         36.2228 
       0.110769         33.8805         33.8455         33.8455 
       0.116806         32.0518         32.0979         32.0979 
       0.122832         30.5384         30.5422         30.5422 
       0.129052         28.8047         28.8613         28.8613 
       0.135211         26.9377         27.0034         27.0034 
       0.141259         25.0192         25.0367         25.0367 
       0.147318         23.0959         23.0699         23.0699 
       0.153489         21.2415         21.2374         21.2374 
       0.159709         19.6902          19.685          19.685 
       0.165845         18.5343         18.4766         18.4766 
       0.171974          17.536         17.5437         17.5437 
       0.178125         16.7832         16.7861         16.7861 
       0.184229         16.1172         16.1035         16.1035 
        0.19034         15.3681         15.4044         15.4044 
       0.196428         14.6451         14.6523         14.6523 
       0.202534         13.8876         13.8494         13.8494 
       0.208729         13.0389         13.0268         13.0268 
       0.214876         12.2431         12.2553         12.2553 
       0.220989         11.6134         11.5732         11.5732 
       0.227147         10.9816         10.9898         10.9898 
        0.23329          10.497         10.5047         10.5047 
       0.239377         10.0906         10.0943         10.0943 
       0.245482         9.70502         9.72068         9.72068 
       0.251667         9.36224         9.35216         9.35216 
       0.257832         8.97477         8.97707         8.97707 
       0.263955         8.59864          8.5938          8.5938 
       0.270079         8.21883         8.20854         8.20854 
        0.27624         7.86461         7.83334         7.83334 
       0.282372         7.51583         7.48604         7.48604 
        0.28843         7.18863         7.17641         7.17641 
       0.294538         6.91248          6.8988          6.8988 
       0.300721         6.67771         6.64794         6.64794 
        0.30691           6.429         6.41766         6.41766 
       0.313033         6.21473          6.2012          6.2012 
       0.319153         5.97435         5.98904         5.98904 
       0.325316         5.80318         5.77676         5.77676 
        0.33145         5.58799         5.56736         5.56736 
       0.337538         5.38355         5.36476         5.36476 
       0.343633         5.18282         5.17095         5.17095 
       0.349808         5.00648         4.98687         4.98687 
       0.355968         4.83918         4.81691         4.81691 
       0.362074         4.67843         4.66098         4.66098 
       0.368217         4.53311         4.51472         4.51472 
       0.374374         4.38164         4.37576         4.37576 
       0.380519          4.2601         4.24224         4.24224 
       0.386598         4.13524          4.1137          4.1137 
       0.392688         4.01535         3.98779         3.98779 
        0.39888         3.88533         3.86326         3.86326 
       0.405048         3.76768         3.74357         3.74357 
       0.411186         3.65636         3.62961         3.62961 
       0.417313         3.54137         3.52171         3.52171 
       0.423458          3.4457         3.41928         3.41928 
       0.429607         3.34094         3.32208         3.32208 
       0.435692         3.24927         3.23048         3.23048 
       0.441815         3.16218         3.14201         3.14201 
       0.447964         3.08566         3.05613         3.05613 
       0.454126         2.99171         2.97274         2.97274 
       0.460267         2.91002         2.89219         2.89219 
       0.466387         2.82955         2.81444         2.81444 
        0.47254         2.75697         2.73901         2.73901 
       0.478662         2.68784          2.6669          2.6669 
       0.484765         2.61497         2.59797         2.59797 
       0.490885          2.5502         2.53165         2.53165 
       0.497035         2.49591         2.46764         2.46764 
       0.503198         2.42865         2.40595         2.40595 
       0.509342         2.37293         2.34661         2.34661 
       0.515458         2.31065         2.28944         2.28944 
       0.521598         2.25611         2.23379         2.23379 
       0.527764         2.19739         2.17965         2.17965 
       0.533884         2.15308         2.12765         2.12765 
           0.54         2.10056          2.0774          2.0774 
       0.546137         2.05412         2.02867         2.02867 
       0.552299         2.00544         1.98139         1.98139 
       0.558452         1.95543         1.93581         1.93581 
       0.564573         1.91486         1.89198         1.89198 
       0.570708         1.87251         1.84949         1.84949 
       0.576825         1.82906         1.80844         1.80844 
       0.582926         1.79341         1.76873         1.76873 
       0.589034         1.74594         1.73013         1.73013 
       0.595184         1.71051         1.69241         1.69241 
       0.601379         1.67413         1.65557         1.65557 
       0.607522         1.64232         1.62014         1.62014 
       0.613639         1.61195         1.58593         1.58593 
       0.619772         1.57213         1.55266         1.55266 
       0.625918         1.54158          1.5203          1.5203 
       0.632068         1.51301         1.48887         1.48887 
       0.638161         1.47986         1.45862         1.45862 
         0.6443         1.45009         1.42901         1.42901 
       0.650464           1.418         1.40013         1.40013 
       0.656582          1.3931         1.37226         1.37226 
       0.662703         1.36634         1.34516         1.34516 
       0.668861          1.3432         1.31864         1.31864 
       0.675024         1.31414         1.29282         1.29282 
       0.681124         1.28609         1.26796         1.26796 
       0.687237         1.26547         1.24372         1.24372 
       0.693381         1.24242         1.22001         1.22001 
       0.699536         1.21339         1.19688         1.19688 
       0.705665         1.19222         1.17447         1.17447 
       0.711789          1.1729         1.15266         1.15266 
       0.717957         1.14912         1.13126         1.13126 
        0.72409         1.12952         1.11053         1.11053 
       0.730186          1.1082         1.09046         1.09046 
       0.736317          1.0926         1.07078         1.07078 
       0.742472         1.07208         1.05152         1.05152 
       0.748622         1.05201         1.03276         1.03276 
        0.75476         1.03148         1.01451         1.01451 
       0.760888         1.01318        0.996723        0.996723 
       0.767043         1.00114        0.979303        0.979303 
       0.773185         0.98067        0.962341        0.962341 
       0.779291        0.964385        0.945883        0.945883 
       0.785407        0.948581        0.929791        0.929791 
       0.791564        0.933122        0.913977        0.913977 
       0.797719        0.918845        0.898544        0.898544 
       0.803834        0.903954        0.883569        0.883569 
       0.809972        0.888229        0.868887        0.868887 
       0.816124        0.872943        0.854511        0.854511 
       0.822261        0.857673        0.840503        0.840503 
       0.828378        0.845813        0.826856        0.826856 
       0.834502        0.833569        0.813504        0.813504 
       0.840667        0.817531        0.800364        0.800364 
       0.846816        0.805053        0.787555        0.787555 
       0.852925        0.795055        0.775111        0.775111 
       0.859047          0.7824        0.762913        0.762913 
       0.865192        0.768927        0.750941        0.750941 
       0.871341        0.756848        0.739221        0.739221 
       0.877463        0.748013        0.727807        0.727807 
       0.883569         0.73488        0.716667        0.716667 
       0.889708        0.723793        0.705706        0.705706 
       0.895864        0.712845        0.694949        0.694949 
       0.902008        0.701627        0.684441        0.684441 
       0.908149        0.691146         0.67416         0.67416 
       0.914301        0.678746        0.664076        0.664076 
       0.920448        0.670087         0.65421         0.65421 
       0.926574        0.660132        0.644582        0.644582 
       0.932687        0.650329         0.63517         0.63517 
       0.938823        0.643412        0.625915        0.625915 
       0.944975        0.633449        0.616825        0.616825 
       0.951105        0.624943        0.607951        0.607951 
       0.957225        0.617366        0.599268        0.599268 
       0.963368        0.607976        0.590728        0.590728 
       0.969511        0.598312        0.582356        0.582356 
       0.975621        0.589578        0.574193        0.574193 
       0.981748        0.583642        0.566167        0.566167 
       0.987916        0.574945        0.558246        0.558246 
        0.99406        0.566535        0.550508        0.550508 
        1.00019        0.560136        0.542933        0.542933 
        1.00632        0.550671         0.53551         0.53551 
        1.01246        0.543323        0.528216        0.528216 
        1.01859        0.537136        0.521071        0.521071 
        1.02471        0.529526        0.514069        0.514069 
        1.03085        0.524232        0.507172        0.507172 
        1.03698         0.51604        0.500418        0.500418 
        1.04314         0.50968         0.49376         0.49376 
        1.04929        0.502396         0.48724         0.48724 
        1.05541        0.497022        0.480865        0.480865 
        1.06154          0.4897         0.47459         0.47459 
        1.06769        0.482938        0.468418        0.468418 
        1.07382        0.477406        0.462377        0.462377 
        1.07993        0.470573        0.456457        0.456457 
        1.08607        0.466566        0.450618        0.450618 
        1.09222         0.45953        0.444876        0.444876 
        1.09836        0.455285        0.439242        0.439242 
        1.10449         0.44943        0.433713        0.433713 
        1.11063        0.442658        0.428274        0.428274 
        1.11677        0.436762        0.422931        0.422931 
         1.1229        0.432364        0.417689        0.417689 
        1.12903        0.426526        0.412533        0.412533 
        1.13518        0.422119        0.407461        0.407461 
        1.14131        0.416485        0.402477        0.402477 
        1.14745        0.409938        0.397581        0.397581 
        1.15359        0.406388        0.392766        0.392766 
        1.15973        0.400547        0.388029        0.388029 
        1.16584        0.397455        0.383393        0.383393 
        1.17197        0.392377        0.378827        0.378827 
        1.17811        0.388327        0.374321        0.374321 
        1.18424        0.384563        0.369903        0.369903 
        1.19038        0.379059        0.365544        0.365544 
        1.19652         0.37374        0.361258        0.361258 
        1.20267        0.370952        0.357041        0.357041 
        1.20881        0.366174        0.352893        0.352893 
        1.21495        0.362894        0.348819        0.348819 
        1.22108         0.35826        0.344809        0.344809 
         1.2272        0.354728        0.340873        0.340873 
        1.23334        0.350288         0.33699         0.33699 
        1.23949        0.346469        0.333159        0.333159 
        1.24562        0.342645        0.329399        0.329399 
        1.25174        0.339124        0.325703        0.325703 
        1.25789        0.335901        0.322052        0.322052 
        1.26402        0.331022        0.318465        0.318465 
        1.27014        0.327831        0.314942        0.314942 
        1.27628        0.324862        0.311461        0.311461 
        1.28244        0.320211        0.308028        0.308028 
        1.28858        0.317392         0.30465         0.30465 
        1.29471         0.31484        0.301332        0.301332 
        1.30084        0.310678        0.298066        0.298066 
        1.30697        0.307461        0.294844        0.294844 
        1.31312        0.303249        0.291666        0.291666 
        1.31925        0.300583        0.288544        0.288544 
        1.32537        0.297901        0.285472        0.285472 
        1.33151        0.295148        0.282434        0.282434 
        1.33765        0.291969        0.279443        0.279443 
        1.34378         0.28832        0.276501        0.276501 
        1.34992        0.285685          0.2736          0.2736 
        1.35606        0.282776        0.270734        0.270734 
         1.3622        0.279937        0.267915        0.267915 
        1.36833        0.276889        0.265144        0.265144 
        1.37445        0.273432        0.262413        0.262413 
        1.38059        0.270967        0.259713        0.259713 
        1.38675        0.269526        0.257044        0.257044 
        1.39288        0.266249        0.254424        0.254424 
        1.39901        0.263601        0.251842        0.251842 
        1.40515        0.261353        0.249291        0.249291 
         1.4113        0.258039        0.246776        0.246776 
        1.41742        0.255609        0.244305        0.244305 
        1.42355        0.253796        0.241864        0.241864 
         1.4297        0.250707         0.23945         0.23945 
        1.43585        0.248555        0.237069        0.237069 
        1.44198        0.246595        0.234731        0.234731 
        1.44809        0.243684        0.232428        0.232428 
        1.45423        0.241636        0.230148        0.230148 
        1.46036        0.239112        0.227903        0.227903 
        1.46649        0.237416        0.225688        0.225688 
        1.47263        0.234861        0.223501        0.223501 
        1.47877        0.232045        0.221343        0.221343 
        1.48491         0.23038        0.219211        0.219211 
        1.49104         0.22757        0.217112        0.217112 
        1.49718        0.225611        0.215039        0.215039 
        1.50333        0.224123         0.21299         0.21299 
        1.50947        0.221702        0.210972        0.210972 
         1.5156        0.219545        0.208984        0.208984 
        1.52172        0.217735        0.207021        0.207021 
        1.52787        0.215663         0.20508         0.20508 
          1.534        0.213445        0.203166        0.203166 
        1.54013        0.211492        0.201279        0.201279 
        1.54627        0.210027        0.199412        0.199412 
        1.55241         0.20766        0.197569        0.197569 
        1.55855         0.20561        0.195752        0.195752 
        1.56467        0.204724        0.193963        0.193963 
         1.5708        0.202458        0.192191        0.192191 
        1.57695        0.200619        0.190439        0.190439 
        1.58308        0.198752        0.188713        0.188713 
        1.58922        0.197138        0.187008        0.187008 
        1.59535        0.195319        0.185324        0.185324 
         1.6015        0.193434        0.183659        0.183659 
        1.60764        0.192016        0.182015        0.182015 
        1.61376        0.189911        0.180396        0.180396 
        1.61989        0.188563        0.178796        0.178796 
        1.62604         0.18712        0.177212        0.177212 
        1.63218        0.185463        0.175648        0.175648 
        1.63831         0.18391        0.174106        0.174106 
        1.64444        0.182323        0.172583        0.172583 
        1.65059        0.180834        0.171074        0.171074 
        1.65673        0.179298        0.169585        0.169585 
        1.66285         0.17802        0.168118        0.168118 
        1.66898        0.176396        0.166669        0.166669 
        1.67512        0.174622        0.165233        0.165233 
        1.68127         0.17305        0.163813        0.163813 
         1.6874        0.172047        0.162414        0.162414 
        1.69353        0.170167        0.161031        0.161031 
        1.69967        0.169337        0.159662        0.159662 
        1.70581        0.167325        0.158309        0.158309 
        1.71193        0.166176        0.156977        0.156977 
        1.71806        0.164562        0.155657        0.155657 
        1.72421         0.16375        0.154351        0.154351 
        1.73035        0.162093         0.15306         0.15306 
        1.73649        0.161019        0.151785        0.151785 
        1.74262        0.159603        0.150526        0.150526 
        1.74876        0.158269         0.14928         0.14928 
        1.75489        0.157244        0.148051        0.148051 
        1.76101        0.155652        0.146836        0.146836 
        1.76715        0.154442        0.145634        0.145634 
        1.77329        0.152989        0.144443        0.144443 
        1.77943        0.151928        0.143266        0.143266 
        1.78557        0.151037        0.142103        0.142103 
        1.79171         0.14978        0.140953        0.140953 
        1.79785        0.148599        0.139816        0.139816 
        1.80399        0.147362        0.138691        0.138691 
        1.81012        0.146358        0.137581        0.137581 
        1.81625        0.145067        0.136483        0.136483 
        1.82239        0.143959        0.135396        0.135396 
        1.82853        0.142756        0.134321        0.134321 
        1.83466        0.141786        0.133259        0.133259 
        1.84078        0.140634        0.132209        0.132209 
        1.84692        0.139435         0.13117         0.13117 
        1.85306        0.138671         0.13014         0.13014 
         1.8592        0.137308        0.129123        0.129123 
        1.86533        0.136503        0.128117        0.128117 
        1.87147        0.135387        0.127121        0.127121 
