# k  (h/Mpc)    Pcb(k)  (Mpc/h)^3    Pcb_linear(k) (Mpc/h)^3    Pcb_NL(k) (Mpc/h)^3   ShotnoiseSubtracted = false
     0.00783031         423.516         427.436         427.436 
       0.013688         539.306         540.823         540.823 
       0.019231           557.3         557.613         557.613 
      0.0249154         523.062         525.258         525.258 
      0.0312784         465.166         465.408         465.408 
      0.0375637         406.921         406.122         406.122 
      0.0433917         361.113          361.31          361.31 
      0.0492413         328.206         327.907         327.907 
      0.0555754         300.976         301.723         301.723 
      0.0619321         281.378         280.631         280.631 
       0.067871         260.857         261.405         261.405 
      0.0738098         239.892          240.55          240.55 
      0.0800417         216.131         217.042         217.042 
      0.0862327          193.49         193.841         193.841 
      0.0921407         173.876         173.888         173.888 
      0.0982031         156.795         157.068         157.068 
       0.104506         144.332         143.889         143.889 
       0.110769         134.715         134.446         134.446 
       0.116806         127.222         127.504         127.504 
       0.122832         121.396         121.324         121.324 
       0.129052         114.303         114.647         114.647 
       0.135211         106.881         107.266         107.266 
       0.141259         99.4424         99.4538         99.4538 
       0.147318         91.9358         91.6409         91.6409 
       0.153489         84.4689         84.3616         84.3616 
       0.159709         78.3598         78.1952         78.1952 
       0.165845         73.9671         73.3949         73.3949 
       0.171974         69.8013         69.6891         69.6891 
       0.178125         66.8425         66.6797         66.6797 
       0.184229          64.252         63.9682         63.9682 
        0.19034         61.0642         61.1914         61.1914 
       0.196428         58.3487         58.2037         58.2037 
       0.202534         55.4981          55.014          55.014 
       0.208729          52.049         51.7466         51.7466 
       0.214876         48.7998         48.6819         48.6819 
       0.220989         46.4816         45.9722         45.9722 
       0.227147         43.8112         43.6551         43.6551 
        0.23329         41.9003          41.728          41.728 
       0.239377         40.3329         40.0978         40.0978 
       0.245482         38.6955         38.6136         38.6136 
       0.251667         37.4511         37.1497         37.1497 
       0.257832         35.9046         35.6598         35.6598 
       0.263955         34.4055         34.1373         34.1373 
       0.270079         32.9217         32.6069         32.6069 
        0.27624         31.6048         31.1165         31.1165 
       0.282372         30.2167         29.7369         29.7369 
        0.28843         28.8724         28.5069         28.5069 
       0.294538         27.7689         27.4042         27.4042 
       0.300721         26.9023         26.4077         26.4077 
        0.30691         25.8467         25.4929         25.4929 
       0.313033         24.9967         24.6331         24.6331 
       0.319153         23.9371         23.7903         23.7903 
       0.325316         23.3923         22.9471         22.9471 
        0.33145         22.5021         22.1153         22.1153 
       0.337538         21.7117         21.3105         21.3105 
       0.343633          20.894         20.5406         20.5406 
       0.349808         20.2166         19.8094         19.8094 
       0.355968         19.5573         19.1343         19.1343 
       0.362074         18.9112         18.5149         18.5149 
       0.368217         18.3329         17.9339         17.9339 
       0.374374          17.708         17.3819         17.3819 
       0.380519          17.246         16.8515         16.8515 
       0.386598         16.7531         16.3409         16.3409 
       0.392688         16.3035         15.8407         15.8407 
        0.39888          15.772         15.3461         15.3461 
       0.405048         15.3221         14.8706         14.8706 
       0.411186         14.8911         14.4179         14.4179 
       0.417313         14.3959         13.9893         13.9893 
       0.423458         14.0207         13.5824         13.5824 
       0.429607          13.594         13.1963         13.1963 
       0.435692         13.2202         12.8325         12.8325 
       0.441815         12.8861          12.481          12.481 
       0.447964         12.6124         12.1399         12.1399 
       0.454126         12.1897         11.8087         11.8087 
       0.460267         11.8818         11.4887         11.4887 
       0.466387         11.5301         11.1798         11.1798 
        0.47254         11.2732         10.8802         10.8802 
       0.478662         11.0117         10.5937         10.5937 
       0.484765         10.7006         10.3199         10.3199 
       0.490885         10.4375         10.0565         10.0565 
       0.497035         10.2543         9.80225         9.80225 
       0.503198          9.9751          9.5572          9.5572 
       0.509342         9.74562         9.32147         9.32147 
       0.515458         9.48787         9.09438         9.09438 
       0.521598         9.28091         8.87331         8.87331 
       0.527764         9.04066         8.65824         8.65824 
       0.533884          8.8734         8.45167         8.45167 
           0.54          8.6609         8.25208         8.25208 
       0.546137         8.48018         8.05849         8.05849 
       0.552299         8.29227         7.87069         7.87069 
       0.558452         8.05923         7.68962         7.68962 
       0.564573         7.92186         7.51554         7.51554 
       0.570708           7.753         7.34674         7.34674 
       0.576825         7.55787          7.1837          7.1837 
       0.582926         7.42434         7.02595         7.02595 
       0.589034         7.20798         6.87261         6.87261 
       0.595184         7.08099         6.72278         6.72278 
       0.601379         6.92706         6.57642         6.57642 
       0.607522         6.81312         6.43569         6.43569 
       0.613639         6.70372          6.2998          6.2998 
       0.619772         6.52495         6.16763         6.16763 
       0.625918         6.42494          6.0391          6.0391 
       0.632068         6.31685         5.91425         5.91425 
       0.638161         6.16304          5.7941          5.7941 
         0.6443         6.03785         5.67648         5.67648 
       0.650464         5.90246         5.56175         5.56175 
       0.656582          5.8263         5.45105         5.45105 
       0.662703         5.71476         5.34337         5.34337 
       0.668861         5.61813         5.23803         5.23803 
       0.675024         5.49369         5.13547         5.13547 
       0.681124         5.38582         5.03674         5.03674 
       0.687237         5.30391         4.94044         4.94044 
       0.693381         5.21153         4.84624         4.84624 
       0.699536         5.07454         4.75438         4.75438 
       0.705665         4.99662         4.66534         4.66534 
       0.711789         4.91778          4.5787          4.5787 
       0.717957         4.82131         4.49371         4.49371 
        0.72409         4.73722         4.41138         4.41138 
       0.730186         4.66086         4.33164         4.33164 
       0.736317         4.60591         4.25347         4.25347 
       0.742472         4.52463         4.17697         4.17697 
       0.748622         4.43743         4.10245         4.10245 
        0.75476          4.3385         4.02993         4.02993 
       0.760888         4.27692         3.95929         3.95929 
       0.767043         4.22681         3.89009         3.89009 
       0.773185         4.13571         3.82272         3.82272 
       0.779291         4.08174         3.75734         3.75734 
       0.785407         4.01289         3.69342         3.69342 
       0.791564         3.94892          3.6306          3.6306 
       0.797719         3.89079         3.56929         3.56929 
       0.803834         3.83641         3.50981         3.50981 
       0.809972         3.77768         3.45149         3.45149 
       0.816124         3.70302         3.39438         3.39438 
       0.822261          3.6376         3.33874         3.33874 
       0.828378         3.59383         3.28453         3.28453 
       0.834502         3.55061         3.23149         3.23149 
       0.840667         3.47565         3.17929         3.17929 
       0.846816         3.42229         3.12841         3.12841 
       0.852925         3.38762         3.07898         3.07898 
       0.859047         3.33528         3.03053         3.03053 
       0.865192         3.28689         2.98297         2.98297 
       0.871341         3.24029         2.93641         2.93641 
       0.877463         3.19946         2.89108         2.89108 
       0.883569         3.13893         2.84682         2.84682 
       0.889708         3.09015         2.80328         2.80328 
       0.895864         3.05064         2.76055         2.76055 
       0.902008         3.00253         2.71881         2.71881 
       0.908149         2.96412         2.67797         2.67797 
       0.914301         2.90799         2.63791         2.63791 
       0.920448         2.87091         2.59872         2.59872 
       0.926574         2.82819         2.56048         2.56048 
       0.932687         2.79481         2.52309         2.52309 
       0.938823         2.76398         2.48633         2.48633 
       0.944975         2.72322         2.45022         2.45022 
       0.951105          2.6889         2.41497         2.41497 
       0.957225         2.66597         2.38048         2.38048 
       0.963368         2.62332         2.34655         2.34655 
       0.969511         2.58267          2.3133          2.3133 
       0.975621         2.54234         2.28087         2.28087 
       0.981748         2.51961         2.24899         2.24899 
       0.987916         2.48317         2.21753         2.21753 
        0.99406         2.44311         2.18679         2.18679 
        1.00019         2.41831          2.1567          2.1567 
        1.00632         2.38258         2.12721         2.12721 
        1.01246         2.35455         2.09824         2.09824 
        1.01859         2.32713         2.06985         2.06985 
        1.02471         2.29438         2.04204         2.04204 
        1.03085         2.26963         2.01464         2.01464 
        1.03698         2.23639         1.98782         1.98782 
        1.04314         2.21208         1.96137         1.96137 
        1.04929         2.18139         1.93547         1.93547 
        1.05541         2.15756         1.91014         1.91014 
        1.06154         2.12935         1.88522         1.88522 
        1.06769         2.10533          1.8607          1.8607 
        1.07382         2.07917          1.8367          1.8367 
        1.07993          2.0469         1.81319         1.81319 
        1.08607         2.03367         1.78999         1.78999 
        1.09222         2.00421         1.76718         1.76718 
        1.09836          1.9886          1.7448          1.7448 
        1.10449         1.96353         1.72284         1.72284 
        1.11063         1.93359         1.70123         1.70123 
        1.11677         1.91032         1.68001         1.68001 
         1.1229         1.88869         1.65919         1.65919 
        1.12903         1.86504         1.63871         1.63871 
        1.13518         1.85011         1.61856         1.61856 
        1.14131         1.82143         1.59876         1.59876 
        1.14745         1.79109         1.57931         1.57931 
        1.15359         1.78177         1.56019         1.56019 
        1.15973         1.75256         1.54137         1.54137 
        1.16584         1.74642         1.52296         1.52296 
        1.17197         1.72181         1.50482         1.50482 
        1.17811         1.70369         1.48692         1.48692 
        1.18424         1.69082         1.46937         1.46937 
        1.19038         1.66623         1.45205         1.45205 
        1.19652         1.64663         1.43503         1.43503 
        1.20267         1.63374         1.41828         1.41828 
        1.20881         1.60955          1.4018          1.4018 
        1.21495         1.59797         1.38561         1.38561 
        1.22108         1.58067         1.36969         1.36969 
         1.2272          1.5671         1.35405         1.35405 
        1.23334         1.54541         1.33863         1.33863 
        1.23949         1.52801         1.32341         1.32341 
        1.24562         1.51593         1.30847         1.30847 
        1.25174         1.49785         1.29379         1.29379 
        1.25789         1.48382         1.27929         1.27929 
        1.26402         1.46265         1.26504         1.26504 
        1.27014         1.44832         1.25105         1.25105 
        1.27628         1.44066         1.23722         1.23722 
        1.28244         1.41813         1.22358         1.22358 
        1.28858         1.40653         1.21017         1.21017 
        1.29471         1.39325         1.19698         1.19698 
        1.30084         1.37665         1.18401         1.18401 
        1.30697         1.36454         1.17121         1.17121 
        1.31312         1.34355         1.15859         1.15859 
        1.31925         1.33629         1.14619         1.14619 
        1.32537         1.32381         1.13398         1.13398 
        1.33151         1.31267         1.12192         1.12192 
        1.33765         1.29672         1.11003         1.11003 
        1.34378         1.28116         1.09835         1.09835 
        1.34992         1.27417         1.08682         1.08682 
        1.35606         1.25705         1.07544         1.07544 
         1.3622         1.24779         1.06424         1.06424 
        1.36833         1.23486         1.05323         1.05323 
        1.37445         1.21969         1.04238         1.04238 
        1.38059         1.20923         1.03166         1.03166 
        1.38675         1.20572         1.02106         1.02106 
        1.39288         1.18758         1.01065         1.01065 
        1.39901          1.1765          1.0004          1.0004 
        1.40515         1.16656        0.990259        0.990259 
         1.4113         1.15427        0.980269        0.980269 
        1.41742         1.14374        0.970456        0.970456 
        1.42355         1.13873        0.960759        0.960759 
         1.4297         1.12189        0.951168        0.951168 
        1.43585         1.11389        0.941712        0.941712 
        1.44198         1.10773        0.932422        0.932422 
        1.44809         1.09149        0.923276        0.923276 
        1.45423          1.0829         0.91422         0.91422 
        1.46036         1.07338        0.905302        0.905302 
        1.46649         1.06331        0.896502        0.896502 
        1.47263         1.05237        0.887813        0.887813 
        1.47877         1.04223        0.879243        0.879243 
        1.48491         1.03367        0.870774        0.870774 
        1.49104         1.02414        0.862436        0.862436 
        1.49718         1.01744        0.854202        0.854202 
        1.50333         1.00643        0.846062        0.846062 
        1.50947        0.999305        0.838047        0.838047 
         1.5156        0.989601        0.830148        0.830148 
        1.52172        0.980494        0.822351        0.822351 
        1.52787        0.971147         0.81464         0.81464 
          1.534        0.965211        0.807037        0.807037 
        1.54013        0.952887         0.79954         0.79954 
        1.54627        0.945033        0.792125        0.792125 
        1.55241        0.937209        0.784804        0.784804 
        1.55855        0.928895        0.777586        0.777586 
        1.56467        0.923361         0.77048         0.77048 
         1.5708        0.912215        0.763443        0.763443 
        1.57695        0.907765        0.756483        0.756483 
        1.58308        0.899139        0.749628        0.749628 
        1.58922         0.89165        0.742853        0.742853 
        1.59535        0.883973        0.736165        0.736165 
         1.6015        0.876703         0.72955         0.72955 
        1.60764        0.870251        0.723021        0.723021 
        1.61376         0.86092         0.71659         0.71659 
        1.61989        0.855214        0.710233        0.710233 
        1.62604        0.847847        0.703939        0.703939 
        1.63218         0.84275        0.697726        0.697726 
        1.63831        0.833854        0.691603        0.691603 
        1.64444         0.82662        0.685551        0.685551 
        1.65059        0.820706        0.679559        0.679559 
        1.65673        0.813525        0.673645        0.673645 
        1.66285        0.806412        0.667818        0.667818 
        1.66898        0.802237        0.662059        0.662059 
        1.67512        0.792886        0.656357        0.656357 
        1.68127        0.787369        0.650717        0.650717 
         1.6874        0.782969        0.645157        0.645157 
        1.69353        0.774865        0.639665        0.639665 
        1.69967        0.768884        0.634225        0.634225 
        1.70581        0.763598        0.628851        0.628851 
        1.71193        0.757186         0.62356         0.62356 
        1.71806        0.751748        0.618319        0.618319 
        1.72421        0.745658        0.613128        0.613128 
        1.73035        0.738656        0.608003        0.608003 
        1.73649        0.735028        0.602938        0.602938 
        1.74262        0.728752        0.597936        0.597936 
        1.74876        0.722263        0.592987        0.592987 
        1.75489        0.716415        0.588105        0.588105 
        1.76101        0.710377        0.583279        0.583279 
        1.76715        0.705741        0.578502        0.578502 
        1.77329        0.700566        0.573773        0.573773 
        1.77943         0.69443        0.569095        0.569095 
        1.78557         0.68932        0.564476        0.564476 
        1.79171        0.684873        0.559908        0.559908 
        1.79785        0.679387        0.555391        0.555391 
        1.80399        0.674303        0.550924        0.550924 
        1.81012        0.669901        0.546513        0.546513 
        1.81625        0.663778        0.542152        0.542152 
        1.82239         0.66024        0.537833        0.537833 
        1.82853         0.65229        0.533563        0.533563 
        1.83466        0.649107        0.529345        0.529345 
        1.84078        0.643829        0.525176        0.525176 
        1.84692         0.64054        0.521046        0.521046 
        1.85306        0.635399        0.516955        0.516955 
         1.8592        0.631109        0.512915        0.512915 
        1.86533        0.626334        0.508921        0.508921 
        1.87147        0.621559        0.504965        0.504965 
