# k  (h/Mpc)    Pcb(k)  (Mpc/h)^3    Pcb_linear(k) (Mpc/h)^3    Pcb_NL(k) (Mpc/h)^3   ShotnoiseSubtracted = false
     0.00783031         5144.72         5205.55         5205.55 
       0.013688         6606.37         6582.49         6582.49 
       0.019231         6792.62         6785.18         6785.18 
      0.0249154         6314.36         6390.63         6390.63 
      0.0312784         5634.24         5661.96         5661.96 
      0.0375637         4947.27         4940.46         4940.46 
      0.0433917         4355.04         4395.18         4395.18 
      0.0492413            3976         3988.75         3988.75 
      0.0555754         3610.25         3670.17         3670.17 
      0.0619321          3424.4         3413.56         3413.56 
       0.067871         3135.58         3179.67         3179.67 
      0.0738098         2883.22         2925.97         2925.97 
      0.0800417         2584.89         2640.01         2640.01 
      0.0862327         2328.43         2357.79         2357.79 
      0.0921407         2108.72         2115.09         2115.09 
      0.0982031         1895.96         1910.48         1910.48 
       0.104506         1770.35         1750.18         1750.18 
       0.110769         1650.15         1635.31         1635.31 
       0.116806         1552.06         1550.87         1550.87 
       0.122832         1485.63          1475.7          1475.7 
       0.129052         1385.79         1394.48         1394.48 
       0.135211         1300.71         1304.71         1304.71 
       0.141259          1223.8         1209.68         1209.68 
       0.147318         1139.73         1114.65         1114.65 
       0.153489          1044.5         1026.11         1026.11 
       0.159709         980.451         951.106         951.106 
       0.165845         936.885         892.717         892.717 
       0.171974          882.57         847.643         847.643 
       0.178125         845.177         811.038         811.038 
       0.184229         814.223         778.057         778.057 
        0.19034         762.987         744.282         744.282 
       0.196428         742.666         707.942         707.942 
       0.202534         713.943         669.145         669.145 
       0.208729          672.85         629.402         629.402 
       0.214876         632.973         592.126         592.126 
       0.220989         611.439         559.167         559.167 
       0.227147         576.909         530.983         530.983 
        0.23329         554.625         507.544         507.544 
       0.239377         541.156         487.715         487.715 
       0.245482         508.533         469.663         469.663 
       0.251667         501.273         451.857         451.857 
       0.257832          483.58         433.735         433.735 
       0.263955         465.247         415.216         415.216 
       0.270079         447.919         396.602         396.602 
        0.27624         438.965         378.474         378.474 
       0.282372         420.665         361.693         361.693 
        0.28843         406.492         346.733         346.733 
       0.294538         389.115         333.321         333.321 
       0.300721         384.939           321.2           321.2 
        0.30691         367.591         310.074         310.074 
       0.313033         358.849         299.615         299.615 
       0.319153         345.025         289.365         289.365 
       0.325316         336.614         279.108         279.108 
        0.33145         325.499         268.991         268.991 
       0.337538         320.365         259.202         259.202 
       0.343633         309.626         249.838         249.838 
       0.349808         300.043         240.944         240.944 
       0.355968         295.008         232.732         232.732 
       0.362074         287.355         225.198         225.198 
       0.368217         279.724         218.131         218.131 
       0.374374         270.691         211.418         211.418 
       0.380519          265.84         204.966         204.966 
       0.386598          259.14         198.756         198.756 
       0.392688         255.564         192.672         192.672 
        0.39888         248.799         186.656         186.656 
       0.405048         243.181         180.873         180.873 
       0.411186         237.858         175.367         175.367 
       0.417313         232.906         170.153         170.153 
       0.423458         228.073         165.204         165.204 
       0.429607         222.652         160.508         160.508 
       0.435692         216.147         156.082         156.082 
       0.441815         214.564         151.808         151.808 
       0.447964         210.809         147.659         147.659 
       0.454126         201.957          143.63          143.63 
       0.460267         199.733         139.738         139.738 
       0.466387         196.944         135.981         135.981 
        0.47254         192.913         132.337         132.337 
       0.478662         190.971         128.853         128.853 
       0.484765         185.821         125.522         125.522 
       0.490885         182.888         122.318         122.318 
       0.497035         180.391         119.226         119.226 
       0.503198         175.583         116.245         116.245 
       0.509342         172.899         113.378         113.378 
       0.515458         170.545         110.616         110.616 
       0.521598         168.262         107.927         107.927 
       0.527764         165.563         105.311         105.311 
       0.533884         162.854         102.798         102.798 
           0.54         160.232         100.371         100.371 
       0.546137         158.887         98.0162         98.0162 
       0.552299          156.32         95.7319         95.7319 
       0.558452         153.211         93.5295         93.5295 
       0.564573         150.483         91.4122         91.4122 
       0.570708         148.487         89.3591         89.3591 
       0.576825         146.371         87.3759         87.3759 
       0.582926          143.95         85.4572         85.4572 
       0.589034         141.454         83.5921         83.5921 
       0.595184         139.901         81.7697         81.7697 
       0.601379         138.537         79.9896         79.9896 
       0.607522         135.165         78.2779         78.2779 
       0.613639         134.905          76.625          76.625 
       0.619772         131.821         75.0175         75.0175 
       0.625918         130.519         73.4541         73.4541 
       0.632068         129.087         71.9356         71.9356 
       0.638161         127.648         70.4742         70.4742 
         0.6443         125.925         69.0436         69.0436 
       0.650464          124.38          67.648          67.648 
       0.656582         122.903         66.3016         66.3016 
       0.662703         120.721         64.9919         64.9919 
       0.668861         119.483         63.7106         63.7106 
       0.675024         118.026         62.4632         62.4632 
       0.681124         116.833         61.2623         61.2623 
       0.687237         114.774          60.091          60.091 
       0.693381         113.499         58.9453         58.9453 
       0.699536         112.262          57.828          57.828 
       0.705665         112.648         56.7449         56.7449 
       0.711789         109.585         55.6911         55.6911 
       0.717957         109.062         54.6573         54.6573 
        0.72409          107.49         53.6559         53.6559 
       0.730186         105.714         52.6861         52.6861 
       0.736317           105.5         51.7353         51.7353 
       0.742472         104.276         50.8048         50.8048 
       0.748622          103.39         49.8984         49.8984 
        0.75476         102.238         49.0163         49.0163 
       0.760888         100.865         48.1572         48.1572 
       0.767043         99.9116         47.3155         47.3155 
       0.773185         98.8187          46.496          46.496 
       0.779291         97.9831         45.7008         45.7008 
       0.785407         97.2082         44.9233         44.9233 
       0.791564         95.9276         44.1593         44.1593 
       0.797719         94.6521         43.4136         43.4136 
       0.803834         94.2843         42.6901         42.6901 
       0.809972         92.6546         41.9807         41.9807 
       0.816124         92.1176         41.2861         41.2861 
       0.822261         91.4071         40.6093         40.6093 
       0.828378         90.5299           39.95           39.95 
       0.834502         89.7272         39.3048         39.3048 
       0.840667         88.8768           38.67           38.67 
       0.846816         87.8681         38.0511         38.0511 
       0.852925         87.0671         37.4499         37.4499 
       0.859047         85.9467         36.8605         36.8605 
       0.865192         85.6265         36.2821         36.2821 
       0.871341         84.9853         35.7158         35.7158 
       0.877463         83.6511         35.1644         35.1644 
       0.883569         83.1549         34.6261         34.6261 
       0.889708         82.6933         34.0965         34.0965 
       0.895864         81.8982         33.5768         33.5768 
       0.902008         81.2534         33.0691         33.0691 
       0.908149         80.6374         32.5724         32.5724 
       0.914301         79.8087         32.0852         32.0852 
       0.920448         79.1805         31.6085         31.6085 
       0.926574         78.5563         31.1433         31.1433 
       0.932687         78.0683         30.6885         30.6885 
       0.938823         76.9017         30.2414         30.2414 
       0.944975         76.6848         29.8022         29.8022 
       0.951105         75.9208         29.3734         29.3734 
       0.957225         74.9804         28.9539         28.9539 
       0.963368         74.8132         28.5413         28.5413 
       0.969511         74.2982         28.1368         28.1368 
       0.975621         73.7616         27.7424         27.7424 
       0.981748         72.9875         27.3546         27.3546 
       0.987916         72.4896         26.9719         26.9719 
        0.99406          72.101         26.5981         26.5981 
        1.00019         71.1522         26.2321         26.2321 
        1.00632         70.9335         25.8734         25.8734 
        1.01246         70.2349          25.521          25.521 
        1.01859         69.3857         25.1758         25.1758 
        1.02471         69.6288         24.8375         24.8375 
        1.03085         68.7897         24.5043         24.5043 
        1.03698         68.1592         24.1779         24.1779 
        1.04314         67.4858         23.8563         23.8563 
        1.04929         67.2377         23.5412         23.5412 
        1.05541         66.5745         23.2332         23.2332 
        1.06154         66.3978           22.93           22.93 
        1.06769         65.7691         22.6318         22.6318 
        1.07382         65.4737           22.34           22.34 
        1.07993         65.1682          22.054          22.054 
        1.08607         64.4687         21.7718         21.7718 
        1.09222          64.191         21.4944         21.4944 
        1.09836         63.6981         21.2222         21.2222 
        1.10449         63.2294          20.955          20.955 
        1.11063         62.5754         20.6922         20.6922 
        1.11677         62.2553         20.4341         20.4341 
         1.1229         61.9787         20.1809         20.1809 
        1.12903         61.0938         19.9317         19.9317 
        1.13518         61.2133         19.6867         19.6867 
        1.14131         60.9131         19.4459         19.4459 
        1.14745          60.067         19.2093         19.2093 
        1.15359         59.9517         18.9767         18.9767 
        1.15973         59.3509         18.7478         18.7478 
        1.16584         58.9615         18.5238         18.5238 
        1.17197         58.7095         18.3032         18.3032 
        1.17811         58.3311         18.0855         18.0855 
        1.18424         57.7494          17.872          17.872 
        1.19038         57.6332         17.6614         17.6614 
        1.19652         57.3289         17.4544         17.4544 
        1.20267         56.8692         17.2506         17.2506 
        1.20881         56.4802         17.0502         17.0502 
        1.21495          56.038         16.8533         16.8533 
        1.22108         55.6919         16.6596         16.6596 
         1.2272         55.1717         16.4695         16.4695 
        1.23334         54.9926         16.2818         16.2818 
        1.23949         54.8392         16.0967         16.0967 
        1.24562         54.4377          15.915          15.915 
        1.25174         54.1581         15.7365         15.7365 
        1.25789         53.8245         15.5601         15.5601 
        1.26402         53.4049         15.3868         15.3868 
        1.27014         52.9305         15.2166         15.2166 
        1.27628         52.7832         15.0484         15.0484 
        1.28244         52.3256         14.8825         14.8825 
        1.28858          52.149         14.7193         14.7193 
        1.29471         51.9696          14.559          14.559 
        1.30084         51.5947         14.4012         14.4012 
        1.30697         51.1611         14.2455         14.2455 
        1.31312         50.8106          14.092          14.092 
        1.31925         50.6936         13.9412         13.9412 
        1.32537         50.4057         13.7927         13.7927 
        1.33151         50.0111         13.6459         13.6459 
        1.33765         49.9225         13.5014         13.5014 
        1.34378         49.6156         13.3593         13.3593 
        1.34992         49.0044         13.2191         13.2191 
        1.35606          48.802         13.0806         13.0806 
         1.3622         48.5188         12.9445         12.9445 
        1.36833         48.3308         12.8105         12.8105 
        1.37445         48.2091         12.6786         12.6786 
        1.38059         47.9354         12.5481         12.5481 
        1.38675         47.5549         12.4192         12.4192 
        1.39288          47.335         12.2926         12.2926 
        1.39901         46.9592         12.1679         12.1679 
        1.40515         46.7626         12.0446         12.0446 
         1.4113         46.6284         11.9231         11.9231 
        1.41742         46.1743         11.8037         11.8037 
        1.42355          46.031         11.6858         11.6858 
         1.4297         45.6955         11.5691         11.5691 
        1.43585         45.6183         11.4541         11.4541 
        1.44198         45.2687         11.3411         11.3411 
        1.44809         45.0428         11.2299         11.2299 
        1.45423         44.8952         11.1197         11.1197 
        1.46036         44.6155         11.0113         11.0113 
        1.46649         44.3291         10.9042         10.9042 
        1.47263         44.1092         10.7985         10.7985 
        1.47877         43.9595         10.6943         10.6943 
        1.48491         43.7073         10.5913         10.5913 
        1.49104         43.4521         10.4899         10.4899 
        1.49718         43.0877         10.3897         10.3897 
        1.50333         42.9742         10.2907         10.2907 
        1.50947         42.7362         10.1932         10.1932 
         1.5156         42.4721         10.0971         10.0971 
        1.52172         42.2131         10.0023         10.0023 
        1.52787         42.2179         9.90852         9.90852 
          1.534         41.8455         9.81605         9.81605 
        1.54013          41.602         9.72486         9.72486 
        1.54627         41.5231         9.63467         9.63467 
        1.55241         41.2514         9.54563         9.54563 
        1.55855          40.984         9.45783         9.45783 
        1.56467         40.6904          9.3714          9.3714 
         1.5708         40.6478          9.2858          9.2858 
        1.57695         40.3041         9.20116         9.20116 
        1.58308         40.3164         9.11777         9.11777 
        1.58922         40.0912         9.03537         9.03537 
        1.59535         39.7833         8.95402         8.95402 
         1.6015         39.5797         8.87357         8.87357 
        1.60764         39.4519         8.79415         8.79415 
        1.61376         39.2556         8.71593         8.71593 
        1.61989         38.8877         8.63861         8.63861 
        1.62604         38.8384         8.56205         8.56205 
        1.63218         38.5825         8.48648         8.48648 
        1.63831         38.4275         8.41201         8.41201 
        1.64444         38.2883         8.33841         8.33841 
        1.65059         37.9342         8.26552         8.26552 
        1.65673         37.8217         8.19358         8.19358 
        1.66285          37.665         8.12271         8.12271 
        1.66898          37.429         8.05266         8.05266 
        1.67512         37.2887         7.98331         7.98331 
        1.68127         37.0162         7.91472         7.91472 
         1.6874         36.9381         7.84709         7.84709 
        1.69353         36.7131         7.78029         7.78029 
        1.69967         36.5609         7.71412         7.71412 
        1.70581         36.4076         7.64875         7.64875 
        1.71193         36.1775          7.5844          7.5844 
        1.71806         36.0091         7.52065         7.52065 
        1.72421         35.7811         7.45751         7.45751 
        1.73035         35.6415         7.39518         7.39518 
        1.73649         35.4914         7.33358         7.33358 
        1.74262         35.2738         7.27273         7.27273 
        1.74876         35.2568         7.21254         7.21254 
        1.75489         34.9539         7.15315         7.15315 
        1.76101         34.7996         7.09446         7.09446 
        1.76715         34.6286         7.03636         7.03636 
        1.77329         34.4859         6.97883         6.97883 
        1.77943         34.3544         6.92193         6.92193 
        1.78557         34.1607         6.86576         6.86576 
        1.79171         33.9943          6.8102          6.8102 
        1.79785         33.8285         6.75525         6.75525 
        1.80399         33.6759         6.70092         6.70092 
        1.81012         33.5903         6.64727         6.64727 
        1.81625         33.3699         6.59423         6.59423 
        1.82239         33.2681          6.5417          6.5417 
        1.82853         32.9769         6.48976         6.48976 
        1.83466         32.8574         6.43845         6.43845 
        1.84078         32.6337         6.38775         6.38775 
        1.84692         32.5778         6.33751         6.33751 
        1.85306         32.3868         6.28776         6.28776 
         1.8592         32.2434         6.23862         6.23862 
        1.86533         32.0344         6.19004         6.19004 
        1.87147         31.9452         6.14192         6.14192 
