# k  (h/Mpc)    P(k)  (Mpc/h)^3    P_linear(k)  (Mpc/h)^3     P_NL(k)  ShotnoiseSubtracted = false
     0.00783031         7448.39         7542.82         7542.82 
       0.013688         9588.53         9538.19         9538.19 
       0.019231         9843.13         9831.71         9831.71 
      0.0249154         9122.44         9259.85         9259.85 
      0.0312784         8145.44         8203.93         8203.93 
      0.0375637         7159.96         7158.44         7158.44 
      0.0433917         6286.27         6368.32         6368.32 
      0.0492413         5746.51         5779.42         5779.42 
      0.0555754         5199.75          5317.8          5317.8 
      0.0619321          4951.5         4945.98         4945.98 
       0.067871         4516.21         4607.07         4607.07 
      0.0738098         4153.41         4239.48         4239.48 
      0.0800417         3717.81         3825.14         3825.14 
      0.0862327         3355.59         3416.22         3416.22 
      0.0921407         3048.17         3064.57         3064.57 
      0.0982031         2740.15         2768.11         2768.11 
       0.104506         2568.89         2535.85         2535.85 
       0.110769         2393.49         2369.41         2369.41 
       0.116806         2252.11         2247.06         2247.06 
       0.122832         2154.21         2138.15         2138.15 
       0.129052         2004.24         2020.47         2020.47 
       0.135211         1884.39          1890.4          1890.4 
       0.141259         1779.25         1752.71         1752.71 
       0.147318          1660.9         1615.02         1615.02 
       0.153489         1521.97         1486.73         1486.73 
       0.159709         1434.42         1378.06         1378.06 
       0.165845         1375.49         1293.46         1293.46 
       0.171974         1298.02         1228.15         1228.15 
       0.178125         1241.52         1175.11         1175.11 
       0.184229          1195.5         1127.33         1127.33 
        0.19034         1119.61         1078.39         1078.39 
       0.196428         1093.79         1025.74         1025.74 
       0.202534         1052.41         969.524         969.524 
       0.208729         995.187         911.941         911.941 
       0.214876         940.385         857.932         857.932 
       0.220989          909.92         810.177         810.177 
       0.227147         862.212         769.341         769.341 
        0.23329         829.609          735.38          735.38 
       0.239377         812.598          706.65          706.65 
       0.245482         761.431         680.494         680.494 
       0.251667         753.418         654.696         654.696 
       0.257832         726.187         628.438         628.438 
       0.263955         700.517         601.606         601.606 
       0.270079         675.218         574.636         574.636 
        0.27624         665.005          548.37          548.37 
       0.282372         636.959         524.058         524.058 
        0.28843         620.741         502.382         502.382 
       0.294538         592.006         482.947         482.947 
       0.300721         588.581         465.386         465.386 
        0.30691         561.892         449.266         449.266 
       0.313033          550.36         434.112         434.112 
       0.319153          532.99          419.26          419.26 
       0.325316         517.881           404.4           404.4 
        0.33145         502.607         389.741         389.741 
       0.337538         495.819         375.557         375.557 
       0.343633          479.85          361.99          361.99 
       0.349808         464.566         349.104         349.104 
       0.355968         459.693         337.206         337.206 
       0.362074         450.036         326.289         326.289 
       0.368217         437.992          316.05          316.05 
       0.374374          421.37         306.323         306.323 
       0.380519         416.863         296.976         296.976 
       0.386598          406.86         287.978         287.978 
       0.392688         403.397         279.163         279.163 
        0.39888         392.252         270.445         270.445 
       0.405048         383.915         262.066         262.066 
       0.411186         376.283         254.089         254.089 
       0.417313         369.651         246.535         246.535 
       0.423458         362.696         239.364         239.364 
       0.429607          354.97          232.56          232.56 
       0.435692         346.059         226.148         226.148 
       0.441815         343.568         219.954         219.954 
       0.447964         336.899         213.943         213.943 
       0.454126         325.119         208.105         208.105 
       0.460267         321.362         202.466         202.466 
       0.466387         317.734         197.023         197.023 
        0.47254         310.714         191.742         191.742 
       0.478662         309.327         186.694         186.694 
       0.484765         300.348         181.869         181.869 
       0.490885         296.541         177.227         177.227 
       0.497035         291.973         172.746         172.746 
       0.503198         285.462         168.427         168.427 
       0.509342         282.815         164.273         164.273 
       0.515458         279.386         160.271         160.271 
       0.521598         274.663         156.375         156.375 
       0.527764         270.043         152.585         152.585 
       0.533884         266.953         148.944         148.944 
           0.54         263.217         145.427         145.427 
       0.546137         261.756         142.015         142.015 
       0.552299         256.665         138.706         138.706 
       0.558452          253.71         135.515         135.515 
       0.564573         249.616         132.447         132.447 
       0.570708         245.271         129.472         129.472 
       0.576825         242.061         126.599         126.599 
       0.582926         239.178         123.819         123.819 
       0.589034         236.119         121.116         121.116 
       0.595184         233.721         118.476         118.476 
       0.601379         231.528         115.897         115.897 
       0.607522         226.851         113.417         113.417 
       0.613639         225.772         111.022         111.022 
       0.619772          220.67         108.693         108.693 
       0.625918         219.035         106.428         106.428 
       0.632068         216.322         104.227         104.227 
       0.638161         215.089          102.11          102.11 
         0.6443         211.633         100.037         100.037 
       0.650464         209.564         98.0151         98.0151 
       0.656582         207.892         96.0643         96.0643 
       0.662703          205.36         94.1667         94.1667 
       0.668861         202.297         92.3101         92.3101 
       0.675024         199.952         90.5028         90.5028 
       0.681124         199.061         88.7628         88.7628 
       0.687237         195.845         87.0657         87.0657 
       0.693381         193.171         85.4057         85.4057 
       0.699536         191.905         83.7868         83.7868 
       0.705665         191.402         82.2176         82.2176 
       0.711789         187.669         80.6908         80.6908 
       0.717957         186.838         79.1929         79.1929 
        0.72409         184.463          77.742          77.742 
       0.730186          181.76         76.3368         76.3368 
       0.736317         180.682         74.9592         74.9592 
       0.742472         179.541          73.611          73.611 
       0.748622         178.033         72.2977         72.2977 
        0.75476         176.435         71.0197         71.0197 
       0.760888          174.01         69.7749         69.7749 
       0.767043         173.144         68.5554         68.5554 
       0.773185         171.344          67.368          67.368 
       0.779291         168.692         66.2158         66.2158 
       0.785407         167.961         65.0893         65.0893 
       0.791564         166.337         63.9823         63.9823 
       0.797719         164.203         62.9019         62.9019 
       0.803834         163.463         61.8536         61.8536 
       0.809972         161.448         60.8258         60.8258 
       0.816124         161.351         59.8194         59.8194 
       0.822261         159.216         58.8388         58.8388 
       0.828378         157.744         57.8834         57.8834 
       0.834502         157.482         56.9487         56.9487 
       0.840667         155.064         56.0289         56.0289 
       0.846816         153.851         55.1322         55.1322 
       0.852925         152.784         54.2611         54.2611 
       0.859047         151.076         53.4071         53.4071 
       0.865192         150.203          52.569          52.569 
       0.871341         148.705         51.7486         51.7486 
       0.877463         147.541         50.9496         50.9496 
       0.883569          146.45         50.1697         50.1697 
       0.889708         145.399         49.4024         49.4024 
       0.895864         143.935         48.6493         48.6493 
       0.902008         143.099         47.9138         47.9138 
       0.908149         142.279          47.194          47.194 
       0.914301         140.674         46.4881         46.4881 
       0.920448         139.744         45.7975         45.7975 
       0.926574         138.955         45.1234         45.1234 
       0.932687          138.24         44.4646         44.4646 
       0.938823         136.396         43.8167         43.8167 
       0.944975         135.348         43.1804         43.1804 
       0.951105         134.605         42.5591         42.5591 
       0.957225         132.976         41.9513         41.9513 
       0.963368         132.123         41.3534         41.3534 
       0.969511         131.652         40.7674         40.7674 
       0.975621         130.995         40.1959         40.1959 
       0.981748          130.11         39.6341         39.6341 
       0.987916         128.566         39.0796         39.0796 
        0.99406         127.963         38.5379         38.5379 
        1.00019          127.08         38.0076         38.0076 
        1.00632         126.205         37.4879         37.4879 
        1.01246         125.267         36.9773         36.9773 
        1.01859         123.824         36.4772         36.4772 
        1.02471         123.828          35.987          35.987 
        1.03085         122.544         35.5042         35.5042 
        1.03698         121.594         35.0314         35.0314 
        1.04314         120.601         34.5653         34.5653 
        1.04929         119.922         34.1088         34.1088 
        1.05541         119.122         33.6626         33.6626 
        1.06154         118.372         33.2233         33.2233 
        1.06769         118.017         32.7912         32.7912 
        1.07382         117.341         32.3683         32.3683 
        1.07993         116.397         31.9539         31.9539 
        1.08607         115.451         31.5452         31.5452 
        1.09222         114.884         31.1432         31.1432 
        1.09836          113.93         30.7488         30.7488 
        1.10449         113.211         30.3617         30.3617 
        1.11063         112.516          29.981          29.981 
        1.11677          111.99         29.6069         29.6069 
         1.1229         110.803           29.24           29.24 
        1.12903         109.917         28.8791         28.8791 
        1.13518         110.107          28.524          28.524 
        1.14131          109.05         28.1751         28.1751 
        1.14745         108.141         27.8323         27.8323 
        1.15359         107.553         27.4952         27.4952 
        1.15973         107.192         27.1637         27.1637 
        1.16584          106.26         26.8391         26.8391 
        1.17197          105.65         26.5194         26.5194 
        1.17811         104.973         26.2041         26.2041 
        1.18424         104.253         25.8948         25.8948 
        1.19038         103.685         25.5896         25.5896 
        1.19652         103.151         25.2896         25.2896 
        1.20267         102.345         24.9944         24.9944 
        1.20881         101.723          24.704          24.704 
        1.21495         101.026         24.4188         24.4188 
        1.22108         100.459         24.1381         24.1381 
         1.2272         99.7391         23.8626         23.8626 
        1.23334         99.2802         23.5907         23.5907 
        1.23949         98.4114         23.3225         23.3225 
        1.24562         98.1586         23.0593         23.0593 
        1.25174          97.409         22.8005         22.8005 
        1.25789         96.9128          22.545          22.545 
        1.26402         96.5082         22.2939         22.2939 
        1.27014         95.5547         22.0472         22.0472 
        1.27628         95.3224         21.8036         21.8036 
        1.28244         94.4842         21.5632         21.5632 
        1.28858         94.1378         21.3268         21.3268 
        1.29471         93.5178         21.0945         21.0945 
        1.30084         92.8832         20.8659         20.8659 
        1.30697         92.3551         20.6403         20.6403 
        1.31312         91.9512         20.4178         20.4178 
        1.31925         91.4345         20.1993         20.1993 
        1.32537         91.0023         19.9843         19.9843 
        1.33151         90.1234         19.7716         19.7716 
        1.33765         89.6573         19.5622         19.5622 
        1.34378         89.0865         19.3562         19.3562 
        1.34992         88.8785         19.1531         19.1531 
        1.35606          88.311         18.9525         18.9525 
         1.3622         87.4795         18.7552         18.7552 
        1.36833         87.3127         18.5612         18.5612 
        1.37445         86.6497           18.37           18.37 
        1.38059         86.1394          18.181          18.181 
        1.38675         85.6193         17.9942         17.9942 
        1.39288         85.0679         17.8107         17.8107 
        1.39901         84.9351           17.63           17.63 
        1.40515         84.4408         17.4514         17.4514 
         1.4113         83.6776         17.2753         17.2753 
        1.41742         83.5399         17.1024         17.1024 
        1.42355         82.7914         16.9315         16.9315 
         1.4297         82.4073         16.7625         16.7625 
        1.43585         81.7743         16.5958         16.5958 
        1.44198         81.5211         16.4321         16.4321 
        1.44809         81.0179         16.2709         16.2709 
        1.45423         80.5735         16.1113         16.1113 
        1.46036         80.2645         15.9542         15.9542 
        1.46649         79.7419         15.7991         15.7991 
        1.47263         79.2966          15.646          15.646 
        1.47877         79.0269         15.4949         15.4949 
        1.48491         78.4744         15.3457         15.3457 
        1.49104         78.0072         15.1987         15.1987 
        1.49718         77.5631         15.0536         15.0536 
        1.50333         77.1263         14.9102         14.9102 
        1.50947         76.6239         14.7689         14.7689 
         1.5156          76.409         14.6297         14.6297 
        1.52172         75.8645         14.4923         14.4923 
        1.52787         75.6557         14.3564         14.3564 
          1.534          75.225         14.2224         14.2224 
        1.54013          74.663         14.0903         14.0903 
        1.54627         74.3244         13.9597         13.9597 
        1.55241          73.855         13.8306         13.8306 
        1.55855         73.4825         13.7034         13.7034 
        1.56467         72.9428         13.5782         13.5782 
         1.5708          72.781         13.4542         13.4542 
        1.57695         72.4821         13.3315         13.3315 
        1.58308         71.8442         13.2107         13.2107 
        1.58922         71.7078         13.0913         13.0913 
        1.59535         71.4165         12.9735         12.9735 
         1.6015         70.7723         12.8569         12.8569 
        1.60764         70.5702         12.7418         12.7418 
        1.61376         70.0819         12.6285         12.6285 
        1.61989         69.6715         12.5165         12.5165 
        1.62604         69.4187         12.4055         12.4055 
        1.63218         69.1803          12.296          12.296 
        1.63831         68.6854         12.1881         12.1881 
        1.64444         68.3561         12.0815         12.0815 
        1.65059         67.8051         11.9759         11.9759 
        1.65673         67.6054         11.8717         11.8717 
        1.66285         67.2435          11.769          11.769 
        1.66898         66.9031         11.6675         11.6675 
        1.67512          66.431          11.567          11.567 
        1.68127         66.0715         11.4676         11.4676 
         1.6874          65.803         11.3696         11.3696 
        1.69353         65.4708         11.2728         11.2728 
        1.69967         65.1135          11.177          11.177 
        1.70581         64.9104         11.0823         11.0823 
        1.71193         64.6455          10.989          10.989 
        1.71806         64.0237         10.8967         10.8967 
        1.72421          63.915         10.8052         10.8052 
        1.73035         63.4834         10.7149         10.7149 
        1.73649          63.067         10.6256         10.6256 
        1.74262         62.8949         10.5374         10.5374 
        1.74876         62.5826         10.4502         10.4502 
        1.75489         62.1513         10.3642         10.3642 
        1.76101         61.9441         10.2792         10.2792 
        1.76715         61.4963          10.195          10.195 
        1.77329         61.2492         10.1116         10.1116 
        1.77943         60.9112         10.0292         10.0292 
        1.78557            60.7         9.94778         9.94778 
        1.79171         60.3374         9.86728         9.86728 
        1.79785         60.0913         9.78766         9.78766 
        1.80399         59.6898         9.70895         9.70895 
        1.81012         59.5455         9.63121         9.63121 
        1.81625         58.9598         9.55436         9.55436 
        1.82239         58.7845         9.47825         9.47825 
        1.82853         58.3636           9.403           9.403 
        1.83466         58.2087         9.32865         9.32865 
        1.84078         57.7565         9.25519         9.25519 
        1.84692         57.4962          9.1824          9.1824 
        1.85306         57.2572         9.11032         9.11032 
         1.8592          56.848         9.03912         9.03912 
        1.86533          56.645         8.96873         8.96873 
        1.87147         56.3307         8.89901         8.89901 
        1.87761         56.1052         8.83001         8.83001 
