# k  (h/Mpc)    Pcb(k)  (Mpc/h)^3    Pcb_linear(k) (Mpc/h)^3    Pcb_NL(k) (Mpc/h)^3   ShotnoiseSubtracted = false
     0.00783031         2905.48         2937.06         2937.06 
       0.013688         3720.04         3714.37         3714.37 
       0.019231         3831.94         3828.97         3828.97 
      0.0249154         3574.57         3606.45         3606.45 
      0.0312784         3186.41         3195.31         3195.31 
      0.0375637          2794.3         2788.17         2788.17 
      0.0433917         2467.16         2480.46         2480.46 
      0.0492413         2248.94         2251.11         2251.11 
      0.0555754         2049.88         2071.33         2071.33 
      0.0619321         1934.86         1926.51         1926.51 
       0.067871         1779.71         1794.51         1794.51 
      0.0738098         1636.31         1651.34         1651.34 
      0.0800417         1469.68         1489.95         1489.95 
      0.0862327         1320.87         1330.68         1330.68 
      0.0921407         1192.39          1193.7          1193.7 
      0.0982031          1072.8         1078.23         1078.23 
       0.104506         996.701          987.76          987.76 
       0.110769         929.507         922.933         922.933 
       0.116806         874.665         875.276         875.276 
       0.122832         837.152         832.852         832.852 
       0.129052         783.479         787.015         787.015 
       0.135211         734.011         736.351         736.351 
       0.141259         687.761         682.719         682.719 
       0.147318         638.893         629.086         629.086 
       0.153489         585.815         579.115         579.115 
       0.159709         547.185         536.785         536.785 
       0.165845         520.766         503.831         503.831 
       0.171974         490.013         478.392         478.392 
       0.178125         469.644         457.734         457.734 
       0.184229         452.349          439.12          439.12 
        0.19034         425.405         420.058         420.058 
       0.196428          411.54         399.548         399.548 
       0.202534         394.637         377.652         377.652 
       0.208729         370.755         355.222         355.222 
       0.214876         347.657         334.184         334.184 
       0.220989         334.703         315.583         315.583 
       0.227147         314.759         299.676         299.676 
        0.23329         302.098         286.448         286.448 
       0.239377         293.287         275.257         275.257 
       0.245482         277.469         265.069         265.069 
       0.251667         271.927          255.02          255.02 
       0.257832         262.006         244.791         244.791 
       0.263955         251.403          234.34          234.34 
       0.270079         241.625         223.835         223.835 
        0.27624         235.092         213.603         213.603 
       0.282372         225.275         204.133         204.133 
        0.28843         216.189          195.69          195.69 
       0.294538         207.663          188.12          188.12 
       0.300721         203.861         181.279         181.279 
        0.30691         194.981             175             175 
       0.313033         189.491         169.097         169.097 
       0.319153         181.101         163.312         163.312 
       0.325316         177.658         157.523         157.523 
        0.33145         171.102         151.813         151.813 
       0.337538         167.383         146.289         146.289 
       0.343633          161.56         141.004         141.004 
       0.349808         156.651         135.984         135.984 
       0.355968         152.836          131.35          131.35 
       0.362074         148.274         127.098         127.098 
       0.368217         144.176         123.109         123.109 
       0.374374         139.997          119.32          119.32 
       0.380519         136.689         115.679         115.679 
       0.386598          133.03         112.174         112.174 
       0.392688         130.511         108.741         108.741 
        0.39888         126.875         105.345         105.345 
       0.405048         123.905         102.081         102.081 
       0.411186         121.121         98.9738         98.9738 
       0.417313         117.621         96.0313         96.0313 
       0.423458         114.885         93.2382         93.2382 
       0.429607          111.93         90.5878         90.5878 
       0.435692         108.426           88.09           88.09 
       0.441815          107.27         85.6775         85.6775 
       0.447964         105.479         83.3359         83.3359 
       0.454126         101.012          81.062          81.062 
       0.460267         99.5712         78.8654         78.8654 
       0.466387         97.3365         76.7453         76.7453 
        0.47254         95.7399         74.6883         74.6883 
       0.478662         94.2246          72.722          72.722 
       0.484765          91.709         70.8424         70.8424 
       0.490885         89.8838         69.0341         69.0341 
       0.497035         88.6357         67.2887         67.2887 
       0.503198         86.2998         65.6065         65.6065 
       0.509342         84.2905         63.9884         63.9884 
       0.515458         82.8869         62.4294         62.4294 
       0.521598         81.7283         60.9119         60.9119 
       0.527764         80.2315         59.4355         59.4355 
       0.533884         78.8394         58.0175         58.0175 
           0.54         77.3174         56.6474         56.6474 
       0.546137         76.3367         55.3185         55.3185 
       0.552299          75.206         54.0293         54.0293 
       0.558452         73.1048         52.7863         52.7863 
       0.564573         71.8653         51.5914         51.5914 
       0.570708         71.0204         50.4326         50.4326 
       0.576825         69.5523         49.3133         49.3133 
       0.582926         68.2581         48.2304         48.2304 
       0.589034         66.6668         47.1778         47.1778 
       0.595184         65.8774         46.1493         46.1493 
       0.601379         65.0095         45.1446         45.1446 
       0.607522           63.48         44.1786         44.1786 
       0.613639          63.237         43.2457         43.2457 
       0.619772         61.6459         42.3384         42.3384 
       0.625918         61.2639         41.4561         41.4561 
       0.632068         60.3757         40.5991         40.5991 
       0.638161         59.3477         39.7743         39.7743 
         0.6443         58.3561         38.9669         38.9669 
       0.650464         57.4494         38.1793         38.1793 
       0.656582         56.9945         37.4194         37.4194 
       0.662703         55.8565         36.6802         36.6802 
       0.668861         55.1069         35.9571         35.9571 
       0.675024         54.2729         35.2531         35.2531 
       0.681124         53.3869         34.5753         34.5753 
       0.687237         52.4929         33.9142         33.9142 
       0.693381         52.0765         33.2676         33.2676 
       0.699536         51.0077          32.637          32.637 
       0.705665         51.1052         32.0258         32.0258 
       0.711789         49.7998          31.431          31.431 
       0.717957         49.3146         30.8476         30.8476 
        0.72409         48.6244         30.2824         30.2824 
       0.730186         47.8933         29.7351         29.7351 
       0.736317         47.5679         29.1985         29.1985 
       0.742472         46.7498         28.6733         28.6733 
       0.748622         46.3688         28.1617         28.1617 
        0.75476         45.6886         27.6639         27.6639 
       0.760888          45.042          27.179          27.179 
       0.767043         44.5517          26.704          26.704 
       0.773185         43.8962         26.2415         26.2415 
       0.779291         43.6728         25.7927         25.7927 
       0.785407         43.2182         25.3539         25.3539 
       0.791564         42.4461         24.9227         24.9227 
       0.797719         41.6872         24.5018         24.5018 
       0.803834         41.6196         24.0935         24.0935 
       0.809972         41.0783         23.6931         23.6931 
       0.816124          40.262         23.3011         23.3011 
       0.822261         40.0775         22.9191         22.9191 
       0.828378         39.7169          22.547          22.547 
       0.834502         39.2446         22.1829         22.1829 
       0.840667         38.8451         21.8246         21.8246 
       0.846816         38.2527         21.4753         21.4753 
       0.852925         37.9399          21.136          21.136 
       0.859047         37.4572         20.8034         20.8034 
       0.865192         37.1558         20.4769         20.4769 
       0.871341         36.9448         20.1573         20.1573 
       0.877463         36.2225         19.8461         19.8461 
       0.883569         35.8904         19.5423         19.5423 
       0.889708         35.5577         19.2434         19.2434 
       0.895864         35.2584         18.9501         18.9501 
       0.902008         34.9766         18.6636         18.6636 
       0.908149         34.6131         18.3832         18.3832 
       0.914301         34.4604         18.1083         18.1083 
       0.920448         33.7935         17.8392         17.8392 
       0.926574         33.6052         17.5767         17.5767 
       0.932687         33.2346           17.32           17.32 
       0.938823         32.8195         17.0677         17.0677 
       0.944975         32.5931         16.8198         16.8198 
       0.951105         32.3227         16.5778         16.5778 
       0.957225         31.9402         16.3411         16.3411 
       0.963368         31.7493         16.1082         16.1082 
       0.969511         31.4856         15.8799         15.8799 
       0.975621         31.2459         15.6573         15.6573 
       0.981748         30.8147         15.4385         15.4385 
       0.987916         30.6345         15.2225         15.2225 
        0.99406         30.3342         15.0114         15.0114 
        1.00019          29.955         14.8049         14.8049 
        1.00632         29.8443         14.6025         14.6025 
        1.01246         29.5977         14.4036         14.4036 
        1.01859         29.1868         14.2087         14.2087 
        1.02471         29.1346         14.0178         14.0178 
        1.03085         28.8487         13.8298         13.8298 
        1.03698         28.4003         13.6456         13.6456 
        1.04314         28.2203          13.464          13.464 
        1.04929         27.9761         13.2862         13.2862 
        1.05541         27.6909         13.1124         13.1124 
        1.06154         27.5515         12.9413         12.9413 
        1.06769         27.3572          12.773          12.773 
        1.07382         27.0971         12.6083         12.6083 
        1.07993         26.9811         12.4468         12.4468 
        1.08607         26.6147         12.2876         12.2876 
        1.09222         26.4866          12.131          12.131 
        1.09836         26.1627         11.9774         11.9774 
        1.10449         26.0637         11.8266         11.8266 
        1.11063         25.7293         11.6783         11.6783 
        1.11677         25.6478         11.5326         11.5326 
         1.1229         25.5244         11.3897         11.3897 
        1.12903         25.1792         11.2491         11.2491 
        1.13518         24.9647         11.1108         11.1108 
        1.14131         24.8918         10.9749         10.9749 
        1.14745         24.6865         10.8414         10.8414 
        1.15359         24.5469         10.7101         10.7101 
        1.15973         24.2873         10.5809         10.5809 
        1.16584         24.0133         10.4545         10.4545 
        1.17197         24.0368           10.33           10.33 
        1.17811         23.7185         10.2071         10.2071 
        1.18424         23.5095         10.0867         10.0867 
        1.19038         23.4492         9.96779         9.96779 
        1.19652         23.2779         9.85091         9.85091 
        1.20267         23.0802         9.73593         9.73593 
        1.20881         22.9604         9.62282         9.62282 
        1.21495         22.7816         9.51171         9.51171 
        1.22108         22.5925         9.40238         9.40238 
         1.2272         22.3631         9.29505         9.29505 
        1.23334         22.2544         9.18917         9.18917 
        1.23949         22.0649          9.0847          9.0847 
        1.24562         22.0017         8.98216         8.98216 
        1.25174         21.8692         8.88137         8.88137 
        1.25789         21.7052         8.78184         8.78184 
        1.26402         21.6109         8.68402         8.68402 
        1.27014         21.3802         8.58794         8.58794 
        1.27628         21.1748         8.49304         8.49304 
        1.28244         21.1179          8.3994          8.3994 
        1.28858         21.0357         8.30731         8.30731 
        1.29471         20.8318         8.21682         8.21682 
        1.30084         20.6708         8.12777         8.12777 
        1.30697         20.5434         8.03991         8.03991 
        1.31312         20.3587         7.95324         7.95324 
        1.31925         20.2383         7.86813         7.86813 
        1.32537         20.1847         7.78436         7.78436 
        1.33151         19.9894         7.70152         7.70152 
        1.33765         19.9032         7.61995         7.61995 
        1.34378          19.807         7.53972         7.53972 
        1.34992         19.5639         7.46061         7.46061 
        1.35606         19.5345         7.38248         7.38248 
         1.3622         19.4198         7.30561         7.30561 
        1.36833         19.2529         7.23003         7.23003 
        1.37445         19.1949         7.15557         7.15557 
        1.38059         19.0694         7.08193         7.08193 
        1.38675         18.8738         7.00917         7.00917 
        1.39288         18.8086         6.93773         6.93773 
        1.39901         18.6581         6.86732         6.86732 
        1.40515         18.5869         6.79774         6.79774 
         1.4113         18.4504         6.72916         6.72916 
        1.41742         18.3144          6.6618          6.6618 
        1.42355         18.2447         6.59524         6.59524 
         1.4297         18.1393          6.5294          6.5294 
        1.43585          18.083         6.46449         6.46449 
        1.44198          17.894         6.40071         6.40071 
        1.44809         17.8282         6.33793         6.33793 
        1.45423         17.7116         6.27576         6.27576 
        1.46036         17.6457         6.21455         6.21455 
        1.46649         17.5437         6.15414         6.15414 
        1.47263         17.3943         6.09449         6.09449 
        1.47877         17.3182         6.03566         6.03566 
        1.48491         17.2198         5.97753         5.97753 
        1.49104         17.1654         5.92029         5.92029 
        1.49718         17.0248         5.86376         5.86376 
        1.50333         16.9406         5.80789         5.80789 
        1.50947         16.8674         5.75286         5.75286 
         1.5156          16.726         5.69864         5.69864 
        1.52172         16.6249         5.64512         5.64512 
        1.52787         16.5581         5.59218         5.59218 
          1.534         16.4582            5.54            5.54 
        1.54013         16.3343         5.48853         5.48853 
        1.54627         16.2637         5.43763         5.43763 
        1.55241         16.1761         5.38737         5.38737 
        1.55855         16.1032         5.33783         5.33783 
        1.56467         16.0123         5.28904         5.28904 
         1.5708         15.9729         5.24074         5.24074 
        1.57695          15.817         5.19296         5.19296 
        1.58308         15.7777          5.1459          5.1459 
        1.58922         15.6879         5.09939         5.09939 
        1.59535         15.6083         5.05348         5.05348 
         1.6015         15.4992         5.00808         5.00808 
        1.60764         15.4369         4.96325         4.96325 
        1.61376         15.3858         4.91911         4.91911 
        1.61989         15.2369         4.87547         4.87547 
        1.62604         15.2281         4.83227         4.83227 
        1.63218         15.1164         4.78962         4.78962 
        1.63831          15.065         4.74758         4.74758 
        1.64444           14.94         4.70604         4.70604 
        1.65059         14.8775         4.66491         4.66491 
        1.65673         14.8348         4.62431         4.62431 
        1.66285         14.7006         4.58431         4.58431 
        1.66898         14.6705         4.54477         4.54477 
        1.67512         14.6059         4.50563         4.50563 
        1.68127         14.5003         4.46692         4.46692 
         1.6874         14.4339         4.42875         4.42875 
        1.69353         14.3805         4.39105         4.39105 
        1.69967         14.2832         4.35371         4.35371 
        1.70581         14.2043         4.31682         4.31682 
        1.71193         14.1321         4.28049         4.28049 
        1.71806         14.1017         4.24452         4.24452 
        1.72421         14.0005         4.20888         4.20888 
        1.73035         13.9663          4.1737          4.1737 
        1.73649         13.8854         4.13893         4.13893 
        1.74262         13.8346         4.10459         4.10459 
        1.74876         13.7579         4.07062         4.07062 
        1.75489         13.7004         4.03711         4.03711 
        1.76101         13.5961         4.00398         4.00398 
        1.76715         13.6012         3.97119         3.97119 
        1.77329         13.4952         3.93873         3.93873 
        1.77943         13.4177         3.90661         3.90661 
        1.78557         13.3722         3.87491         3.87491 
        1.79171         13.3345         3.84355         3.84355 
        1.79785         13.2345         3.81254         3.81254 
        1.80399         13.1808         3.78188         3.78188 
        1.81012         13.1229          3.7516          3.7516 
        1.81625         13.0487         3.72166         3.72166 
        1.82239         13.0037         3.69201         3.69201 
        1.82853         12.8991          3.6627          3.6627 
        1.83466         12.8658         3.63374         3.63374 
        1.84078         12.7726         3.60513         3.60513 
        1.84692         12.7584         3.57677         3.57677 
        1.85306         12.6901         3.54869         3.54869 
         1.8592         12.6353         3.52096         3.52096 
        1.86533         12.5781         3.49354         3.49354 
        1.87147         12.5217         3.46639         3.46639 
