# k  (h/Mpc)    Pcb(k)  (Mpc/h)^3    Pcb_linear(k) (Mpc/h)^3    Pcb_NL(k) (Mpc/h)^3   ShotnoiseSubtracted = false
     0.00783031         10433.1         10575.3         10575.3 
       0.013688         13468.9         13376.8         13376.8 
       0.019231         13803.6         13789.1         13789.1 
      0.0249154         12751.8         12987.2         12987.2 
      0.0312784         11392.8         11506.3         11506.3 
      0.0375637         10025.7         10039.9         10039.9 
      0.0433917         8777.54         8931.77         8931.77 
      0.0492413         8034.26          8105.8          8105.8 
      0.0555754         7242.13         7458.36         7458.36 
      0.0619321         6923.16         6936.86         6936.86 
       0.067871         6288.75         6461.52         6461.52 
      0.0738098         5785.24         5945.96         5945.96 
      0.0800417         5169.96         5364.84         5364.84 
      0.0862327         4676.11         4791.33         4791.33 
      0.0921407         4262.24         4298.12         4298.12 
      0.0982031         3832.32         3882.33         3882.33 
       0.104506         3606.82         3556.57         3556.57 
       0.110769         3359.41         3323.15         3323.15 
       0.116806         3164.33         3151.55         3151.55 
       0.122832         3022.87         2998.79         2998.79 
       0.129052         2805.59         2833.75         2833.75 
       0.135211         2642.32         2651.32         2651.32 
       0.141259         2504.32         2458.21         2458.21 
       0.147318         2344.23         2265.09         2265.09 
       0.153489         2148.52         2085.17         2085.17 
       0.159709         2032.29         1932.75         1932.75 
       0.165845         1956.62          1814.1          1814.1 
       0.171974         1850.34          1722.5          1722.5 
       0.178125         1767.31         1648.12         1648.12 
       0.184229         1699.69          1581.1          1581.1 
        0.19034         1595.51         1512.46         1512.46 
       0.196428         1561.81         1438.61         1438.61 
       0.202534         1502.26         1359.77         1359.77 
       0.208729         1426.22         1279.01         1279.01 
       0.214876         1356.18         1203.26         1203.26 
       0.220989         1312.86         1136.29         1136.29 
       0.227147         1250.49         1079.01         1079.01 
        0.23329            1204         1031.38         1031.38 
       0.239377          1183.5         991.088         991.088 
       0.245482         1108.97         954.404         954.404 
       0.251667         1100.58         918.221         918.221 
       0.257832         1058.94         881.393         881.393 
       0.263955         1023.42         843.762         843.762 
       0.270079         987.693         805.936         805.936 
        0.27624         975.856         769.097         769.097 
       0.282372         934.274         734.998         734.998 
        0.28843         919.995         704.597         704.597 
       0.294538         875.172         677.341         677.341 
       0.300721         872.076         652.711         652.711 
        0.30691         833.891         630.101         630.101 
       0.313033         818.126         608.849         608.849 
       0.319153         798.815         588.019         588.019 
       0.325316          773.92         567.176         567.176 
        0.33145         753.984         546.617         546.617 
       0.337538         743.547         526.725         526.725 
       0.343633         722.193         507.696         507.696 
       0.349808         698.259         489.623         489.623 
       0.355968         693.892         472.936         472.936 
       0.362074         683.224         457.626         457.626 
       0.368217         664.037         443.265         443.265 
       0.374374         636.701         429.622         429.622 
       0.380519         634.558         416.513         416.513 
       0.386598          618.88         403.892         403.892 
       0.392688         616.195          391.53          391.53 
        0.39888         598.302         379.303         379.303 
       0.405048         587.509         367.552         367.552 
       0.411186         577.999         356.363         356.363 
       0.417313          567.17         345.769         345.769 
       0.423458         557.348         335.712         335.712 
       0.429607         547.468         326.169         326.169 
       0.435692         535.044         317.175         317.175 
       0.441815         531.379         308.489         308.489 
       0.447964         520.146         300.058         300.058 
       0.454126         508.322          291.87          291.87 
       0.460267         500.289         283.961         283.961 
       0.466387          494.93         276.328         276.328 
        0.47254         485.265         268.921         268.921 
       0.478662         484.143         261.841         261.841 
       0.484765         469.256         255.074         255.074 
       0.490885         464.922         248.563         248.563 
       0.497035         456.417         242.278         242.278 
       0.503198         449.954         236.222         236.222 
       0.509342          446.28         230.395         230.395 
       0.515458         442.221         224.782         224.782 
       0.521598         432.568         219.318         219.318 
       0.527764         424.285         214.002         214.002 
       0.533884         422.344         208.897         208.897 
           0.54         416.689         203.964         203.964 
       0.546137         414.858         199.179         199.179 
       0.552299         406.634         194.537         194.537 
       0.558452         404.331         190.061         190.061 
       0.564573         398.049         185.759         185.759 
       0.570708          391.82         181.587         181.587 
       0.576825         384.007         177.557         177.557 
       0.582926         382.359         173.658         173.658 
       0.589034         378.613         169.868         169.868 
       0.595184         374.949         166.164         166.164 
       0.601379         370.609         162.547         162.547 
       0.607522         364.873         159.068         159.068 
       0.613639         363.289          155.71          155.71 
       0.619772         354.327         152.443         152.443 
       0.625918         353.514         149.266         149.266 
       0.632068         348.131          146.18          146.18 
       0.638161         346.777         143.211         143.211 
         0.6443         340.554         140.303         140.303 
       0.650464         337.875         137.468         137.468 
       0.656582         336.414         134.731         134.731 
       0.662703         334.098          132.07          132.07 
       0.668861         328.043         129.466         129.466 
       0.675024         324.745         126.931         126.931 
       0.681124           323.1         124.491         124.491 
       0.687237         319.476         122.111         122.111 
       0.693381         314.984         119.783         119.783 
       0.699536           312.2         117.512         117.512 
       0.705665          309.84         115.311         115.311 
       0.711789         307.027          113.17          113.17 
       0.717957         304.672         111.069         111.069 
        0.72409         301.714         109.034         109.034 
       0.730186         298.398         107.063         107.063 
       0.736317         295.518         105.131         105.131 
       0.742472         294.158          103.24          103.24 
       0.748622         291.297         101.399         101.399 
        0.75476         288.553         99.6061         99.6061 
       0.760888         285.015         97.8602         97.8602 
       0.767043         285.134         96.1499         96.1499 
       0.773185         281.351         94.4845         94.4845 
       0.779291         276.688         92.8686         92.8686 
       0.785407         275.967         91.2887         91.2887 
       0.791564         272.952          89.736          89.736 
       0.797719         270.508         88.2207         88.2207 
       0.803834           268.7         86.7505         86.7505 
       0.809972         266.847          85.309          85.309 
       0.816124          266.87         83.8975         83.8975 
       0.822261         262.589         82.5222         82.5222 
       0.828378         260.753         81.1823         81.1823 
       0.834502          260.05         79.8713         79.8713 
       0.840667         256.095         78.5813         78.5813 
       0.846816         254.675         77.3237         77.3237 
       0.852925         253.219         76.1019         76.1019 
       0.859047         251.248         74.9042         74.9042 
       0.865192         248.814         73.7288         73.7288 
       0.871341         246.676         72.5781         72.5781 
       0.877463         244.974         71.4575         71.4575 
       0.883569         243.722         70.3637         70.3637 
       0.889708         241.335         69.2875         69.2875 
       0.895864         238.402         68.2314         68.2314 
       0.902008         237.846         67.1997         67.1997 
       0.908149          236.64         66.1903         66.1903 
       0.914301         233.549         65.2002         65.2002 
       0.920448         231.819         64.2316         64.2316 
       0.926574         230.407         63.2862         63.2862 
       0.932687         230.223         62.3622         62.3622 
       0.938823         227.381         61.4535         61.4535 
       0.944975         225.879          60.561          60.561 
       0.951105         224.642         59.6897         59.6897 
       0.957225         222.465         58.8373         58.8373 
       0.963368         219.772         57.9988         57.9988 
       0.969511         218.901         57.1768         57.1768 
       0.975621         217.011         56.3753         56.3753 
       0.981748         217.148         55.5873         55.5873 
       0.987916          214.55         54.8096         54.8096 
        0.99406         212.504         54.0499         54.0499 
        1.00019         212.387         53.3062         53.3062 
        1.00632         210.389         52.5774         52.5774 
        1.01246         208.844         51.8612         51.8612 
        1.01859         208.152         51.1597         51.1597 
        1.02471         206.056         50.4722         50.4722 
        1.03085          203.76         49.7951         49.7951 
        1.03698         202.931          49.132          49.132 
        1.04314          201.33         48.4783         48.4783 
        1.04929         199.893         47.8381         47.8381 
        1.05541         199.482         47.2122         47.2122 
        1.06154         197.554         46.5961         46.5961 
        1.06769         197.189         45.9901         45.9901 
        1.07382         195.573          45.397          45.397 
        1.07993         193.782         44.8158         44.8158 
        1.08607         193.037         44.2425         44.2425 
        1.09222         191.881         43.6787         43.6787 
        1.09836         190.077         43.1256         43.1256 
        1.10449          188.28         42.5827         42.5827 
        1.11063         186.776         42.0487         42.0487 
        1.11677         186.505         41.5241         41.5241 
         1.1229         184.844         41.0095         41.0095 
        1.12903         183.833         40.5033         40.5033 
        1.13518         182.983         40.0052         40.0052 
        1.14131         181.251         39.5159         39.5159 
        1.14745         180.826         39.0352         39.0352 
        1.15359         179.362         38.5625         38.5625 
        1.15973          178.63         38.0974         38.0974 
        1.16584         176.628         37.6422         37.6422 
        1.17197          176.14         37.1939         37.1939 
        1.17811           174.9         36.7515         36.7515 
        1.18424         173.882         36.3178         36.3178 
        1.19038         173.318         35.8898         35.8898 
        1.19652         171.933          35.469          35.469 
        1.20267         171.123          35.055          35.055 
        1.20881         169.494         34.6477         34.6477 
        1.21495          168.84         34.2476         34.2476 
        1.22108         167.913          33.854          33.854 
         1.2272         166.365         33.4675         33.4675 
        1.23334         165.661         33.0863         33.0863 
        1.23949         164.268         32.7101         32.7101 
        1.24562         163.539         32.3409         32.3409 
        1.25174         161.617         31.9781         31.9781 
        1.25789          160.91         31.6197         31.6197 
        1.26402          160.11         31.2675         31.2675 
        1.27014         158.993         30.9215         30.9215 
        1.27628         158.185         30.5798         30.5798 
        1.28244         157.671         30.2427         30.2427 
        1.28858         156.589         29.9111         29.9111 
        1.29471         154.866         29.5853         29.5853 
        1.30084         154.278         29.2647         29.2647 
        1.30697         153.308         28.9483         28.9483 
        1.31312         152.698         28.6363         28.6363 
        1.31925         151.565         28.3298         28.3298 
        1.32537         150.717         28.0282         28.0282 
        1.33151         149.278         27.7299         27.7299 
        1.33765         148.881         27.4362         27.4362 
        1.34378          147.82         27.1474         27.1474 
        1.34992         147.313         26.8625         26.8625 
        1.35606         146.516         26.5812         26.5812 
         1.3622         145.346         26.3044         26.3044 
        1.36833          144.33         26.0323         26.0323 
        1.37445         143.338         25.7642         25.7642 
        1.38059         142.848          25.499          25.499 
        1.38675         141.826         25.2371         25.2371 
        1.39288         141.259         24.9798         24.9798 
        1.39901         140.798         24.7263         24.7263 
        1.40515         139.512         24.4758         24.4758 
         1.4113         138.203         24.2289         24.2289 
        1.41742           137.8         23.9863         23.9863 
        1.42355         136.836         23.7467         23.7467 
         1.4297         136.052         23.5096         23.5096 
        1.43585         134.763         23.2759         23.2759 
        1.44198         134.642         23.0462         23.0462 
        1.44809         133.628         22.8202         22.8202 
        1.45423         132.605         22.5964         22.5964 
        1.46036         132.164         22.3759         22.3759 
        1.46649         131.187         22.1584         22.1584 
        1.47263          130.66         21.9437         21.9437 
        1.47877         129.969         21.7319         21.7319 
        1.48491         128.574         21.5225         21.5225 
        1.49104          128.35         21.3164         21.3164 
        1.49718         127.033         21.1129         21.1129 
        1.50333         126.615         20.9117         20.9117 
        1.50947         126.002         20.7136         20.7136 
         1.5156         125.144         20.5184         20.5184 
        1.52172         124.281         20.3257         20.3257 
        1.52787         123.688         20.1351         20.1351 
          1.534         122.944         19.9472         19.9472 
        1.54013         122.017         19.7619         19.7619 
        1.54627          121.56         19.5786         19.5786 
        1.55241         120.617         19.3976         19.3976 
        1.55855         120.093         19.2192         19.2192 
        1.56467         119.552         19.0436         19.0436 
         1.5708         118.635         18.8697         18.8697 
        1.57695         118.158         18.6977         18.6977 
        1.58308          117.31         18.5282         18.5282 
        1.58922         116.914         18.3607         18.3607 
        1.59535          115.98         18.1954         18.1954 
         1.6015         115.485          18.032          18.032 
        1.60764         114.721         17.8706         17.8706 
        1.61376          114.41         17.7116         17.7116 
        1.61989         113.399         17.5545         17.5545 
        1.62604         112.922         17.3989         17.3989 
        1.63218         112.251         17.2454         17.2454 
        1.63831         111.384          17.094          17.094 
        1.64444         111.011         16.9445         16.9445 
        1.65059         110.387         16.7963         16.7963 
        1.65673         109.253         16.6502         16.6502 
        1.66285         109.216         16.5061         16.5061 
        1.66898         108.385         16.3638         16.3638 
        1.67512         107.855         16.2229         16.2229 
        1.68127          107.09         16.0835         16.0835 
         1.6874         106.253          15.946          15.946 
        1.69353         105.781         15.8103         15.8103 
        1.69967         105.367         15.6759         15.6759 
        1.70581         104.671          15.543          15.543 
        1.71193         104.294         15.4122         15.4122 
        1.71806         103.479         15.2827         15.2827 
        1.72421         102.895         15.1544         15.1544 
        1.73035         102.347         15.0277         15.0277 
        1.73649         101.659         14.9025         14.9025 
        1.74262         101.081         14.7789         14.7789 
        1.74876         100.737         14.6566         14.6566 
        1.75489         99.7997         14.5359         14.5359 
        1.76101         99.5095         14.4166         14.4166 
        1.76715         98.6618         14.2986         14.2986 
        1.77329         98.4072         14.1817         14.1817 
        1.77943         97.5761          14.066          14.066 
        1.78557         97.2124         13.9519         13.9519 
        1.79171         96.5606          13.839          13.839 
        1.79785         96.0415         13.7273         13.7273 
        1.80399         95.5308         13.6169         13.6169 
        1.81012         95.0799         13.5079         13.5079 
        1.81625         94.3778         13.4001         13.4001 
        1.82239         94.0943         13.2934         13.2934 
        1.82853         93.6687         13.1878         13.1878 
        1.83466         92.8636         13.0836         13.0836 
        1.84078          92.704         12.9805         12.9805 
        1.84692         91.8218         12.8784         12.8784 
        1.85306         91.2486         12.7773         12.7773 
         1.8592         90.7859         12.6775         12.6775 
        1.86533          90.345         12.5788         12.5788 
        1.87147         89.5474          12.481          12.481 
