# k  (h/Mpc)    Pcb(k)  (Mpc/h)^3    Pcb_linear(k) (Mpc/h)^3    Pcb_NL(k) (Mpc/h)^3   ShotnoiseSubtracted = false
     0.00783031         6715.99         6799.28         6799.28 
       0.013688         8638.74         8597.76         8597.76 
       0.019231         8872.63         8862.35         8862.35 
      0.0249154         8230.96         8346.91         8346.91 
      0.0312784         7347.93         7395.11         7395.11 
      0.0375637         6456.75         6452.71         6452.71 
      0.0433917         5673.65          5740.5          5740.5 
      0.0492413         5184.41         5209.65         5209.65 
      0.0555754         4696.41         4793.55         4793.55 
      0.0619321         4466.73         4458.39         4458.39 
       0.067871         4079.12         4152.89         4152.89 
      0.0738098         3751.19         3821.54         3821.54 
      0.0800417         3359.46         3448.05         3448.05 
      0.0862327         3030.23         3079.45         3079.45 
      0.0921407         2749.91         2762.46         2762.46 
      0.0982031         2472.06         2495.23         2495.23 
       0.104506         2314.68         2285.86         2285.86 
       0.110769          2156.9         2135.84         2135.84 
       0.116806         2029.09         2025.55         2025.55 
       0.122832         1941.45         1927.37         1927.37 
       0.129052         1807.73         1821.29         1821.29 
       0.135211          1698.7         1704.04         1704.04 
       0.141259         1602.13         1579.93         1579.93 
       0.147318         1494.41         1455.81         1455.81 
       0.153489          1369.4         1340.17         1340.17 
       0.159709         1289.04         1242.21         1242.21 
       0.165845         1234.68         1165.95         1165.95 
       0.171974         1164.44         1107.08         1107.08 
       0.178125         1114.21         1059.27         1059.27 
       0.184229         1073.14          1016.2          1016.2 
        0.19034         1004.93         972.083         972.083 
       0.196428         980.788         924.621         924.621 
       0.202534         943.548         873.949         873.949 
       0.208729         891.236         822.042         822.042 
       0.214876         840.818         773.357         773.357 
       0.220989         813.248          730.31          730.31 
       0.227147         769.499           693.5           693.5 
        0.23329         740.232         662.887         662.887 
       0.239377         724.198         636.989         636.989 
       0.245482         678.993         613.412         613.412 
       0.251667         671.106         590.157         590.157 
       0.257832         647.135         566.487         566.487 
       0.263955         623.753         542.301         542.301 
       0.270079         601.017         517.989         517.989 
        0.27624         591.101         494.312         494.312 
       0.282372         566.272         472.396         472.396 
        0.28843         550.246         452.857         452.857 
       0.294538         525.376         435.339         435.339 
       0.300721         521.635         419.509         419.509 
        0.30691          497.95         404.977         404.977 
       0.313033         487.293         391.318         391.318 
       0.319153         470.775          377.93          377.93 
       0.325316         457.948         364.534         364.534 
        0.33145         443.941          351.32          351.32 
       0.337538         437.751         338.535         338.535 
       0.343633         423.403         326.305         326.305 
       0.349808         410.072         314.689         314.689 
       0.355968         404.999         303.964         303.964 
       0.362074         395.815         294.124         294.124 
       0.368217         385.299         284.894         284.894 
       0.374374         371.357         276.126         276.126 
       0.380519         366.495           267.7           267.7 
       0.386598         357.612         259.589         259.589 
       0.392688          353.97         251.643         251.643 
        0.39888         344.377         243.785         243.785 
       0.405048         336.859         236.232         236.232 
       0.411186         329.868         229.041         229.041 
       0.417313           323.9         222.232         222.232 
       0.423458         317.607         215.768         215.768 
       0.429607         310.573         209.634         209.634 
       0.435692         302.374         203.854         203.854 
       0.441815         300.208         198.271         198.271 
       0.447964         294.579         192.853         192.853 
       0.454126         283.421          187.59          187.59 
       0.460267         280.294         182.507         182.507 
       0.466387         277.005         177.601         177.601 
        0.47254         270.927         172.841         172.841 
       0.478662         269.294          168.29          168.29 
       0.484765         261.666          163.94          163.94 
       0.490885         258.094         159.756         159.756 
       0.497035         254.313         155.717         155.717 
       0.503198         248.153         151.824         151.824 
       0.509342         245.496         148.079         148.079 
       0.515458         242.378         144.472         144.472 
       0.521598         238.631          140.96          140.96 
       0.527764         234.742         137.543         137.543 
       0.533884         231.578         134.262         134.262 
           0.54         228.235         131.091         131.091 
       0.546137         226.794         128.016         128.016 
       0.552299         222.594         125.032         125.032 
       0.558452         219.463         122.156         122.156 
       0.564573         215.811         119.391         119.391 
       0.570708         212.261         116.709         116.709 
       0.576825          209.55         114.119         114.119 
       0.582926         206.694         111.613         111.613 
       0.589034          203.79         109.177         109.177 
       0.595184         201.683         106.797         106.797 
       0.601379         199.817         104.472         104.472 
       0.607522         195.469         102.236         102.236 
       0.613639         194.698         100.077         100.077 
       0.619772         190.359         97.9778         97.9778 
       0.625918         188.654          95.936          95.936 
       0.632068          186.51         93.9526         93.9526 
       0.638161         185.161          92.044          92.044 
         0.6443         182.379         90.1755         90.1755 
       0.650464         180.483         88.3529         88.3529 
       0.656582          178.73         86.5943         86.5943 
       0.662703         176.202         84.8838         84.8838 
       0.668861         173.872         83.2103         83.2103 
       0.675024         171.835         81.5811         81.5811 
       0.681124         170.855         80.0126         80.0126 
       0.687237         167.905         78.4828         78.4828 
       0.693381          165.73         76.9865         76.9865 
       0.699536          164.54         75.5272         75.5272 
       0.705665         164.529         74.1127         74.1127 
       0.711789         160.731         72.7363         72.7363 
       0.717957         160.102         71.3861         71.3861 
        0.72409         157.932         70.0782         70.0782 
       0.730186         155.453         68.8116         68.8116 
       0.736317         154.817         67.5698         67.5698 
       0.742472          153.64         66.3545         66.3545 
       0.748622         152.334         65.1707         65.1707 
        0.75476         150.883         64.0186         64.0186 
       0.760888         148.815         62.8965         62.8965 
       0.767043         147.822         61.7973         61.7973 
       0.773185         146.311         60.7269         60.7269 
       0.779291          144.39         59.6883         59.6883 
       0.785407         143.583         58.6729         58.6729 
       0.791564         142.077          57.675          57.675 
       0.797719         140.206          56.701          56.701 
       0.803834           139.6         55.7561         55.7561 
       0.809972         137.632         54.8296         54.8296 
       0.816124         137.402         53.9224         53.9224 
       0.822261         135.825         53.0385         53.0385 
       0.828378         134.518         52.1773         52.1773 
       0.834502         134.015         51.3347         51.3347 
       0.840667         132.211         50.5056         50.5056 
       0.846816         131.042         49.6973         49.6973 
       0.852925         129.968          48.912          48.912 
       0.859047         128.466         48.1423         48.1423 
       0.865192         127.876         47.3868         47.3868 
       0.871341          126.63         46.6473         46.6473 
       0.877463         125.399          45.927          45.927 
       0.883569         124.501          45.224          45.224 
       0.889708         123.673         44.5323         44.5323 
       0.895864         122.516         43.8535         43.8535 
       0.902008         121.685         43.1905         43.1905 
       0.908149         120.915         42.5417         42.5417 
       0.914301         119.544         41.9054         41.9054 
       0.920448          118.82         41.2828         41.2828 
       0.926574         118.037         40.6752         40.6752 
       0.932687          117.43         40.0813         40.0813 
       0.938823          115.77         39.4973         39.4973 
       0.944975         115.031         38.9237         38.9237 
       0.951105         114.238         38.3637         38.3637 
       0.957225         112.834         37.8158         37.8158 
       0.963368         112.328         37.2769         37.2769 
       0.969511         111.825         36.7485         36.7485 
       0.975621          111.27         36.2334         36.2334 
       0.981748         110.326          35.727          35.727 
       0.987916         109.184         35.2271         35.2271 
        0.99406         108.642         34.7388         34.7388 
        1.00019          107.63         34.2609         34.2609 
        1.00632         107.109         33.7924         33.7924 
        1.01246         106.162         33.3321         33.3321 
        1.01859         104.826         32.8813         32.8813 
        1.02471         105.133         32.4394         32.4394 
        1.03085         103.989         32.0042         32.0042 
        1.03698         103.124          31.578          31.578 
        1.04314         102.198         31.1579         31.1579 
        1.04929         101.697         30.7464         30.7464 
        1.05541         100.928         30.3441         30.3441 
        1.06154         100.401         29.9481         29.9481 
        1.06769         99.8529         29.5587         29.5587 
        1.07382         99.4308         29.1775         29.1775 
        1.07993         98.7177         28.8039         28.8039 
        1.08607         97.8444         28.4355         28.4355 
        1.09222         97.3364         28.0731         28.0731 
        1.09836         96.5852         27.7176         27.7176 
        1.10449         95.9842         27.3687         27.3687 
        1.11063         95.3518         27.0255         27.0255 
        1.11677         94.8096         26.6883         26.6883 
         1.1229         93.9619         26.3576         26.3576 
        1.12903         93.0022         26.0322         26.0322 
        1.13518         93.2473         25.7121         25.7121 
        1.14131         92.4952         25.3976         25.3976 
        1.14745         91.4515         25.0886         25.0886 
        1.15359         91.1237         24.7848         24.7848 
        1.15973         90.6747         24.4859         24.4859 
        1.16584         89.9719         24.1933         24.1933 
        1.17197         89.4147         23.9052         23.9052 
        1.17811         88.8825         23.6209         23.6209 
        1.18424         88.1492         23.3421         23.3421 
        1.19038         87.6919          23.067          23.067 
        1.19652         87.3305         22.7965         22.7965 
        1.20267         86.5976         22.5305         22.5305 
        1.20881         86.1107         22.2687         22.2687 
        1.21495         85.4537         22.0116         22.0116 
        1.22108         84.9554         21.7586         21.7586 
         1.2272         84.3491         21.5102         21.5102 
        1.23334         83.9656         21.2652         21.2652 
        1.23949          83.469         21.0234         21.0234 
        1.24562         83.1121         20.7861         20.7861 
        1.25174         82.5886         20.5529         20.5529 
        1.25789         82.1206         20.3225         20.3225 
        1.26402         81.6688         20.0962         20.0962 
        1.27014         80.8078         19.8738         19.8738 
        1.27628         80.6862         19.6542         19.6542 
        1.28244         79.9095         19.4375         19.4375 
        1.28858         79.5972         19.2244         19.2244 
        1.29471         79.2699          19.015          19.015 
        1.30084         78.6595         18.8089         18.8089 
        1.30697         78.1462         18.6056         18.6056 
        1.31312         77.7456          18.405          18.405 
        1.31925         77.4957         18.2081         18.2081 
        1.32537         77.0333         18.0142         18.0142 
        1.33151         76.3241         17.8225         17.8225 
        1.33765         75.9749         17.6337         17.6337 
        1.34378         75.4978         17.4481         17.4481 
        1.34992         75.1291          17.265          17.265 
        1.35606         74.7088         17.0842         17.0842 
         1.3622         74.0531         16.9063         16.9063 
        1.36833         73.9122         16.7314         16.7314 
        1.37445         73.4228         16.5591         16.5591 
        1.38059         72.9091         16.3887         16.3887 
        1.38675         72.5513         16.2203         16.2203 
        1.39288         72.0373          16.055          16.055 
        1.39901          71.895         15.8921         15.8921 
        1.40515          71.502          15.731          15.731 
         1.4113         70.9905         15.5723         15.5723 
        1.41742         70.7317         15.4164         15.4164 
        1.42355         70.1679         15.2624         15.2624 
         1.4297         69.8186           15.11           15.11 
        1.43585         69.3642         14.9598         14.9598 
        1.44198         69.0992         14.8122         14.8122 
        1.44809         68.6908         14.6669         14.6669 
        1.45423         68.4142         14.5231         14.5231 
        1.46036         68.0169         14.3814         14.3814 
        1.46649         67.5971         14.2416         14.2416 
        1.47263         67.2175         14.1036         14.1036 
        1.47877         67.0172         13.9675         13.9675 
        1.48491         66.6251         13.8329         13.8329 
        1.49104         66.1534         13.7005         13.7005 
        1.49718         65.7315         13.5697         13.5697 
        1.50333         65.4517         13.4404         13.4404 
        1.50947           65.04          13.313          13.313 
         1.5156         64.7843         13.1875         13.1875 
        1.52172         64.4358         13.0637         13.0637 
        1.52787         64.2192         12.9412         12.9412 
          1.534         63.8567         12.8204         12.8204 
        1.54013         63.4541         12.7013         12.7013 
        1.54627         63.1906         12.5835         12.5835 
        1.55241         62.7431         12.4672         12.4672 
        1.55855         62.3358         12.3526         12.3526 
        1.56467         61.8949         12.2397         12.2397 
         1.5708         61.8593         12.1279         12.1279 
        1.57695         61.5317         12.0173         12.0173 
        1.58308         61.1607         11.9084         11.9084 
        1.58922          61.012         11.8008         11.8008 
        1.59535         60.7018         11.6945         11.6945 
         1.6015         60.1578         11.5895         11.5895 
        1.60764         60.0318         11.4857         11.4857 
        1.61376         59.6447         11.3836         11.3836 
        1.61989         59.1938         11.2826         11.2826 
        1.62604         59.0592         11.1826         11.1826 
        1.63218         58.8535         11.0839         11.0839 
        1.63831          58.474         10.9866         10.9866 
        1.64444         58.2014         10.8905         10.8905 
        1.65059         57.6938         10.7953         10.7953 
        1.65673          57.529         10.7014         10.7014 
        1.66285         57.2463         10.6088         10.6088 
        1.66898         56.9421         10.5173         10.5173 
        1.67512          56.583         10.4267         10.4267 
        1.68127         56.2488         10.3371         10.3371 
         1.6874         56.1033         10.2488         10.2488 
        1.69353         55.7339         10.1616         10.1616 
        1.69967         55.5058         10.0752         10.0752 
        1.70581         55.3635         9.98978         9.98978 
        1.71193          55.024         9.90573         9.90573 
        1.71806         54.5562         9.82247         9.82247 
        1.72421         54.4372         9.74001         9.74001 
        1.73035         54.0776         9.65859         9.65859 
        1.73649         53.7084         9.57814         9.57814 
        1.74262         53.6112         9.49867         9.49867 
        1.74876         53.4175         9.42005         9.42005 
        1.75489         52.9964         9.34249         9.34249 
        1.76101         52.8418         9.26584         9.26584 
        1.76715         52.4663         9.18995         9.18995 
        1.77329         52.2062         9.11482         9.11482 
        1.77943         52.0367          9.0405          9.0405 
        1.78557         51.8236         8.96714         8.96714 
        1.79171         51.4613         8.89457         8.89457 
        1.79785         51.2367          8.8228          8.8228 
        1.80399         50.9586         8.75185         8.75185 
        1.81012         50.8285         8.68177         8.68177 
        1.81625         50.3263          8.6125          8.6125 
        1.82239         50.2015         8.54389         8.54389 
        1.82853         49.8043         8.47606         8.47606 
        1.83466         49.7294         8.40904         8.40904 
        1.84078         49.3098         8.34282         8.34282 
        1.84692          49.112         8.27721         8.27721 
        1.85306         48.8891         8.21223         8.21223 
         1.8592         48.6145         8.14805         8.14805 
        1.86533         48.3904          8.0846          8.0846 
        1.87147         48.1858         8.02175         8.02175 
