# k  (h/Mpc)    Pcb(k)  (Mpc/h)^3    Pcb_linear(k) (Mpc/h)^3    Pcb_NL(k) (Mpc/h)^3   ShotnoiseSubtracted = false
     0.00783031         2584.04         2611.72         2611.72 
       0.013688         3306.82         3303.03         3303.03 
       0.019231         3407.34         3404.98         3404.98 
      0.0249154         3180.35         3207.12         3207.12 
      0.0312784         2834.46         2841.52         2841.52 
      0.0375637         2485.11         2479.47         2479.47 
      0.0433917         2195.26         2205.83         2205.83 
      0.0492413         2000.55         2001.88         2001.88 
      0.0555754          1824.6            1842            1842 
      0.0619321         1720.73         1713.22         1713.22 
       0.067871         1583.95         1595.83         1595.83 
      0.0738098         1456.32         1468.51         1468.51 
      0.0800417         1308.42         1324.99         1324.99 
      0.0862327         1175.49         1183.35         1183.35 
      0.0921407         1060.61         1061.55         1061.55 
      0.0982031         954.389         958.857         958.857 
       0.104506         885.915         878.403         878.403 
       0.110769         826.257         820.753         820.753 
       0.116806         777.656         778.372         778.372 
       0.122832         744.208         740.646         740.646 
       0.129052         696.895         699.883         699.883 
       0.135211          652.71         654.828         654.828 
       0.141259         611.155         607.134         607.134 
       0.147318         567.487         559.438         559.438 
       0.153489         520.409             515             515 
       0.159709         485.697         477.356         477.356 
       0.165845         461.924         448.051         448.051 
       0.171974         434.628         425.429         425.429 
       0.178125         416.581         407.057         407.057 
       0.184229         401.197         390.504         390.504 
        0.19034          377.62         373.553         373.553 
       0.196428         364.881         355.314         355.314 
       0.202534         349.693         335.842         335.842 
       0.208729         328.393         315.895         315.895 
       0.214876         307.831         297.186         297.186 
       0.220989         296.141         280.644         280.644 
       0.227147         278.413         266.499         266.499 
        0.23329         267.124         254.735         254.735 
       0.239377         259.102         244.783         244.783 
       0.245482         245.467         235.723         235.723 
       0.251667         240.294         226.786         226.786 
       0.257832         231.429          217.69          217.69 
       0.263955         221.993         208.396         208.396 
       0.270079         213.284         199.054         199.054 
        0.27624         207.249         189.955         189.955 
       0.282372         198.571         181.533         181.533 
        0.28843         190.401         174.024         174.024 
       0.294538         182.963         167.293         167.293 
       0.300721         179.364         161.209         161.209 
        0.30691         171.612         155.625         155.625 
       0.313033         166.663         150.376         150.376 
       0.319153          159.19         145.231         145.231 
       0.325316          156.27         140.084         140.084 
        0.33145         150.425         135.006         135.006 
       0.337538         146.957         130.093         130.093 
       0.343633         141.802         125.393         125.393 
       0.349808         137.499         120.929         120.929 
       0.355968          133.99         116.808         116.808 
       0.362074         129.932         113.027         113.027 
       0.368217         126.305          109.48          109.48 
       0.374374         122.632          106.11          106.11 
       0.380519         119.671         102.872         102.872 
       0.386598         116.442         99.7552         99.7552 
       0.392688         114.153         96.7018         96.7018 
        0.39888         110.914         93.6821         93.6821 
       0.405048         108.294         90.7796         90.7796 
       0.411186         105.837         88.0163         88.0163 
       0.417313         102.645         85.3996         85.3996 
       0.423458         100.211         82.9157         82.9157 
       0.429607         97.6046         80.5587         80.5587 
       0.435692           94.56         78.3375         78.3375 
       0.441815         93.4426         76.1921         76.1921 
       0.447964         91.8789         74.1097         74.1097 
       0.454126         88.0354         72.0875         72.0875 
       0.460267         86.7041         70.1341         70.1341 
       0.466387         84.6158         68.2488         68.2488 
        0.47254         83.2663         66.4195         66.4195 
       0.478662         81.8902         64.6709         64.6709 
       0.484765         79.6822         62.9993         62.9993 
       0.490885          78.039         61.3912         61.3912 
       0.497035         76.9478         59.8391         59.8391 
       0.503198         74.9394         58.3432         58.3432 
       0.509342         73.1313         56.9042         56.9042 
       0.515458         71.8471         55.5178         55.5178 
       0.521598         70.8063         54.1683         54.1683 
       0.527764         69.4649         52.8554         52.8554 
       0.533884         68.2572         51.5943         51.5943 
           0.54         66.9122         50.3759         50.3759 
       0.546137         66.0021         49.1941         49.1941 
       0.552299         65.0125         48.0476         48.0476 
       0.558452         63.1347         46.9423         46.9423 
       0.564573         62.1064         45.8796         45.8796 
       0.570708         61.3313         44.8492         44.8492 
       0.576825          59.989         43.8538         43.8538 
       0.582926         58.8751         42.8908         42.8908 
       0.589034         57.4495         41.9547         41.9547 
       0.595184         56.7592         41.0401         41.0401 
       0.601379         55.9551         40.1466         40.1466 
       0.607522         54.6947         39.2875         39.2875 
       0.613639         54.4183          38.458          38.458 
       0.619772         53.0326         37.6511         37.6511 
       0.625918         52.7325         36.8665         36.8665 
       0.632068         51.9336         36.1043         36.1043 
       0.638161         50.9962         35.3709         35.3709 
         0.6443         50.0976         34.6528         34.6528 
       0.650464         49.2967         33.9524         33.9524 
       0.656582           48.94         33.2767         33.2767 
       0.662703         47.9712         32.6193         32.6193 
       0.668861         47.2601         31.9762         31.9762 
       0.675024          46.517         31.3502         31.3502 
       0.681124         45.7383         30.7474         30.7474 
       0.687237         44.9714         30.1595         30.1595 
       0.693381         44.6173         29.5845         29.5845 
       0.699536         43.6387         29.0237         29.0237 
       0.705665         43.6658         28.4802         28.4802 
       0.711789         42.5907         27.9513         27.9513 
       0.717957         42.1377         27.4324         27.4324 
        0.72409         41.5426         26.9298         26.9298 
       0.730186         40.9329         26.4431         26.4431 
       0.736317         40.6027         25.9659         25.9659 
       0.742472         39.8927         25.4989         25.4989 
       0.748622         39.5571         25.0439         25.0439 
        0.75476         38.9356         24.6012         24.6012 
       0.760888         38.3935           24.17           24.17 
       0.767043         37.9662         23.7476         23.7476 
       0.773185           37.37         23.3363         23.3363 
       0.779291         37.1785         22.9372         22.9372 
       0.785407         36.7743         22.5469         22.5469 
       0.791564         36.1035         22.1635         22.1635 
       0.797719         35.4255         21.7892         21.7892 
       0.803834         35.3727         21.4261         21.4261 
       0.809972         34.9625           21.07           21.07 
       0.816124         34.1968         20.7214         20.7214 
       0.822261         34.0343         20.3817         20.3817 
       0.828378         33.7122         20.0508         20.0508 
       0.834502         33.3202          19.727          19.727 
       0.840667         32.9535         19.4084         19.4084 
       0.846816          32.428         19.0978         19.0978 
       0.852925         32.1585          18.796          18.796 
       0.859047          31.767         18.5002         18.5002 
       0.865192          31.485         18.2099         18.2099 
       0.871341         31.2897         17.9257         17.9257 
       0.877463         30.6907         17.6489         17.6489 
       0.883569         30.3755         17.3788         17.3788 
       0.889708         30.0455          17.113          17.113 
       0.895864          29.815         16.8521         16.8521 
       0.902008         29.5791         16.5973         16.5973 
       0.908149         29.2608          16.348          16.348 
       0.914301         29.1245         16.1035         16.1035 
       0.920448          28.534         15.8642         15.8642 
       0.926574          28.367         15.6308         15.6308 
       0.932687         28.0519         15.4025         15.4025 
       0.938823         27.7055         15.1781         15.1781 
       0.944975         27.4678         14.9577         14.9577 
       0.951105         27.2524         14.7425         14.7425 
       0.957225         26.9383         14.5319         14.5319 
       0.963368         26.7429         14.3248         14.3248 
       0.969511         26.5238         14.1218         14.1218 
       0.975621         26.3194         13.9239         13.9239 
       0.981748         25.9545         13.7292         13.7292 
       0.987916         25.7928         13.5372         13.5372 
        0.99406         25.5106         13.3495         13.3495 
        1.00019         25.1879         13.1658         13.1658 
        1.00632         25.1063         12.9858         12.9858 
        1.01246         24.8831         12.8089         12.8089 
        1.01859         24.5264         12.6357         12.6357 
        1.02471         24.4645         12.4659         12.4659 
        1.03085         24.2269         12.2986         12.2986 
        1.03698           23.84         12.1349         12.1349 
        1.04314         23.7038         11.9734         11.9734 
        1.04929          23.459         11.8153         11.8153 
        1.05541         23.2242         11.6607         11.6607 
        1.06154         23.0891         11.5085         11.5085 
        1.06769         22.9442         11.3589         11.3589 
        1.07382         22.6979         11.2124         11.2124 
        1.07993         22.5906         11.0688         11.0688 
        1.08607         22.2959         10.9272         10.9272 
        1.09222         22.1669          10.788          10.788 
        1.09836         21.8915         10.6514         10.6514 
        1.10449         21.8031         10.5173         10.5173 
        1.11063         21.5391         10.3854         10.3854 
        1.11677         21.4639         10.2558         10.2558 
         1.1229         21.3451         10.1287         10.1287 
        1.12903         21.0647         10.0037         10.0037 
        1.13518         20.8575          9.8807          9.8807 
        1.14131         20.7825         9.75985         9.75985 
        1.14745         20.6196         9.64112         9.64112 
        1.15359           20.49         9.52435         9.52435 
        1.15973          20.287          9.4095          9.4095 
        1.16584         20.0355         9.29707         9.29707 
        1.17197          20.027         9.18634         9.18634 
        1.17811         19.7976         9.07709         9.07709 
        1.18424         19.6193         8.96995         8.96995 
        1.19038         19.5547         8.86425         8.86425 
        1.19652         19.3942         8.76031         8.76031 
        1.20267         19.2167         8.65805         8.65805 
        1.20881         19.1409         8.55747         8.55747 
        1.21495         18.9913         8.45866         8.45866 
        1.22108         18.8092         8.36144         8.36144 
         1.2272         18.6346         8.26599         8.26599 
        1.23334         18.5182         8.17183         8.17183 
        1.23949         18.3576         8.07892         8.07892 
        1.24562         18.3055         7.98774         7.98774 
        1.25174          18.189         7.89811         7.89811 
        1.25789         18.0523         7.80959         7.80959 
        1.26402         17.9728          7.7226          7.7226 
        1.27014           17.79         7.63716         7.63716 
        1.27628         17.5923         7.55277         7.55277 
        1.28244         17.5356          7.4695          7.4695 
        1.28858         17.4804          7.3876          7.3876 
        1.29471          17.299         7.30713         7.30713 
        1.30084          17.154         7.22794         7.22794 
        1.30697         17.0663         7.14981         7.14981 
        1.31312         16.8943         7.07273         7.07273 
        1.31925         16.7857         6.99704         6.99704 
        1.32537         16.7371         6.92255         6.92255 
        1.33151         16.5865         6.84888         6.84888 
        1.33765         16.4947         6.77633         6.77633 
        1.34378         16.4023           6.705           6.705 
        1.34992         16.2233         6.63464         6.63464 
        1.35606          16.192         6.56516         6.56516 
         1.3622         16.0937          6.4968          6.4968 
        1.36833         15.9458         6.42959         6.42959 
        1.37445         15.8855         6.36337         6.36337 
        1.38059         15.7901         6.29789         6.29789 
        1.38675         15.6289         6.23318         6.23318 
        1.39288         15.5658         6.16965         6.16965 
        1.39901          15.434         6.10704         6.10704 
        1.40515         15.3771         6.04516         6.04516 
         1.4113         15.2676         5.98417         5.98417 
        1.41742         15.1614         5.92427         5.92427 
        1.42355         15.0816         5.86507         5.86507 
         1.4297         14.9929         5.80652         5.80652 
        1.43585         14.9424          5.7488          5.7488 
        1.44198         14.8068         5.69208         5.69208 
        1.44809         14.7323         5.63625         5.63625 
        1.45423         14.6266         5.58097         5.58097 
        1.46036         14.5668         5.52653         5.52653 
        1.46649         14.4914         5.47281         5.47281 
        1.47263         14.3603         5.41976         5.41976 
        1.47877         14.2947         5.36745         5.36745 
        1.48491         14.2129         5.31575         5.31575 
        1.49104         14.1504         5.26485         5.26485 
        1.49718         14.0518         5.21458         5.21458 
        1.50333          13.975         5.16489         5.16489 
        1.50947         13.8992         5.11596         5.11596 
         1.5156          13.798         5.06774         5.06774 
        1.52172         13.7231         5.02014         5.02014 
        1.52787         13.6412         4.97307         4.97307 
          1.534         13.5649         4.92666         4.92666 
        1.54013         13.4739         4.88089         4.88089 
        1.54627         13.3948         4.83563         4.83563 
        1.55241         13.3349         4.79093         4.79093 
        1.55855         13.2722         4.74687         4.74687 
        1.56467         13.1834         4.70349         4.70349 
         1.5708         13.1589         4.66053         4.66053 
        1.57695         13.0306         4.61805         4.61805 
        1.58308         12.9775         4.57619         4.57619 
        1.58922         12.9163         4.53484         4.53484 
        1.59535         12.8559         4.49401         4.49401 
         1.6015         12.7577         4.45363         4.45363 
        1.60764         12.6918         4.41377         4.41377 
        1.61376          12.662         4.37451         4.37451 
        1.61989          12.545          4.3357          4.3357 
        1.62604         12.5211         4.29728         4.29728 
        1.63218         12.4412         4.25935         4.25935 
        1.63831         12.3919         4.22197         4.22197 
        1.64444          12.294         4.18503         4.18503 
        1.65059         12.2277         4.14845         4.14845 
        1.65673          12.197         4.11235         4.11235 
        1.66285         12.0774         4.07678         4.07678 
        1.66898         12.0508         4.04162         4.04162 
        1.67512         12.0003         4.00681         4.00681 
        1.68127         11.9167         3.97238         3.97238 
         1.6874          11.865         3.93844         3.93844 
        1.69353         11.8053         3.90492         3.90492 
        1.69967         11.7325         3.87171         3.87171 
        1.70581         11.6721          3.8389          3.8389 
        1.71193         11.6074          3.8066          3.8066 
        1.71806         11.5854          3.7746          3.7746 
        1.72421         11.4939         3.74291         3.74291 
        1.73035         11.4677         3.71163         3.71163 
        1.73649         11.4077         3.68071         3.68071 
        1.74262         11.3453         3.65017         3.65017 
        1.74876         11.2945         3.61996         3.61996 
        1.75489         11.2459         3.59016         3.59016 
        1.76101         11.1541          3.5607          3.5607 
        1.76715         11.1514         3.53154         3.53154 
        1.77329         11.0675         3.50267         3.50267 
        1.77943         11.0047         3.47411         3.47411 
        1.78557         10.9735         3.44591         3.44591 
        1.79171         10.9318         3.41803         3.41803 
        1.79785         10.8524         3.39045         3.39045 
        1.80399         10.8014         3.36318         3.36318 
        1.81012          10.756         3.33625         3.33625 
        1.81625         10.6928         3.30963         3.30963 
        1.82239         10.6546         3.28327         3.28327 
        1.82853         10.5748          3.2572          3.2572 
        1.83466         10.5428         3.23145         3.23145 
        1.84078         10.4718           3.206           3.206 
        1.84692         10.4607         3.18079         3.18079 
        1.85306         10.3965         3.15582         3.15582 
         1.8592         10.3458         3.13115         3.13115 
        1.86533         10.2995         3.10677         3.10677 
        1.87147         10.2575         3.08262         3.08262 
