# k  (h/Mpc)    P(k)  (Mpc/h)^3    P_linear(k)  (Mpc/h)^3     P_NL(k)  ShotnoiseSubtracted = false
     0.00783031         164.792         166.262         166.262 
       0.013688         209.598         210.412         210.412 
       0.019231         216.746          216.96          216.96 
      0.0249154         203.707         204.379         204.379 
      0.0312784         181.047         181.095         181.095 
      0.0375637         158.289         158.029         158.029 
      0.0433917         140.623         140.593         140.593 
      0.0492413         127.726         127.596         127.596 
      0.0555754         117.271         117.407         117.407 
      0.0619321         109.392           109.2           109.2 
       0.067871         101.586         101.719         101.719 
      0.0738098          93.438          93.604          93.604 
      0.0800417         84.2397         84.4567         84.4567 
      0.0862327         75.3571         75.4287         75.4287 
      0.0921407         67.6713         67.6647         67.6647 
      0.0982031         61.0671         61.1194         61.1194 
       0.104506         56.1043         55.9912         55.9912 
       0.110769         52.3785         52.3166         52.3166 
       0.116806         49.5284         49.6152         49.6152 
       0.122832         47.2081         47.2105         47.2105 
       0.129052         44.5087         44.6123         44.6123 
       0.135211         41.6207         41.7404         41.7404 
       0.141259         38.6723         38.7003         38.7003 
       0.147318         35.7127         35.6601         35.6601 
       0.153489         32.8363         32.8275         32.8275 
       0.159709         30.4416         30.4281         30.4281 
       0.165845         28.6749         28.5601         28.5601 
       0.171974         27.1106         27.1181         27.1181 
       0.178125         25.9504          25.947          25.947 
       0.184229          24.927         24.8919         24.8919 
        0.19034         23.7491         23.8113         23.8113 
       0.196428         22.6452         22.6487         22.6487 
       0.202534         21.4904         21.4075         21.4075 
       0.208729         20.1696         20.1361         20.1361 
       0.214876         18.9304         18.9436         18.9436 
       0.220989         17.9756         17.8891         17.8891 
       0.227147         16.9822         16.9875         16.9875 
        0.23329         16.2342         16.2376         16.2376 
       0.239377         15.6097         15.6032         15.6032 
       0.245482         15.0057         15.0257         15.0257 
       0.251667         14.4868          14.456          14.456 
       0.257832         13.8857         13.8763         13.8763 
       0.263955         13.3048         13.2838         13.2838 
       0.270079           12.72         12.6883         12.6883 
        0.27624         12.1809         12.1083         12.1083 
       0.282372         11.6414         11.5715         11.5715 
        0.28843         11.1305         11.0929         11.0929 
       0.294538         10.7034         10.6638         10.6638 
       0.300721         10.3468          10.276          10.276 
        0.30691         9.95569         9.92006         9.92006 
       0.313033         9.62479         9.58547         9.58547 
       0.319153         9.24262         9.25751         9.25751 
       0.325316         8.99258         8.92939         8.92939 
        0.33145         8.65681         8.60571         8.60571 
       0.337538         8.34169         8.29253         8.29253 
       0.343633         8.02914         7.99296         7.99296 
       0.349808         7.75921         7.70843         7.70843 
       0.355968         7.50121         7.44571         7.44571 
       0.362074         7.25175         7.20467         7.20467 
       0.368217         7.02718         6.97859         6.97859 
       0.374374         6.78969          6.7638          6.7638 
       0.380519         6.60486         6.55741         6.55741 
       0.386598          6.4126         6.35874         6.35874 
       0.392688         6.22981         6.16409         6.16409 
        0.39888         6.02711         5.97161         5.97161 
       0.405048         5.84674         5.78659         5.78659 
       0.411186         5.67565         5.61045         5.61045 
       0.417313         5.49437         5.44365         5.44365 
       0.423458         5.34776         5.28532         5.28532 
       0.429607         5.18412         5.13508         5.13508 
       0.435692         5.04208         4.99349         4.99349 
       0.441815         4.90801         4.85674         4.85674 
       0.447964         4.79298           4.724           4.724 
       0.454126         4.64335          4.5951          4.5951 
       0.460267         4.51805         4.47058         4.47058 
       0.466387         4.39103          4.3504          4.3504 
        0.47254         4.28133          4.2338          4.2338 
       0.478662         4.17568         4.12233         4.12233 
       0.484765         4.06106         4.01579         4.01579 
       0.490885         3.96074         3.91328         3.91328 
       0.497035         3.88043         3.81434         3.81434 
       0.503198         3.77494         3.71899         3.71899 
       0.509342         3.68889         3.62726         3.62726 
       0.515458         3.59116         3.53889         3.53889 
       0.521598         3.50764         3.45287         3.45287 
       0.527764         3.41572         3.36918         3.36918 
       0.533884         3.34885         3.28879         3.28879 
           0.54         3.26708         3.21113         3.21113 
       0.546137          3.1958          3.1358          3.1358 
       0.552299         3.12069         3.06272         3.06272 
       0.558452         3.04054         2.99226         2.99226 
       0.564573         2.97996         2.92452         2.92452 
       0.570708         2.91443         2.85884         2.85884 
       0.576825         2.84547         2.79539         2.79539 
       0.582926         2.79159           2.734           2.734 
       0.589034         2.71504         2.67433         2.67433 
       0.595184         2.66159         2.61603         2.61603 
       0.601379         2.60468         2.55908         2.55908 
       0.607522         2.55699         2.50432         2.50432 
       0.613639         2.51129         2.45144         2.45144 
       0.619772         2.44747         2.40001         2.40001 
       0.625918         2.40172         2.34999         2.34999 
       0.632068         2.35856         2.30141         2.30141 
       0.638161         2.30532         2.25466         2.25466 
         0.6443         2.25887         2.20889         2.20889 
       0.650464         2.20819         2.16424         2.16424 
       0.656582         2.17172         2.12117         2.12117 
       0.662703         2.13003         2.07927         2.07927 
       0.668861          2.0946         2.03827         2.03827 
       0.675024         2.04853         1.99837         1.99837 
       0.681124         2.00514         1.95994         1.95994 
       0.687237         1.97384         1.92247         1.92247 
       0.693381         1.93795         1.88582         1.88582 
       0.699536         1.89091         1.85007         1.85007 
       0.705665         1.85868         1.81542         1.81542 
       0.711789         1.82907         1.78171         1.78171 
       0.717957         1.79179         1.74863         1.74863 
        0.72409         1.76126          1.7166          1.7166 
       0.730186         1.72875         1.68557         1.68557 
       0.736317         1.70584         1.65515         1.65515 
       0.742472         1.67402         1.62538         1.62538 
       0.748622          1.6422         1.59638         1.59638 
        0.75476         1.60886         1.56816         1.56816 
       0.760888         1.58134         1.54068         1.54068 
       0.767043         1.56323         1.51375         1.51375 
       0.773185         1.53052         1.48753         1.48753 
       0.779291         1.50616         1.46209         1.46209 
       0.785407         1.48136         1.43722         1.43722 
       0.791564         1.45744         1.41277         1.41277 
       0.797719         1.43565         1.38892         1.38892 
       0.803834         1.41274         1.36577         1.36577 
       0.809972         1.38846         1.34308         1.34308 
       0.816124         1.36379         1.32085         1.32085 
       0.822261         1.33967          1.2992          1.2992 
       0.828378          1.3219         1.27811         1.27811 
       0.834502         1.30355         1.25747         1.25747 
       0.840667         1.27743         1.23716         1.23716 
       0.846816         1.25811         1.21736         1.21736 
       0.852925         1.24336         1.19812         1.19812 
       0.859047         1.22363         1.17927         1.17927 
       0.865192         1.20273         1.16076         1.16076 
       0.871341         1.18418         1.14265         1.14265 
       0.877463         1.17064           1.125           1.125 
       0.883569         1.14945         1.10778         1.10778 
       0.889708         1.13212         1.09084         1.09084 
       0.895864         1.11532         1.07421         1.07421 
       0.902008         1.09747         1.05797         1.05797 
       0.908149         1.08158         1.04208         1.04208 
       0.914301         1.06155         1.02649         1.02649 
       0.920448         1.04829         1.01124         1.01124 
       0.926574         1.03264        0.996358        0.996358 
       0.932687         1.01776         0.98181         0.98181 
       0.938823         1.00736        0.967503        0.967503 
       0.944975        0.991836        0.953453        0.953453 
       0.951105        0.978571        0.939735        0.939735 
       0.957225          0.9674        0.926315        0.926315 
       0.963368        0.952529        0.913114        0.913114 
       0.969511        0.937241        0.900172        0.900172 
       0.975621        0.923087        0.887555        0.887555 
       0.981748        0.914443        0.875149        0.875149 
       0.987916        0.900674        0.862905        0.862905 
        0.99406        0.887238        0.850944        0.850944 
        1.00019        0.877834        0.839236        0.839236 
        1.00632        0.862721        0.827761        0.827761 
        1.01246        0.851484        0.816486        0.816486 
        1.01859        0.841969        0.805442        0.805442 
        1.02471         0.82985        0.794618        0.794618 
        1.03085        0.821737        0.783958        0.783958 
        1.03698        0.808835        0.773518        0.773518 
        1.04314        0.799164        0.763226        0.763226 
        1.04929        0.787691        0.753148        0.753148 
        1.05541        0.779383        0.743293        0.743293 
        1.06154        0.767839        0.733593        0.733593 
        1.06769         0.75739        0.724053        0.724053 
        1.07382        0.748968        0.714716        0.714716 
        1.07993        0.737797        0.705566        0.705566 
        1.08607        0.732044         0.69654         0.69654 
        1.09222        0.720817        0.687664        0.687664 
        1.09836        0.714683        0.678955        0.678955 
        1.10449        0.705512        0.670408        0.670408 
        1.11063        0.694464        0.662001        0.662001 
        1.11677        0.685286        0.653742        0.653742 
         1.1229        0.678305        0.645641        0.645641 
        1.12903        0.669177         0.63767         0.63767 
        1.13518        0.662792         0.62983         0.62983 
        1.14131        0.653582        0.622126        0.622126 
        1.14745        0.642834        0.614558        0.614558 
        1.15359        0.637906        0.607115        0.607115 
        1.15973        0.628238        0.599794        0.599794 
        1.16584        0.624422        0.592627        0.592627 
        1.17197        0.615911        0.585569        0.585569 
        1.17811        0.609631        0.578605        0.578605 
        1.18424        0.604154        0.571775        0.571775 
        1.19038        0.595112        0.565038        0.565038 
        1.19652         0.58691        0.558412        0.558412 
        1.20267        0.582771        0.551894        0.551894 
        1.20881        0.574745        0.545482        0.545482 
        1.21495        0.570005        0.539184        0.539184 
        1.22108        0.562955        0.532987        0.532987 
         1.2272        0.557518        0.526902        0.526902 
        1.23334        0.550315          0.5209          0.5209 
        1.23949        0.544356        0.514978        0.514978 
        1.24562        0.538573        0.509166        0.509166 
        1.25174        0.533045        0.503452        0.503452 
        1.25789        0.527884         0.49781         0.49781 
        1.26402        0.520137        0.492265        0.492265 
        1.27014        0.515071        0.486819        0.486819 
        1.27628        0.510921        0.481439        0.481439 
        1.28244        0.503174        0.476131        0.476131 
        1.28858        0.498837        0.470911        0.470911 
        1.29471        0.494927        0.465781        0.465781 
        1.30084        0.488297        0.460734        0.460734 
        1.30697        0.483273        0.455753        0.455753 
        1.31312        0.476462         0.45084         0.45084 
        1.31925        0.472634        0.446016        0.446016 
        1.32537        0.468485        0.441267        0.441267 
        1.33151        0.464302        0.436571        0.436571 
        1.33765        0.459187        0.431947        0.431947 
        1.34378         0.45321        0.427399        0.427399 
        1.34992        0.449514        0.422915        0.422915 
        1.35606        0.444669        0.418486        0.418486 
         1.3622        0.440312        0.414128        0.414128 
        1.36833        0.435588        0.409844        0.409844 
        1.37445        0.430025        0.405623        0.405623 
        1.38059        0.426076        0.401449        0.401449 
        1.38675        0.424394        0.397324        0.397324 
        1.39288         0.41878        0.393274        0.393274 
        1.39901        0.414798        0.389283        0.389283 
        1.40515        0.411143        0.385339        0.385339 
         1.4113        0.405966        0.381452        0.381452 
        1.41742        0.402188        0.377633        0.377633 
        1.42355        0.399697         0.37386         0.37386 
         1.4297        0.394491        0.370128        0.370128 
        1.43585         0.39117        0.366448        0.366448 
        1.44198        0.388554        0.362833        0.362833 
        1.44809        0.383594        0.359274        0.359274 
        1.45423        0.380336         0.35575         0.35575 
        1.46036        0.376461         0.35228         0.35228 
        1.46649        0.373659        0.348856        0.348856 
        1.47263        0.369575        0.345474        0.345474 
        1.47877          0.3654         0.34214         0.34214 
        1.48491        0.362631        0.338844        0.338844 
        1.49104        0.358242          0.3356          0.3356 
        1.49718        0.355438        0.332395        0.332395 
        1.50333        0.352826        0.329228        0.329228 
        1.50947        0.349221        0.326109        0.326109 
         1.5156        0.345735        0.323035        0.323035 
        1.52172        0.342838        0.320001        0.320001 
        1.52787        0.339553        0.317001        0.317001 
          1.534         0.33636        0.314042        0.314042 
        1.54013        0.332879        0.311125        0.311125 
        1.54627        0.330682         0.30824         0.30824 
        1.55241        0.327075        0.305391        0.305391 
        1.55855        0.323722        0.302582        0.302582 
        1.56467        0.322523        0.299817        0.299817 
         1.5708        0.318819        0.297078        0.297078 
        1.57695        0.316132         0.29437         0.29437 
        1.58308        0.313025        0.291702        0.291702 
        1.58922        0.310594        0.289066        0.289066 
        1.59535        0.307634        0.286464        0.286464 
         1.6015        0.304819         0.28389         0.28389 
        1.60764        0.302499        0.281349        0.281349 
        1.61376        0.299042        0.278846        0.278846 
        1.61989        0.297124        0.276373        0.276373 
        1.62604         0.29478        0.273924        0.273924 
        1.63218         0.29232        0.271506        0.271506 
        1.63831        0.289871        0.269123        0.269123 
        1.64444         0.28721        0.266768        0.266768 
        1.65059        0.284825        0.264437        0.264437 
        1.65673         0.28247        0.262135        0.262135 
        1.66285        0.280408        0.259868        0.259868 
        1.66898        0.278012        0.257627        0.257627 
        1.67512        0.275083        0.255408        0.255408 
        1.68127        0.272639        0.253213        0.253213 
         1.6874        0.271201         0.25105         0.25105 
        1.69353        0.268252        0.248913        0.248913 
        1.69967        0.266816        0.246796        0.246796 
        1.70581        0.263759        0.244705        0.244705 
        1.71193         0.26193        0.242646        0.242646 
        1.71806        0.259404        0.240606        0.240606 
        1.72421         0.25802        0.238586        0.238586 
        1.73035        0.255447        0.236592        0.236592 
        1.73649        0.253877        0.234621        0.234621 
        1.74262        0.251585        0.232675        0.232675 
        1.74876         0.24946        0.230749        0.230749 
        1.75489        0.247788        0.228849        0.228849 
        1.76101        0.245209        0.226971        0.226971 
        1.76715        0.243449        0.225112        0.225112 
        1.77329        0.241254        0.223272        0.223272 
        1.77943        0.239435        0.221452        0.221452 
        1.78557         0.23805        0.219654        0.219654 
        1.79171        0.236062        0.217877        0.217877 
        1.79785         0.23415        0.216119        0.216119 
        1.80399        0.232246        0.214381        0.214381 
        1.81012         0.23065        0.212664        0.212664 
        1.81625        0.228666        0.210968        0.210968 
        1.82239        0.227066        0.209287        0.209287 
        1.82853        0.224864        0.207625        0.207625 
        1.83466        0.223492        0.205984        0.205984 
        1.84078        0.221617        0.204362        0.204362 
        1.84692        0.219849        0.202754        0.202754 
        1.85306         0.21863        0.201163        0.201163 
         1.8592        0.216506        0.199591        0.199591 
        1.86533        0.215259        0.198036        0.198036 
        1.87147        0.213466        0.196497        0.196497 
        1.87761        0.212203        0.194973        0.194973 
