# k  (h/Mpc)    Pcb(k)  (Mpc/h)^3    Pcb_linear(k) (Mpc/h)^3    Pcb_NL(k) (Mpc/h)^3   ShotnoiseSubtracted = false
     0.00783031         12915.3         13101.4         13101.4 
       0.013688         16719.1         16586.3         16586.3 
       0.019231         17115.3         17100.7         17100.7 
      0.0249154         15773.1         16107.4         16107.4 
      0.0312784         14097.8         14271.2         14271.2 
      0.0375637         12416.8         12452.7         12452.7 
      0.0433917         10847.6         11078.3         11078.3 
      0.0492413         9938.65         10053.9         10053.9 
      0.0555754         8932.23         9250.89         9250.89 
      0.0619321         8562.48         8604.08         8604.08 
       0.067871         7754.06         8014.52         8014.52 
      0.0738098         7135.44         7375.05         7375.05 
      0.0800417          6368.9         6654.27         6654.27 
      0.0862327         5769.78         5942.91         5942.91 
      0.0921407         5273.18         5331.17         5331.17 
      0.0982031         4743.46         4815.45         4815.45 
       0.104506         4476.31          4411.4          4411.4 
       0.110769         4168.77         4121.87         4121.87 
       0.116806         3931.25         3909.02         3909.02 
       0.122832         3750.98         3719.55         3719.55 
       0.129052         3475.94         3514.84         3514.84 
       0.135211         3276.98         3288.57         3288.57 
       0.141259         3115.03         3049.04         3049.04 
       0.147318         2922.71         2809.51         2809.51 
       0.153489         2679.58         2586.34         2586.34 
       0.159709         2540.22         2397.29         2397.29 
       0.165845         2453.85         2250.12         2250.12 
       0.171974         2323.85         2136.51         2136.51 
       0.178125            2218         2044.25         2044.25 
       0.184229         2129.47         1961.12         1961.12 
        0.19034         2006.86         1875.98         1875.98 
       0.196428         1964.86         1784.39         1784.39 
       0.202534         1888.12          1686.6          1686.6 
       0.208729         1798.48         1586.42         1586.42 
       0.214876          1719.4         1492.47         1492.47 
       0.220989         1663.93          1409.4          1409.4 
       0.227147         1591.51         1338.36         1338.36 
        0.23329         1532.94         1279.28         1279.28 
       0.239377         1510.65          1229.3          1229.3 
       0.245482         1417.45          1183.8          1183.8 
       0.251667         1408.97         1138.92         1138.92 
       0.257832         1354.34         1093.24         1093.24 
       0.263955         1309.59         1046.56         1046.56 
       0.270079         1265.48         999.645         999.645 
        0.27624         1251.33         953.952         953.952 
       0.282372         1198.41         911.657         911.657 
        0.28843         1188.85         873.949         873.949 
       0.294538         1130.85         840.142         840.142 
       0.300721         1126.46         809.591         809.591 
        0.30691          1080.1         781.548         781.548 
       0.313033         1059.79         755.187         755.187 
       0.319153         1040.74          729.35          729.35 
       0.325316         1006.93         703.499         703.499 
        0.33145         983.726         677.997         677.997 
       0.337538         968.408         653.324         653.324 
       0.343633         944.664         629.722         629.722 
       0.349808         913.402         607.305         607.305 
       0.355968          907.95         586.607         586.607 
       0.362074         897.524         567.618         567.618 
       0.368217         870.869         549.805         549.805 
       0.374374          836.38         532.883         532.883 
       0.380519          836.95         516.622         516.622 
       0.386598         815.128         500.969         500.969 
       0.392688         812.232         485.635         485.635 
        0.39888         788.836          470.47          470.47 
       0.405048         777.277         455.894         455.894 
       0.411186         766.271         442.016         442.016 
       0.417313          750.88         428.875         428.875 
       0.423458         738.184         416.401         416.401 
       0.429607         727.379         404.564         404.564 
       0.435692         711.639         393.409         393.409 
       0.441815         706.806         382.635         382.635 
       0.447964         691.566         372.178         372.178 
       0.454126         682.265         362.022         362.022 
       0.460267         668.012         352.212         352.212 
       0.466387         660.849         342.744         342.744 
        0.47254         651.823         333.557         333.557 
       0.478662         648.491         324.776         324.776 
       0.484765         629.244         316.381         316.381 
       0.490885         624.776         308.306         308.306 
       0.497035         612.282         300.511         300.511 
       0.503198         607.044         292.998         292.998 
       0.509342         601.173         285.771         285.771 
       0.515458         597.133         278.809         278.809 
       0.521598         582.931         272.032         272.032 
       0.527764         571.402         265.439         265.439 
       0.533884         570.406         259.106         259.106 
           0.54         563.373         252.987         252.987 
       0.546137         560.055         247.052         247.052 
       0.552299         550.608         241.294         241.294 
       0.558452         547.793         235.743         235.743 
       0.564573         539.755         230.406         230.406 
       0.570708         533.194         225.231         225.231 
       0.576825         519.273         220.233         220.233 
       0.582926         520.472         215.397         215.397 
       0.589034          515.56         210.696         210.696 
       0.595184         510.567         206.102         206.102 
       0.601379         503.673         201.615         201.615 
       0.607522         496.934         197.301         197.301 
       0.613639         496.255         193.135         193.135 
       0.619772         483.933         189.083         189.083 
       0.625918         482.693         185.143         185.143 
       0.632068           475.6         181.315         181.315 
       0.638161         473.914         177.632         177.632 
         0.6443         465.131         174.026         174.026 
       0.650464         462.658         170.508         170.508 
       0.656582         460.356         167.115         167.115 
       0.662703          457.88         163.813         163.813 
       0.668861         449.625         160.584         160.584 
       0.675024         445.932          157.44          157.44 
       0.681124         443.001         154.413         154.413 
       0.687237         438.786          151.46          151.46 
       0.693381         433.178         148.573         148.573 
       0.699536           427.5         145.757         145.757 
       0.705665         425.618         143.027         143.027 
       0.711789         422.826         140.371         140.371 
       0.717957         418.896         137.765         137.765 
        0.72409         416.142         135.241         135.241 
       0.730186         410.675         132.796         132.796 
       0.736317         407.442           130.4           130.4 
       0.742472         405.758         128.055         128.055 
       0.748622          400.95          125.77          125.77 
        0.75476         396.071         123.547         123.547 
       0.760888             392         121.381         121.381 
       0.767043         392.765          119.26          119.26 
       0.773185         387.614         117.194         117.194 
       0.779291         382.634          115.19          115.19 
       0.785407         380.854          113.23          113.23 
       0.791564         376.171         111.304         111.304 
       0.797719         373.897         109.425         109.425 
       0.803834         370.599         107.601         107.601 
       0.809972         369.232         105.813         105.813 
       0.816124         368.504         104.062         104.062 
       0.822261         362.879         102.357         102.357 
       0.828378         360.705         100.695         100.695 
       0.834502         357.865         99.0686         99.0686 
       0.840667         354.062         97.4685         97.4685 
       0.846816         352.402         95.9086         95.9086 
       0.852925         349.601         94.3932         94.3932 
       0.859047          348.08         92.9077         92.9077 
       0.865192         344.047         91.4497         91.4497 
       0.871341         341.435         90.0224         90.0224 
       0.877463         339.838         88.6325         88.6325 
       0.883569         337.536         87.2758         87.2758 
       0.889708         334.475          85.941          85.941 
       0.895864         331.455          84.631          84.631 
       0.902008         329.775         83.3514         83.3514 
       0.908149         327.243         82.0993         82.0993 
       0.914301         323.711         80.8713         80.8713 
       0.920448         321.615         79.6698         79.6698 
       0.926574         317.911         78.4972         78.4972 
       0.932687         318.432         77.3511         77.3511 
       0.938823         314.455          76.224          76.224 
       0.944975         313.986          75.117          75.117 
       0.951105         310.763         74.0363         74.0363 
       0.957225         308.568          72.979          72.979 
       0.963368         304.832         71.9389         71.9389 
       0.969511         303.575         70.9194         70.9194 
       0.975621         301.085         69.9253         69.9253 
       0.981748         300.684         68.9479         68.9479 
       0.987916         298.189         67.9833         67.9833 
        0.99406         293.609         67.0409         67.0409 
        1.00019         293.299         66.1185         66.1185 
        1.00632         291.469         65.2145         65.2145 
        1.01246         288.952         64.3262         64.3262 
        1.01859         289.271         63.4561         63.4561 
        1.02471          284.96         62.6033         62.6033 
        1.03085         282.701         61.7635         61.7635 
        1.03698         281.985          60.941          60.941 
        1.04314         278.982         60.1301         60.1301 
        1.04929         277.048         59.3361         59.3361 
        1.05541         277.133         58.5598         58.5598 
        1.06154         272.812         57.7956         57.7956 
        1.06769         272.051         57.0439         57.0439 
        1.07382         270.303         56.3083         56.3083 
        1.07993         268.156         55.5874         55.5874 
        1.08607         267.412         54.8763         54.8763 
        1.09222         265.168          54.177          54.177 
        1.09836         263.148         53.4909         53.4909 
        1.10449         260.343         52.8176         52.8176 
        1.11063         258.204         52.1552         52.1552 
        1.11677         257.754         51.5046         51.5046 
         1.1229         255.985         50.8663         50.8663 
        1.12903         254.172         50.2383         50.2383 
        1.13518         252.406         49.6206         49.6206 
        1.14131         250.526         49.0137         49.0137 
        1.14745         249.955         48.4174         48.4174 
        1.15359         247.745          47.831          47.831 
        1.15973         246.174         47.2542         47.2542 
        1.16584         244.085         46.6896         46.6896 
        1.17197         243.849         46.1335         46.1335 
        1.17811         241.085         45.5849         45.5849 
        1.18424          239.57         45.0468         45.0468 
        1.19038         238.677          44.516          44.516 
        1.19652         236.754          43.994          43.994 
        1.20267         236.187         43.4805         43.4805 
        1.20881         233.925         42.9754         42.9754 
        1.21495         232.435         42.4791         42.4791 
        1.22108         231.073         41.9909         41.9909 
         1.2272         229.336         41.5116         41.5116 
        1.23334         228.082         41.0387         41.0387 
        1.23949         226.809         40.5721         40.5721 
        1.24562         225.545         40.1142         40.1142 
        1.25174         223.381         39.6641         39.6641 
        1.25789         221.714         39.2195         39.2195 
        1.26402         220.364         38.7827         38.7827 
        1.27014         218.935         38.3536         38.3536 
        1.27628         217.753         37.9298         37.9298 
        1.28244         217.348         37.5116         37.5116 
        1.28858         214.946         37.1003         37.1003 
        1.29471         213.241         36.6962         36.6962 
        1.30084         212.367         36.2985         36.2985 
        1.30697         210.816         35.9061         35.9061 
        1.31312         209.045          35.519          35.519 
        1.31925         208.699         35.1389         35.1389 
        1.32537         207.378         34.7648         34.7648 
        1.33151         205.282         34.3949         34.3949 
        1.33765         204.058         34.0306         34.0306 
        1.34378         203.203         33.6723         33.6723 
        1.34992         202.104          33.319          33.319 
        1.35606         201.869           32.97           32.97 
         1.3622         199.852         32.6267         32.6267 
        1.36833         197.803         32.2892         32.2892 
        1.37445         196.886         31.9566         31.9566 
        1.38059         195.377         31.6278         31.6278 
        1.38675         194.625         31.3028         31.3028 
        1.39288         193.184         30.9838         30.9838 
        1.39901         192.957         30.6694         30.6694 
        1.40515         190.839         30.3586         30.3586 
         1.4113         189.606         30.0523         30.0523 
        1.41742         188.462         29.7515         29.7515 
        1.42355         187.244         29.4542         29.4542 
         1.4297         185.981         29.1602         29.1602 
        1.43585         184.874         28.8703         28.8703 
        1.44198         183.802         28.5855         28.5855 
        1.44809         183.093         28.3051         28.3051 
        1.45423         181.655         28.0274         28.0274 
        1.46036         180.723         27.7541         27.7541 
        1.46649         179.156         27.4843         27.4843 
        1.47263         177.993         27.2179         27.2179 
        1.47877         177.222         26.9552         26.9552 
        1.48491         175.508         26.6955         26.6955 
        1.49104         175.216         26.4399         26.4399 
        1.49718         173.217         26.1875         26.1875 
        1.50333          172.64         25.9379         25.9379 
        1.50947         171.817         25.6922         25.6922 
         1.5156         170.234           25.45           25.45 
        1.52172         169.373          25.211          25.211 
        1.52787         167.995         24.9746         24.9746 
          1.534         167.557         24.7415         24.7415 
        1.54013         166.202         24.5117         24.5117 
        1.54627         165.319         24.2844         24.2844 
        1.55241         164.119         24.0599         24.0599 
        1.55855         163.162         23.8386         23.8386 
        1.56467         162.014         23.6208         23.6208 
         1.5708         161.383          23.405          23.405 
        1.57695         160.177         23.1917         23.1917 
        1.58308         159.464         22.9815         22.9815 
        1.58922         158.302         22.7738         22.7738 
        1.59535         156.971         22.5688         22.5688 
         1.6015         156.613          22.366          22.366 
        1.60764         155.382         22.1658         22.1658 
        1.61376         154.287         21.9687         21.9687 
        1.61989         153.389         21.7738         21.7738 
        1.62604         152.456         21.5808         21.5808 
        1.63218         151.667         21.3903         21.3903 
        1.63831          150.52         21.2026         21.2026 
        1.64444         149.967         21.0171         21.0171 
        1.65059         148.891         20.8334         20.8334 
        1.65673         147.644         20.6521         20.6521 
        1.66285         147.297         20.4734         20.4734 
        1.66898         146.106         20.2969         20.2969 
        1.67512         145.748         20.1221         20.1221 
        1.68127         144.138         19.9492         19.9492 
         1.6874         143.104         19.7787         19.7787 
        1.69353         142.814         19.6104         19.6104 
        1.69967         141.597         19.4436         19.4436 
        1.70581         140.906         19.2788         19.2788 
        1.71193         139.769         19.1166         19.1166 
        1.71806         139.358         18.9559         18.9559 
        1.72421         138.323         18.7968         18.7968 
        1.73035         137.938         18.6397         18.6397 
        1.73649         136.993         18.4844         18.4844 
        1.74262         135.796          18.331          18.331 
        1.74876         135.276         18.1793         18.1793 
        1.75489         134.136         18.0297         18.0297 
        1.76101          133.34         17.8817         17.8817 
        1.76715         132.766         17.7353         17.7353 
        1.77329         132.357         17.5903         17.5903 
        1.77943          131.05         17.4469         17.4469 
        1.78557         130.416         17.3053         17.3053 
        1.79171         129.675         17.1652         17.1652 
        1.79785         128.686         17.0267         17.0267 
        1.80399         128.001         16.8898         16.8898 
        1.81012         127.243         16.7546         16.7546 
        1.81625         126.524         16.6209         16.6209 
        1.82239         125.901         16.4885         16.4885 
        1.82853          125.25         16.3576         16.3576 
        1.83466         124.265         16.2282         16.2282 
        1.84078         123.814         16.1004         16.1004 
        1.84692         122.619         15.9738         15.9738 
        1.85306         122.356         15.8484         15.8484 
         1.8592         121.348         15.7245         15.7245 
        1.86533         120.418         15.6021         15.6021 
        1.87147         119.755         15.4808         15.4808 
