# k  (h/Mpc)    P(k)  (Mpc/h)^3    P_linear(k)  (Mpc/h)^3     P_NL(k)  ShotnoiseSubtracted = false
     0.00783031         14965.5           15194           15194 
       0.013688         19467.8         19297.2         19297.2 
       0.019231         19922.9         19910.7         19910.7 
      0.0249154         18328.4           18760           18760 
      0.0312784         16388.6         16624.1         16624.1 
      0.0375637         14445.8           14507           14507 
      0.0433917           12598         12906.6         12906.6 
      0.0492413         11552.1         11713.5         11713.5 
      0.0555754         10356.6         10778.2         10778.2 
      0.0619321         9949.62         10024.7         10024.7 
       0.067871         8987.92         9337.92         9337.92 
      0.0738098         8273.51         8592.94         8592.94 
      0.0800417         7377.57         7753.19         7753.19 
      0.0862327         6692.84         6924.39         6924.39 
      0.0921407         6130.38         6211.65         6211.65 
      0.0982031          5517.9         5610.77         5610.77 
       0.104506         5217.62            5140            5140 
       0.110769         4859.29         4802.66         4802.66 
       0.116806         4587.71         4554.67         4554.67 
       0.122832         4372.73         4333.92         4333.92 
       0.129052         4047.87          4095.4          4095.4 
       0.135211         3818.39         3831.75         3831.75 
       0.141259         3638.69         3552.67         3552.67 
       0.147318         3421.02         3273.58         3273.58 
       0.153489         3137.93         3013.55         3013.55 
       0.159709         2979.12         2793.28         2793.28 
       0.165845         2886.44          2621.8          2621.8 
       0.171974         2736.01         2489.42         2489.42 
       0.178125         2610.75         2381.92         2381.92 
       0.184229         2501.92         2285.05         2285.05 
        0.19034         2368.54         2185.86         2185.86 
       0.196428         2317.83         2079.14         2079.14 
       0.202534         2224.62         1965.19         1965.19 
       0.208729         2125.22         1848.48         1848.48 
       0.214876         2040.87            1739            1739 
       0.220989         1974.41          1642.2          1642.2 
       0.227147         1894.62         1559.43         1559.43 
        0.23329         1825.67         1490.59         1490.59 
       0.239377         1802.58         1432.36         1432.36 
       0.245482         1694.48         1379.34         1379.34 
       0.251667         1685.68         1327.05         1327.05 
       0.257832         1619.89         1273.83         1273.83 
       0.263955         1566.63         1219.44         1219.44 
       0.270079         1515.68         1164.77         1164.77 
        0.27624         1498.27         1111.53         1111.53 
       0.282372         1436.21         1062.25         1062.25 
        0.28843         1432.28         1018.32         1018.32 
       0.294538         1363.92         978.921         978.921 
       0.300721         1356.71         943.325         943.325 
        0.30691         1305.18          910.65          910.65 
       0.313033         1279.78         879.935         879.935 
       0.319153         1262.65         849.828         849.828 
       0.325316         1220.56         819.708         819.708 
        0.33145         1194.79         789.994         789.994 
       0.337538         1174.06         761.245         761.245 
       0.343633         1149.85         733.744         733.744 
       0.349808         1112.99         707.624         707.624 
       0.355968         1105.27         683.508         683.508 
       0.362074         1095.38          661.38          661.38 
       0.368217         1061.35         640.626         640.626 
       0.374374         1022.89         620.909         620.909 
       0.380519         1025.89         601.962         601.962 
       0.386598         997.674         583.724         583.724 
       0.392688          993.41         565.856         565.856 
        0.39888         966.095         548.186         548.186 
       0.405048         954.739         531.202         531.202 
       0.411186         941.687         515.032         515.032 
       0.417313         922.393          499.72          499.72 
       0.423458         906.688         485.186         485.186 
       0.429607         895.389         471.394         471.394 
       0.435692         877.639         458.396         458.396 
       0.441815         871.304         445.842         445.842 
       0.447964         852.692         433.657         433.657 
       0.454126         846.019         421.824         421.824 
       0.460267         825.978         410.394         410.394 
       0.466387         816.042         399.361         399.361 
        0.47254         810.661         388.657         388.657 
       0.478662         802.748         378.425         378.425 
       0.484765         781.056         368.644         368.644 
       0.490885         776.341         359.234         359.234 
       0.497035         759.826         350.152         350.152 
       0.503198         755.521         341.398         341.398 
       0.509342         747.121         332.978         332.978 
       0.515458         743.611         324.865         324.865 
       0.521598         725.846         316.969         316.969 
       0.527764         711.872         309.286         309.286 
       0.533884         710.935         301.907         301.907 
           0.54         703.726         294.778         294.778 
       0.546137         697.235         287.862         287.862 
       0.552299         688.193         281.153         281.153 
       0.558452         683.262         274.685         274.685 
       0.564573         674.119         268.467         268.467 
       0.570708          667.17         262.437         262.437 
       0.576825         649.026         256.613         256.613 
       0.582926         652.516         250.978         250.978 
       0.589034         645.757           245.5           245.5 
       0.595184         639.513         240.148         240.148 
       0.601379         630.814          234.92          234.92 
       0.607522         622.333         229.893         229.893 
       0.613639         622.724         225.039         225.039 
       0.619772         608.721         220.318         220.318 
       0.625918           605.4         215.726         215.726 
       0.632068          597.68         211.266         211.266 
       0.638161         595.561         206.974         206.974 
         0.6443         584.837         202.773         202.773 
       0.650464         583.141         198.674         198.674 
       0.656582         578.899          194.72          194.72 
       0.662703         576.189         190.874         190.874 
       0.668861         566.205         187.111         187.111 
       0.675024         561.586         183.447         183.447 
       0.681124         558.187          179.92          179.92 
       0.687237         553.424          176.48          176.48 
       0.693381         546.671         173.115         173.115 
       0.699536         537.551         169.834         169.834 
       0.705665         537.308         166.653         166.653 
       0.711789         533.789         163.558         163.558 
       0.717957         528.748         160.522         160.522 
        0.72409         526.354         157.581         157.581 
       0.730186         518.135         154.733         154.733 
       0.736317         515.247         151.941         151.941 
       0.742472          512.63         149.208         149.208 
       0.748622         506.749         146.546         146.546 
        0.75476         499.256         143.955         143.955 
       0.760888         495.051         141.432         141.432 
       0.767043         495.112          138.96          138.96 
       0.773185         489.963         136.553         136.553 
       0.779291          484.96         134.218         134.218 
       0.785407         481.032         131.935         131.935 
       0.791564         475.747         129.691         129.691 
       0.797719         473.671         127.501         127.501 
       0.803834         468.775         125.376         125.376 
       0.809972         467.244         123.292         123.292 
       0.816124         465.845         121.253         121.253 
       0.822261         458.933         119.265         119.265 
       0.828378          456.34         117.328         117.328 
       0.834502         451.663         115.434         115.434 
       0.840667         448.037         113.569         113.569 
       0.846816         445.803         111.752         111.752 
       0.852925          442.13         109.986         109.986 
       0.859047         441.052         108.255         108.255 
       0.865192          435.35         106.556         106.556 
       0.871341         431.712         104.893         104.893 
       0.877463         431.211         103.274         103.274 
       0.883569         426.685         101.693         101.693 
       0.889708         424.017         100.138         100.138 
       0.895864         421.879         98.6111         98.6111 
       0.902008         418.512         97.1201         97.1201 
       0.908149         413.408         95.6613         95.6613 
       0.914301          411.11         94.2304         94.2304 
       0.920448         408.877         92.8304         92.8304 
       0.926574         402.328         91.4642         91.4642 
       0.932687         402.462         90.1287         90.1287 
       0.938823         398.038         88.8154         88.8154 
       0.944975         398.467         87.5256         87.5256 
       0.951105         393.115         86.2663         86.2663 
       0.957225         390.678         85.0343         85.0343 
       0.963368         386.474         83.8225         83.8225 
       0.969511         385.287         82.6345         82.6345 
       0.975621         382.694         81.4762         81.4762 
       0.981748         380.425         80.3374         80.3374 
       0.987916         378.204         79.2134         79.2134 
        0.99406         371.976         78.1154         78.1154 
        1.00019          370.62         77.0406         77.0406 
        1.00632         368.942         75.9872         75.9872 
        1.01246         365.999         74.9522         74.9522 
        1.01859         365.945         73.9384         73.9384 
        1.02471         360.758         72.9447         72.9447 
        1.03085         358.793         71.9662         71.9662 
        1.03698           357.6         71.0078         71.0078 
        1.04314         354.148          70.063          70.063 
        1.04929         350.475         69.1378         69.1378 
        1.05541         351.195         68.2332         68.2332 
        1.06154         345.415         67.3428         67.3428 
        1.06769         343.849          66.467          66.467 
        1.07382         341.597         65.6099         65.6099 
        1.07993         339.506         64.7699         64.7699 
        1.08607         338.516         63.9413         63.9413 
        1.09222         335.019         63.1265         63.1265 
        1.09836         332.977          62.327          62.327 
        1.10449         329.794         61.5425         61.5425 
        1.11063         326.281         60.7707         60.7707 
        1.11677         326.591         60.0126         60.0126 
         1.1229         324.296         59.2688         59.2688 
        1.12903         321.801         58.5372         58.5372 
        1.13518         318.607         57.8174         57.8174 
        1.14131         317.201         57.1103         57.1103 
        1.14745         315.114         56.4155         56.4155 
        1.15359         313.183         55.7322         55.7322 
        1.15973         310.908         55.0602         55.0602 
        1.16584         308.686         54.4023         54.4023 
        1.17197         308.106         53.7543         53.7543 
        1.17811         304.537          53.115          53.115 
        1.18424         302.097         52.4881         52.4881 
        1.19038         300.873         51.8696         51.8696 
        1.19652         298.674         51.2614         51.2614 
        1.20267         297.596          50.663          50.663 
        1.20881         295.563         50.0745         50.0745 
        1.21495         293.041         49.4963         49.4963 
        1.22108         291.363         48.9274         48.9274 
         1.2272         289.439         48.3688         48.3688 
        1.23334         287.583         47.8179         47.8179 
        1.23949         285.609         47.2742         47.2742 
        1.24562         284.318         46.7406         46.7406 
        1.25174         281.963         46.2162         46.2162 
        1.25789         279.405         45.6982         45.6982 
        1.26402         277.635         45.1892         45.1892 
        1.27014         275.846         44.6892         44.6892 
        1.27628         274.177         44.1954         44.1954 
        1.28244         273.697         43.7081         43.7081 
        1.28858         270.848         43.2289         43.2289 
        1.29471         269.043          42.758          42.758 
        1.30084         267.338         42.2946         42.2946 
        1.30697         265.783         41.8375         41.8375 
        1.31312         263.004         41.3864         41.3864 
        1.31925         262.301         40.9435         40.9435 
        1.32537         261.101         40.5076         40.5076 
        1.33151         258.418         40.0765         40.0765 
        1.33765         256.583         39.6521         39.6521 
        1.34378         255.715         39.2346         39.2346 
        1.34992         253.982         38.8229         38.8229 
        1.35606         253.033         38.4163         38.4163 
         1.3622          250.81         38.0163         38.0163 
        1.36833         248.861          37.623          37.623 
        1.37445         247.518         37.2356         37.2356 
        1.38059         245.288         36.8524         36.8524 
        1.38675         244.316         36.4738         36.4738 
        1.39288         242.706          36.102          36.102 
        1.39901          241.79         35.7356         35.7356 
        1.40515         239.815         35.3735         35.3735 
         1.4113         238.457         35.0167         35.0167 
        1.41742         236.516         34.6661         34.6661 
        1.42355         235.322         34.3198         34.3198 
         1.4297         233.337         33.9771         33.9771 
        1.43585         232.158         33.6394         33.6394 
        1.44198         230.901         33.3075         33.3075 
        1.44809         229.276         32.9808         32.9808 
        1.45423         227.787         32.6573         32.6573 
        1.46036          226.58         32.3388         32.3388 
        1.46649         224.681         32.0244         32.0244 
        1.47263         223.509          31.714          31.714 
        1.47877         221.946         31.4079         31.4079 
        1.48491         219.962         31.1054         31.1054 
        1.49104         219.323         30.8075         30.8075 
        1.49718         217.416         30.5134         30.5134 
        1.50333         216.547         30.2226         30.2226 
        1.50947          215.03         29.9363         29.9363 
         1.5156         213.026         29.6541         29.6541 
        1.52172         212.208         29.3756         29.3756 
        1.52787         210.615         29.1001         29.1001 
          1.534         209.789         28.8286         28.8286 
        1.54013         207.915         28.5608         28.5608 
        1.54627         206.899         28.2959         28.2959 
        1.55241         205.619         28.0344         28.0344 
        1.55855         204.037         27.7765         27.7765 
        1.56467         202.819         27.5227         27.5227 
         1.5708         202.173         27.2713         27.2713 
        1.57695         200.483         27.0227         27.0227 
        1.58308         199.288         26.7778         26.7778 
        1.58922         197.329         26.5358         26.5358 
        1.59535         195.956         26.2969         26.2969 
         1.6015         195.467         26.0606         26.0606 
        1.60764         194.073         25.8274         25.8274 
        1.61376         192.939         25.5977         25.5977 
        1.61989         191.754         25.3706         25.3706 
        1.62604         190.408         25.1457         25.1457 
        1.63218         189.308         24.9238         24.9238 
        1.63831         187.884         24.7051         24.7051 
        1.64444         187.069         24.4889         24.4889 
        1.65059         185.805         24.2748         24.2748 
        1.65673         184.529         24.0636         24.0636 
        1.66285         183.205         23.8554         23.8554 
        1.66898         182.068         23.6497         23.6497 
        1.67512         181.619          23.446          23.446 
        1.68127         179.545         23.2446         23.2446 
         1.6874         178.756          23.046          23.046 
        1.69353         177.632         22.8498         22.8498 
        1.69967         176.117         22.6555         22.6555 
        1.70581         175.496         22.4635         22.4635 
        1.71193         173.945         22.2745         22.2745 
        1.71806         173.438         22.0873         22.0873 
        1.72421         172.034         21.9018         21.9018 
        1.73035          171.19         21.7188         21.7188 
        1.73649         170.159         21.5378         21.5378 
        1.74262         168.967         21.3591         21.3591 
        1.74876         167.811         21.1824         21.1824 
        1.75489         166.831          21.008          21.008 
        1.76101         165.479         20.8356         20.8356 
        1.76715          164.98         20.6649         20.6649 
        1.77329         163.927          20.496          20.496 
        1.77943         162.988         20.3289         20.3289 
        1.78557         161.855         20.1639         20.1639 
        1.79171         161.018         20.0007         20.0007 
        1.79785         159.597         19.8394         19.8394 
        1.80399         158.791         19.6798         19.6798 
        1.81012         157.783         19.5222         19.5222 
        1.81625         157.095         19.3665         19.3665 
        1.82239         155.806         19.2122         19.2122 
        1.82853         155.374         19.0597         19.0597 
        1.83466         153.989          18.909          18.909 
        1.84078         153.328         18.7601         18.7601 
        1.84692         151.802         18.6125         18.6125 
        1.85306         151.426         18.4664         18.4664 
         1.8592         150.306         18.3221         18.3221 
        1.86533          149.53         18.1794         18.1794 
        1.87147         148.409         18.0381         18.0381 
        1.87761         147.573         17.8982         17.8982 
