# k  (h/Mpc)    P(k)  (Mpc/h)^3    P_linear(k)  (Mpc/h)^3     P_NL(k)  ShotnoiseSubtracted = false
     0.00783031         10343.8         10484.7         10484.7 
       0.013688         13353.5         13262.3         13262.3 
       0.019231         13685.4           13671           13671 
      0.0249154         12642.6           12876           12876 
      0.0312784         11295.3         11407.7         11407.7 
      0.0375637         9939.85         9953.96         9953.96 
      0.0433917         8702.37         8855.28         8855.28 
      0.0492413         7965.46         8036.38         8036.38 
      0.0555754         7180.11         7394.49         7394.49 
      0.0619321         6863.87         6877.45         6877.45 
       0.067871          6234.9         6406.19         6406.19 
      0.0738098          5735.7         5895.04         5895.04 
      0.0800417         5125.69          5318.9          5318.9 
      0.0862327         4636.06         4750.29         4750.29 
      0.0921407         4225.74         4261.31         4261.31 
      0.0982031         3799.51         3849.09         3849.09 
       0.104506         3575.93         3526.12         3526.12 
       0.110769         3330.64         3294.69         3294.69 
       0.116806         3137.23         3124.56         3124.56 
       0.122832         2996.98         2973.11         2973.11 
       0.129052         2781.56         2809.48         2809.48 
       0.135211         2619.69         2628.61         2628.61 
       0.141259         2482.87         2437.16         2437.16 
       0.147318         2324.16          2245.7          2245.7 
       0.153489         2130.12         2067.31         2067.31 
       0.159709         2014.88          1916.2          1916.2 
       0.165845         1939.86         1798.56         1798.56 
       0.171974         1834.49         1707.75         1707.75 
       0.178125         1752.18            1634            1634 
       0.184229         1685.13         1567.55         1567.55 
        0.19034         1581.85         1499.51         1499.51 
       0.196428         1548.44         1426.29         1426.29 
       0.202534          1489.4         1348.13         1348.13 
       0.208729         1414.01         1268.06         1268.06 
       0.214876         1344.56         1192.96         1192.96 
       0.220989         1301.61         1126.55         1126.55 
       0.227147         1239.78         1069.77         1069.77 
        0.23329         1193.69         1022.55         1022.55 
       0.239377         1173.37           982.6           982.6 
       0.245482         1099.48          946.23          946.23 
       0.251667         1091.16         910.357         910.357 
       0.257832         1049.87         873.846         873.846 
       0.263955         1014.65         836.536         836.536 
       0.270079         979.235         799.034         799.034 
        0.27624         967.499         762.511         762.511 
       0.282372         926.273         728.705         728.705 
        0.28843         912.117         698.564         698.564 
       0.294538         867.677         671.539         671.539 
       0.300721         864.608         647.121         647.121 
        0.30691          826.75         624.706         624.706 
       0.313033          811.12         603.635         603.635 
       0.319153         791.974         582.982         582.982 
       0.325316         767.292         562.319         562.319 
        0.33145         747.527         541.936         541.936 
       0.337538         737.179         522.213         522.213 
       0.343633         716.008         503.348         503.348 
       0.349808         692.279          485.43          485.43 
       0.355968         687.949         468.886         468.886 
       0.362074         677.373         453.706         453.706 
       0.368217         658.351         439.469         439.469 
       0.374374         631.248         425.943         425.943 
       0.380519         629.124         412.946         412.946 
       0.386598          613.58         400.434         400.434 
       0.392688         610.918         388.177         388.177 
        0.39888         593.179         376.055         376.055 
       0.405048         582.477         364.404         364.404 
       0.411186         573.049         353.312         353.312 
       0.417313         562.312         342.807         342.807 
       0.423458         552.575         332.837         332.837 
       0.429607         542.779         323.375         323.375 
       0.435692         530.462         314.459         314.459 
       0.441815         526.828         305.847         305.847 
       0.447964         515.691         297.488         297.488 
       0.454126         503.968         289.371         289.371 
       0.460267         496.005          281.53          281.53 
       0.466387         490.691         273.961         273.961 
        0.47254         481.109         266.618         266.618 
       0.478662         479.997         259.599         259.599 
       0.484765         465.237         252.889         252.889 
       0.490885         460.941         246.434         246.434 
       0.497035         452.509         240.204         240.204 
       0.503198         446.101         234.199         234.199 
       0.509342         442.458         228.422         228.422 
       0.515458         438.434         222.857         222.857 
       0.521598         428.864          217.44          217.44 
       0.527764         420.652          212.17          212.17 
       0.533884         418.727         207.108         207.108 
           0.54          413.12         202.217         202.217 
       0.546137         411.305         197.473         197.473 
       0.552299         403.152         192.871         192.871 
       0.558452         400.869         188.434         188.434 
       0.564573          394.64         184.168         184.168 
       0.570708         388.465         180.031         180.031 
       0.576825         380.719         176.036         176.036 
       0.582926         379.085          172.17          172.17 
       0.589034         375.371         168.413         168.413 
       0.595184         371.738         164.741         164.741 
       0.601379         367.435         161.155         161.155 
       0.607522         361.749         157.706         157.706 
       0.613639         360.178         154.376         154.376 
       0.619772         351.292         151.137         151.137 
       0.625918         350.487         147.988         147.988 
       0.632068         345.149         144.928         144.928 
       0.638161         343.807         141.984         141.984 
         0.6443         337.638         139.102         139.102 
       0.650464         334.982          136.29          136.29 
       0.656582         333.533         133.578         133.578 
       0.662703         331.237         130.939         130.939 
       0.668861         325.234         128.357         128.357 
       0.675024         321.964         125.844         125.844 
       0.681124         320.333         123.425         123.425 
       0.687237          316.74         121.065         121.065 
       0.693381         312.287         118.757         118.757 
       0.699536         309.526         116.506         116.506 
       0.705665         307.186         114.324         114.324 
       0.711789         304.397         112.201         112.201 
       0.717957         302.062         110.118         110.118 
        0.72409          299.13           108.1           108.1 
       0.730186         295.843         106.147         106.147 
       0.736317         292.987         104.231         104.231 
       0.742472         291.639         102.356         102.356 
       0.748622         288.803          100.53          100.53 
        0.75476         286.082         98.7531         98.7531 
       0.760888         282.574         97.0222         97.0222 
       0.767043         282.692         95.3265         95.3265 
       0.773185         278.942         93.6754         93.6754 
       0.779291         274.319         92.0733         92.0733 
       0.785407         273.603         90.5069         90.5069 
       0.791564         270.614         88.9675         88.9675 
       0.797719         268.191         87.4652         87.4652 
       0.803834         266.399         86.0076         86.0076 
       0.809972         264.562         84.5784         84.5784 
       0.816124         264.585          83.179          83.179 
       0.822261          260.34         81.8155         81.8155 
       0.828378          258.52          80.487          80.487 
       0.834502         257.823         79.1873         79.1873 
       0.840667         253.901         77.9083         77.9083 
       0.846816         252.494         76.6615         76.6615 
       0.852925          251.05         75.4501         75.4501 
       0.859047         249.096         74.2628         74.2628 
       0.865192         246.683         73.0974         73.0974 
       0.871341         244.563         71.9565         71.9565 
       0.877463         242.876         70.8456         70.8456 
       0.883569         241.635         69.7611         69.7611 
       0.889708         239.268         68.6942         68.6942 
       0.895864          236.36          67.647          67.647 
       0.902008         235.809         66.6242         66.6242 
       0.908149         234.614         65.6234         65.6234 
       0.914301         231.549         64.6418         64.6418 
       0.920448         229.834         63.6815         63.6815 
       0.926574         228.434         62.7443         62.7443 
       0.932687         228.251         61.8281         61.8281 
       0.938823         225.433         60.9272         60.9272 
       0.944975         223.944         60.0424         60.0424 
       0.951105         222.719         59.1786         59.1786 
       0.957225          220.56         58.3334         58.3334 
       0.963368         217.889         57.5021         57.5021 
       0.969511         217.026         56.6871         56.6871 
       0.975621         215.152         55.8925         55.8925 
       0.981748         215.288         55.1113         55.1113 
       0.987916         212.713         54.3403         54.3403 
        0.99406         210.684          53.587          53.587 
        1.00019         210.568         52.8497         52.8497 
        1.00632         208.588         52.1271         52.1271 
        1.01246         207.056         51.4171         51.4171 
        1.01859         206.369         50.7216         50.7216 
        1.02471         204.292           50.04           50.04 
        1.03085         202.015         49.3686         49.3686 
        1.03698         201.193         48.7112         48.7112 
        1.04314         199.606         48.0631         48.0631 
        1.04929         198.181         47.4284         47.4284 
        1.05541         197.774         46.8079         46.8079 
        1.06154         195.862          46.197          46.197 
        1.06769         195.501         45.5963         45.5963 
        1.07382         193.898         45.0082         45.0082 
        1.07993         192.122          44.432          44.432 
        1.08607         191.384         43.8636         43.8636 
        1.09222         190.237         43.3047         43.3047 
        1.09836         188.449         42.7562         42.7562 
        1.10449         186.668          42.218          42.218 
        1.11063         185.176         41.6886         41.6886 
        1.11677         184.908         41.1685         41.1685 
         1.1229         183.261         40.6583         40.6583 
        1.12903         182.259         40.1564         40.1564 
        1.13518         181.416         39.6626         39.6626 
        1.14131         179.699         39.1775         39.1775 
        1.14745         179.277         38.7009         38.7009 
        1.15359         177.826         38.2322         38.2322 
        1.15973           177.1         37.7712         37.7712 
        1.16584         175.115         37.3199         37.3199 
        1.17197         174.632         36.8754         36.8754 
        1.17811         173.403         36.4368         36.4368 
        1.18424         172.392         36.0067         36.0067 
        1.19038         171.833         35.5824         35.5824 
        1.19652          170.46         35.1652         35.1652 
        1.20267         169.657         34.7547         34.7547 
        1.20881         168.042          34.351          34.351 
        1.21495         167.394         33.9543         33.9543 
        1.22108         166.475         33.5641         33.5641 
         1.2272          164.94         33.1809         33.1809 
        1.23334         164.242          32.803          32.803 
        1.23949         162.862           32.43           32.43 
        1.24562         162.138          32.064          32.064 
        1.25174         160.233         31.7042         31.7042 
        1.25789         159.532         31.3489         31.3489 
        1.26402         158.739         30.9997         30.9997 
        1.27014         157.631         30.6567         30.6567 
        1.27628          156.83          30.318          30.318 
        1.28244         156.321         29.9837         29.9837 
        1.28858         155.248          29.655          29.655 
        1.29471          153.54         29.3319         29.3319 
        1.30084         152.957          29.014          29.014 
        1.30697         151.995         28.7004         28.7004 
        1.31312          151.39          28.391          28.391 
        1.31925         150.267         28.0872         28.0872 
        1.32537         149.426         27.7882         27.7882 
        1.33151             148         27.4924         27.4924 
        1.33765         147.606         27.2012         27.2012 
        1.34378         146.554         26.9149         26.9149 
        1.34992         146.052         26.6325         26.6325 
        1.35606         145.261         26.3535         26.3535 
         1.3622         144.101         26.0791         26.0791 
        1.36833         143.094         25.8093         25.8093 
        1.37445         142.111         25.5435         25.5435 
        1.38059         141.625         25.2807         25.2807 
        1.38675         140.611         25.0209         25.0209 
        1.39288         140.049         24.7659         24.7659 
        1.39901         139.592         24.5146         24.5146 
        1.40515         138.317         24.2662         24.2662 
         1.4113         137.019         24.0214         24.0214 
        1.41742          136.62         23.7809         23.7809 
        1.42355         135.664         23.5433         23.5433 
         1.4297         134.887         23.3083         23.3083 
        1.43585         133.609         23.0765         23.0765 
        1.44198         133.489         22.8489         22.8489 
        1.44809         132.484         22.6248         22.6248 
        1.45423         131.469         22.4028         22.4028 
        1.46036         131.032         22.1843         22.1843 
        1.46649         130.064         21.9687         21.9687 
        1.47263         129.541         21.7557         21.7557 
        1.47877         128.856         21.5457         21.5457 
        1.48491         127.473         21.3382         21.3382 
        1.49104         127.251         21.1339         21.1339 
        1.49718         125.945         20.9321         20.9321 
        1.50333          125.53         20.7327         20.7327 
        1.50947         124.923         20.5362         20.5362 
         1.5156         124.072         20.3427         20.3427 
        1.52172         123.217         20.1516         20.1516 
        1.52787         122.629         19.9626         19.9626 
          1.534         121.891         19.7763         19.7763 
        1.54013         120.973         19.5926         19.5926 
        1.54627         120.519         19.4109         19.4109 
        1.55241         119.584         19.2315         19.2315 
        1.55855         119.065         19.0547         19.0547 
        1.56467         118.528         18.8805         18.8805 
         1.5708         117.619         18.7081         18.7081 
        1.57695         117.146         18.5375         18.5375 
        1.58308         116.305         18.3695         18.3695 
        1.58922         115.913         18.2035         18.2035 
        1.59535         114.987         18.0396         18.0396 
         1.6015         114.496         17.8775         17.8775 
        1.60764         113.739         17.7175         17.7175 
        1.61376          113.43         17.5599         17.5599 
        1.61989         112.428         17.4042         17.4042 
        1.62604         111.955         17.2499         17.2499 
        1.63218          111.29         17.0977         17.0977 
        1.63831          110.43         16.9476         16.9476 
        1.64444          110.06         16.7993         16.7993 
        1.65059         109.442         16.6525         16.6525 
        1.65673         108.318         16.5076         16.5076 
        1.66285         108.281         16.3648         16.3648 
        1.66898         107.457         16.2237         16.2237 
        1.67512         106.931         16.0839         16.0839 
        1.68127         106.173         15.9457         15.9457 
         1.6874         105.343         15.8095         15.8095 
        1.69353         104.875         15.6749         15.6749 
        1.69967         104.465         15.5416         15.5416 
        1.70581         103.774         15.4099         15.4099 
        1.71193         103.401         15.2803         15.2803 
        1.71806         102.593         15.1518         15.1518 
        1.72421         102.014         15.0246         15.0246 
        1.73035         101.471          14.899          14.899 
        1.73649         100.788         14.7749         14.7749 
        1.74262         100.215         14.6523         14.6523 
        1.74876         99.8738         14.5311         14.5311 
        1.75489          98.945         14.4114         14.4114 
        1.76101         98.6573         14.2932         14.2932 
        1.76715         97.8168         14.1761         14.1761 
        1.77329         97.5645         14.0602         14.0602 
        1.77943         96.7405         13.9456         13.9456 
        1.78557         96.3799         13.8324         13.8324 
        1.79171         95.7336         13.7205         13.7205 
        1.79785          95.219         13.6098         13.6098 
        1.80399         94.7127         13.5003         13.5003 
        1.81012         94.2657         13.3922         13.3922 
        1.81625         93.5695         13.2854         13.2854 
        1.82239         93.2885         13.1795         13.1795 
        1.82853         92.8666         13.0749         13.0749 
        1.83466         92.0683         12.9715         12.9715 
        1.84078         91.9101         12.8694         12.8694 
        1.84692         91.0354         12.7682         12.7682 
        1.85306         90.4672         12.6679         12.6679 
         1.8592         90.0084         12.5689         12.5689 
        1.86533         89.5713          12.471          12.471 
        1.87147         88.7805         12.3741         12.3741 
        1.87761         88.5593         12.2781         12.2781 
