# k  (h/Mpc)    P(k)  (Mpc/h)^3    P_linear(k)  (Mpc/h)^3     P_NL(k)  ShotnoiseSubtracted = false
     0.00783031         236.893         239.032         239.032 
       0.013688         301.417         302.479         302.479 
       0.019231         311.622         311.884         311.884 
      0.0249154         292.742         293.795         293.795 
      0.0312784         260.233         260.322         260.322 
      0.0375637         227.562         227.163         227.163 
      0.0433917         202.093         202.098         202.098 
      0.0492413         183.596         183.415         183.415 
      0.0555754         168.501         168.769         168.769 
      0.0619321         157.296         156.972         156.972 
       0.067871          145.99         146.218         146.218 
      0.0738098         134.272         134.552         134.552 
      0.0800417         121.026         121.403         121.403 
      0.0862327         108.292         108.426         108.426 
      0.0921407         97.2675         97.2655         97.2655 
      0.0982031         87.7531         87.8568         87.8568 
       0.104506         80.6726         80.4853         80.4853 
       0.110769         75.3091         75.2031         75.2031 
       0.116806         71.1795           71.32           71.32 
       0.122832         67.8706         67.8633         67.8633 
       0.129052         63.9618         64.1284         64.1284 
       0.135211         59.8088         60.0002         60.0002 
       0.141259         55.5958         55.6302         55.6302 
       0.147318         51.3604           51.26           51.26 
       0.153489         47.2113         47.1883         47.1883 
       0.159709         43.7756         43.7391         43.7391 
       0.165845         41.2642          41.054          41.054 
       0.171974         38.9867         38.9812         38.9812 
       0.178125         37.3234         37.2978         37.2978 
       0.184229         35.8604         35.7811         35.7811 
        0.19034         34.1378         34.2279         34.2279 
       0.196428         32.5723         32.5567         32.5567 
       0.202534         30.9346         30.7725         30.7725 
       0.208729         29.0246         28.9448         28.9448 
       0.214876         27.2306         27.2306         27.2306 
       0.220989         25.8841         25.7149         25.7149 
       0.227147          24.433         24.4188         24.4188 
        0.23329         23.3596         23.3409         23.3409 
       0.239377         22.4681          22.429          22.429 
       0.245482         21.5861         21.5988         21.5988 
       0.251667         20.8564           20.78           20.78 
       0.257832         19.9907         19.9466         19.9466 
       0.263955         19.1553         19.0949         19.0949 
       0.270079         18.3181         18.2389         18.2389 
        0.27624         17.5556         17.4052         17.4052 
       0.282372         16.7798         16.6336         16.6336 
        0.28843         16.0387         15.9456         15.9456 
       0.294538         15.4241         15.3287         15.3287 
       0.300721         14.9205         14.7713         14.7713 
        0.30691         14.3488         14.2597         14.2597 
       0.313033         13.8734         13.7787         13.7787 
       0.319153         13.3091         13.3073         13.3073 
       0.325316         12.9694         12.8356         12.8356 
        0.33145         12.4818         12.3704         12.3704 
       0.337538         12.0313         11.9202         11.9202 
       0.343633          11.579         11.4896         11.4896 
       0.349808         11.1944         11.0806         11.0806 
       0.355968         10.8243         10.7029         10.7029 
       0.362074         10.4646         10.3564         10.3564 
       0.368217         10.1417         10.0314         10.0314 
       0.374374         9.79648         9.72269         9.72269 
       0.380519         9.53416         9.42602         9.42602 
       0.386598         9.25843         9.14043         9.14043 
       0.392688         8.99938         8.86063         8.86063 
        0.39888         8.70578         8.58394         8.58394 
       0.405048         8.44889         8.31799         8.31799 
       0.411186         8.20442          8.0648          8.0648 
       0.417313          7.9385         7.82503         7.82503 
       0.423458         7.72876         7.59744         7.59744 
       0.429607         7.49173         7.38147         7.38147 
       0.435692         7.28658         7.17794         7.17794 
       0.441815         7.09509         6.98136         6.98136 
       0.447964         6.93414         6.79056         6.79056 
       0.454126         6.71233         6.60527         6.60527 
       0.460267         6.53431         6.42628         6.42628 
       0.466387          6.3473         6.25353         6.25353 
        0.47254         6.19382         6.08592         6.08592 
       0.478662         6.04376         5.92569         5.92569 
       0.484765         5.87599         5.77254         5.77254 
       0.490885         5.73108         5.62519         5.62519 
       0.497035         5.62047         5.48296         5.48296 
       0.503198         5.46699         5.34589         5.34589 
       0.509342         5.34257         5.21404         5.21404 
       0.515458         5.20037         5.08701         5.08701 
       0.521598         5.08159         4.96336         4.96336 
       0.527764         4.94826         4.84306         4.84306 
       0.533884         4.85368         4.72751         4.72751 
           0.54         4.73549         4.61587         4.61587 
       0.546137         4.63359         4.50758         4.50758 
       0.552299          4.5262         4.40253         4.40253 
       0.558452         4.40633         4.30125         4.30125 
       0.564573          4.3226         4.20388         4.20388 
       0.570708         4.22827         4.10946         4.10946 
       0.576825         4.12613         4.01826         4.01826 
       0.582926         4.05004         3.93002         3.93002 
       0.589034         3.93585         3.84425         3.84425 
       0.595184         3.86099         3.76044         3.76044 
       0.601379         3.77788         3.67858         3.67858 
       0.607522         3.71127         3.59986         3.59986 
       0.613639          3.6472         3.52384         3.52384 
       0.619772         3.55246         3.44992         3.44992 
       0.625918         3.48939         3.37802         3.37802 
       0.632068         3.42841         3.30818         3.30818 
       0.638161         3.34873         3.24098         3.24098 
         0.6443         3.28109         3.17519         3.17519 
       0.650464         3.20695         3.11101         3.11101 
       0.656582          3.1577         3.04909         3.04909 
       0.662703          3.0971         2.98886         2.98886 
       0.668861         3.04588         2.92993         2.92993 
       0.675024         2.97824         2.87257         2.87257 
       0.681124         2.91631         2.81734         2.81734 
       0.687237         2.87156         2.76347         2.76347 
       0.693381         2.81966         2.71079         2.71079 
       0.699536         2.74896          2.6594          2.6594 
       0.705665         2.70341          2.6096          2.6096 
       0.711789         2.66077         2.56113         2.56113 
       0.717957         2.60678         2.51359         2.51359 
        0.72409          2.5621         2.46754         2.46754 
       0.730186         2.51646         2.42294         2.42294 
       0.736317         2.48481         2.37921         2.37921 
       0.742472         2.43908         2.33642         2.33642 
       0.748622         2.39217         2.29474         2.29474 
        0.75476         2.34176         2.25417         2.25417 
       0.760888         2.30372         2.21466         2.21466 
       0.767043         2.27762         2.17596         2.17596 
       0.773185          2.2292         2.13827         2.13827 
       0.779291         2.19561          2.1017          2.1017 
       0.785407         2.15914         2.06594         2.06594 
       0.791564         2.12456          2.0308          2.0308 
       0.797719          2.0933         1.99651         1.99651 
       0.803834          2.0608         1.96324         1.96324 
       0.809972         2.02627         1.93062         1.93062 
       0.816124         1.98896         1.89867         1.89867 
       0.822261         1.95355         1.86755         1.86755 
       0.828378         1.92862         1.83723         1.83723 
       0.834502         1.90306         1.80756         1.80756 
       0.840667         1.86374         1.77836         1.77836 
       0.846816         1.83566          1.7499          1.7499 
       0.852925         1.81527         1.72225         1.72225 
       0.859047         1.78661         1.69515         1.69515 
       0.865192         1.75704         1.66855         1.66855 
       0.871341         1.73059         1.64251         1.64251 
       0.877463         1.71063         1.61715         1.61715 
       0.883569         1.67889         1.59239         1.59239 
       0.889708         1.65347         1.56804         1.56804 
       0.895864         1.62973         1.54414         1.54414 
       0.902008         1.60343         1.52079         1.52079 
       0.908149         1.58111         1.49794         1.49794 
       0.914301         1.55123         1.47554         1.47554 
       0.920448         1.53199         1.45362         1.45362 
       0.926574         1.50903         1.43222         1.43222 
       0.932687         1.48834         1.41131         1.41131 
       0.938823         1.47323         1.39075         1.39075 
       0.944975          1.4508         1.37055         1.37055 
       0.951105         1.43156         1.35083         1.35083 
       0.957225         1.41645         1.33154         1.33154 
       0.963368          1.3944         1.31256         1.31256 
       0.969511         1.37202         1.29396         1.29396 
       0.975621         1.35079         1.27582         1.27582 
       0.981748          1.3387         1.25799         1.25799 
       0.987916         1.31853         1.24039         1.24039 
        0.99406         1.29839          1.2232          1.2232 
        1.00019         1.28527         1.20637         1.20637 
        1.00632         1.26341         1.18987         1.18987 
        1.01246         1.24746         1.17367         1.17367 
        1.01859         1.23355         1.15779         1.15779 
        1.02471         1.21569         1.14223         1.14223 
        1.03085         1.20364         1.12691         1.12691 
        1.03698         1.18498          1.1119          1.1119 
        1.04314         1.17125         1.09711         1.09711 
        1.04929         1.15451         1.08262         1.08262 
        1.05541         1.14233         1.06845         1.06845 
        1.06154          1.1257         1.05451         1.05451 
        1.06769         1.11093          1.0408          1.0408 
        1.07382         1.09856         1.02738         1.02738 
        1.07993         1.08166         1.01422         1.01422 
        1.08607         1.07382         1.00125         1.00125 
        1.09222         1.05739        0.988489        0.988489 
        1.09836         1.04895         0.97597         0.97597 
        1.10449         1.03557        0.963685        0.963685 
        1.11063         1.01903          0.9516          0.9516 
        1.11677         1.00585        0.939728        0.939728 
         1.1229        0.995253        0.928082        0.928082 
        1.12903        0.982081        0.916625        0.916625 
        1.13518        0.973441        0.905354        0.905354 
        1.14131        0.959312        0.894281        0.894281 
        1.14745        0.943109        0.883402        0.883402 
        1.15359        0.936794        0.872703        0.872703 
        1.15973         0.92195        0.862179        0.862179 
        1.16584        0.917659        0.851877        0.851877 
        1.17197        0.904587        0.841731        0.841731 
        1.17811         0.89533        0.831721        0.831721 
        1.18424        0.887861        0.821904        0.821904 
        1.19038        0.874298        0.812219        0.812219 
        1.19652        0.862704        0.802695        0.802695 
        1.20267        0.856672        0.793325        0.793325 
        1.20881        0.844242        0.784109        0.784109 
        1.21495        0.837746        0.775055        0.775055 
        1.22108        0.827842        0.766147        0.766147 
         1.2272        0.820082        0.757401        0.757401 
        1.23334        0.809161        0.748773        0.748773 
        1.23949        0.800318         0.74026         0.74026 
        1.24562        0.792407        0.731905        0.731905 
        1.25174        0.784047        0.723692        0.723692 
        1.25789        0.776366        0.715582        0.715582 
        1.26402        0.764992        0.707611        0.707611 
        1.27014        0.757484        0.699782        0.699782 
        1.27628        0.752163        0.692049        0.692049 
        1.28244        0.740383         0.68442         0.68442 
        1.28858        0.734045        0.676916        0.676916 
        1.29471        0.728154        0.669542        0.669542 
        1.30084        0.718564        0.662286        0.662286 
        1.30697        0.711284        0.655127        0.655127 
        1.31312        0.701023        0.648064        0.648064 
        1.31925        0.696031        0.641129        0.641129 
        1.32537        0.689857        0.634303        0.634303 
        1.33151        0.683809        0.627553        0.627553 
        1.33765        0.676081        0.620906        0.620906 
        1.34378        0.667205        0.614369        0.614369 
        1.34992        0.662429        0.607923        0.607923 
        1.35606        0.654764        0.601556        0.601556 
         1.3622          0.6487        0.595292        0.595292 
        1.36833        0.641853        0.589134        0.589134 
        1.37445        0.633585        0.583066        0.583066 
        1.38059        0.627736        0.577067        0.577067 
        1.38675        0.625901        0.571137        0.571137 
        1.39288        0.617004        0.565316        0.565316 
        1.39901        0.611287        0.559579        0.559579 
        1.40515        0.605812         0.55391         0.55391 
         1.4113         0.59846        0.548321        0.548321 
        1.41742        0.592914        0.542832        0.542832 
        1.42355         0.58979        0.537409        0.537409 
         1.4297        0.581599        0.532043        0.532043 
        1.43585        0.576832        0.526754        0.526754 
        1.44198        0.573534        0.521558        0.521558 
        1.44809        0.565669        0.516442        0.516442 
        1.45423        0.560901        0.511376        0.511376 
        1.46036        0.555431        0.506388        0.506388 
        1.46649        0.550929        0.501466        0.501466 
        1.47263        0.544929        0.496605        0.496605 
        1.47877        0.539213        0.491812        0.491812 
        1.48491        0.534889        0.487075        0.487075 
        1.49104        0.528725        0.482411        0.482411 
        1.49718        0.524973        0.477805        0.477805 
        1.50333        0.520426        0.473252        0.473252 
        1.50947        0.515631        0.468768        0.468768 
         1.5156        0.510473         0.46435         0.46435 
        1.52172        0.506014        0.459989        0.459989 
        1.52787        0.501161        0.455675        0.455675 
          1.534        0.497041        0.451423        0.451423 
        1.54013        0.491275        0.447229        0.447229 
        1.54627        0.487919        0.443082        0.443082 
        1.55241        0.483005        0.438987        0.438987 
        1.55855        0.478022        0.434949        0.434949 
        1.56467        0.476173        0.430974        0.430974 
         1.5708        0.470592        0.427038        0.427038 
        1.57695        0.467099        0.423145        0.423145 
        1.58308        0.462438         0.41931         0.41931 
        1.58922        0.458819        0.415521        0.415521 
        1.59535        0.454476         0.41178         0.41178 
         1.6015        0.450509         0.40808         0.40808 
        1.60764        0.447001        0.404428        0.404428 
        1.61376        0.441827         0.40083         0.40083 
        1.61989         0.43919        0.397274        0.397274 
        1.62604        0.435579        0.393754        0.393754 
        1.63218        0.432224        0.390279        0.390279 
        1.63831        0.428421        0.386854        0.386854 
        1.64444        0.424406        0.383469        0.383469 
        1.65059        0.420928        0.380117        0.380117 
        1.65673        0.417411        0.376809        0.376809 
        1.66285        0.414165        0.373549        0.373549 
        1.66898        0.411101        0.370328        0.370328 
        1.67512        0.406556        0.367139        0.367139 
        1.68127        0.403136        0.363984        0.363984 
         1.6874        0.401056        0.360874        0.360874 
        1.69353        0.396824        0.357802        0.357802 
        1.69967        0.394337        0.354759        0.354759 
        1.70581        0.390247        0.351753        0.351753 
        1.71193        0.387425        0.348793        0.348793 
        1.71806         0.38389        0.345862        0.345862 
        1.72421        0.381504        0.342958        0.342958 
        1.73035        0.377796        0.340091        0.340091 
        1.73649        0.375644        0.337258        0.337258 
        1.74262        0.372251         0.33446         0.33446 
        1.74876        0.369007        0.331692        0.331692 
        1.75489        0.366412        0.328961        0.328961 
        1.76101        0.362659        0.326262        0.326262 
        1.76715        0.360215         0.32359         0.32359 
        1.77329         0.35721        0.320944        0.320944 
        1.77943        0.354296        0.318328        0.318328 
        1.78557        0.352104        0.315744        0.315744 
        1.79171        0.349243        0.313189        0.313189 
        1.79785        0.346423        0.310662        0.310662 
        1.80399        0.343627        0.308164        0.308164 
        1.81012        0.341274        0.305696        0.305696 
        1.81625        0.338393        0.303257        0.303257 
        1.82239        0.336284        0.300841        0.300841 
        1.82853        0.332561        0.298453        0.298453 
        1.83466        0.330719        0.296093        0.296093 
        1.84078        0.327921        0.293761        0.293761 
        1.84692        0.325605        0.291451        0.291451 
        1.85306        0.323594        0.289163        0.289163 
         1.8592        0.320691        0.286903        0.286903 
        1.86533        0.318714        0.284669        0.284669 
        1.87147        0.316045        0.282456        0.282456 
        1.87761        0.314221        0.280266        0.280266 
