# k  (h/Mpc)    Pcb(k)  (Mpc/h)^3    Pcb_linear(k) (Mpc/h)^3    Pcb_NL(k) (Mpc/h)^3   ShotnoiseSubtracted = false
     0.00783031         238.939         241.096         241.096 
       0.013688         304.021         305.092         305.092 
       0.019231         314.314         314.578         314.578 
      0.0249154         295.271         296.332         296.332 
      0.0312784          262.48          262.57          262.57 
      0.0375637         229.528         229.125         229.125 
      0.0433917         203.838         203.844         203.844 
      0.0492413         185.182         184.999         184.999 
      0.0555754         169.957         170.227         170.227 
      0.0619321         158.655         158.328         158.328 
       0.067871         147.251         147.481         147.481 
      0.0738098         135.431         135.715         135.715 
      0.0800417         122.072         122.452         122.452 
      0.0862327         109.227         109.363         109.363 
      0.0921407         98.1076         98.1057         98.1057 
      0.0982031          88.511         88.6157         88.6157 
       0.104506         81.3695         81.1805         81.1805 
       0.110769         75.9596         75.8527         75.8527 
       0.116806         71.7943          71.936          71.936 
       0.122832         68.4568         68.4495         68.4495 
       0.129052         64.5142         64.6823         64.6823 
       0.135211         60.3254         60.5185         60.5185 
       0.141259         56.0761         56.1107         56.1107 
       0.147318          51.804         51.7028         51.7028 
       0.153489         47.6191         47.5959         47.5959 
       0.159709         44.1537         44.1169         44.1169 
       0.165845         41.6206         41.4086         41.4086 
       0.171974         39.3234         39.3179         39.3179 
       0.178125         37.6458           37.62           37.62 
       0.184229         36.1702         36.0902         36.0902 
        0.19034         34.4327         34.5235         34.5235 
       0.196428         32.8536         32.8379         32.8379 
       0.202534         31.2018         31.0383         31.0383 
       0.208729         29.2753         29.1949         29.1949 
       0.214876         27.4658         27.4658         27.4658 
       0.220989         26.1077          25.937          25.937 
       0.227147         24.6441         24.6297         24.6297 
        0.23329         23.5614         23.5425         23.5425 
       0.239377         22.6622         22.6227         22.6227 
       0.245482         21.7725         21.7854         21.7854 
       0.251667         21.0365         20.9595         20.9595 
       0.257832         20.1634         20.1189         20.1189 
       0.263955         19.3207         19.2599         19.2599 
       0.270079         18.4764         18.3965         18.3965 
        0.27624         17.7072         17.5556         17.5556 
       0.282372         16.9247         16.7772         16.7772 
        0.28843         16.1772         16.0833         16.0833 
       0.294538         15.5573         15.4612         15.4612 
       0.300721         15.0494         14.8989         14.8989 
        0.30691         14.4728         14.3829         14.3829 
       0.313033         13.9932         13.8977         13.8977 
       0.319153         13.4241         13.4223         13.4223 
       0.325316         13.0814         12.9465         12.9465 
        0.33145         12.5896         12.4772         12.4772 
       0.337538         12.1352         12.0232         12.0232 
       0.343633          11.679         11.5888         11.5888 
       0.349808         11.2911         11.1763         11.1763 
       0.355968         10.9178         10.7954         10.7954 
       0.362074          10.555         10.4459         10.4459 
       0.368217         10.2293         10.1181         10.1181 
       0.374374          9.8811         9.80667         9.80667 
       0.380519         9.61651         9.50744         9.50744 
       0.386598         9.33841         9.21936         9.21936 
       0.392688         9.07711         8.93717         8.93717 
        0.39888         8.78098         8.65808         8.65808 
       0.405048         8.52187         8.38984         8.38984 
       0.411186         8.27528         8.13446         8.13446 
       0.417313         8.00707         7.89262         7.89262 
       0.423458         7.79552         7.66306         7.66306 
       0.429607         7.55644         7.44523         7.44523 
       0.435692         7.34952         7.23994         7.23994 
       0.441815         7.15638         7.04167         7.04167 
       0.447964         6.99404         6.84921         6.84921 
       0.454126         6.77031         6.66232         6.66232 
       0.460267         6.59076         6.48179         6.48179 
       0.466387         6.40212         6.30755         6.30755 
        0.47254         6.24732         6.13848         6.13848 
       0.478662         6.09596         5.97688         5.97688 
       0.484765         5.92675          5.8224          5.8224 
       0.490885         5.78058         5.67377         5.67377 
       0.497035         5.66901         5.53033         5.53033 
       0.503198         5.51422         5.39207         5.39207 
       0.509342         5.38872         5.25908         5.25908 
       0.515458         5.24529         5.13095         5.13095 
       0.521598         5.12549         5.00623         5.00623 
       0.527764           4.991         4.88489         4.88489 
       0.533884         4.89561         4.76834         4.76834 
           0.54          4.7764         4.65574         4.65574 
       0.546137         4.67361         4.54652         4.54652 
       0.552299         4.56529         4.44056         4.44056 
       0.558452         4.44439          4.3384          4.3384 
       0.564573         4.35993         4.24019         4.24019 
       0.570708          4.2648         4.14496         4.14496 
       0.576825         4.16177         4.05297         4.05297 
       0.582926         4.08503         3.96397         3.96397 
       0.589034         3.96985         3.87745         3.87745 
       0.595184         3.89434         3.79292         3.79292 
       0.601379         3.81051         3.71035         3.71035 
       0.607522         3.74333         3.63095         3.63095 
       0.613639          3.6787         3.55428         3.55428 
       0.619772         3.58314         3.47971         3.47971 
       0.625918         3.51953          3.4072          3.4072 
       0.632068         3.45802         3.33676         3.33676 
       0.638161         3.37766         3.26897         3.26897 
         0.6443         3.30944         3.20261         3.20261 
       0.650464         3.23465         3.13788         3.13788 
       0.656582         3.18498         3.07543         3.07543 
       0.662703         3.12386         3.01468         3.01468 
       0.668861         3.07219         2.95524         2.95524 
       0.675024         3.00396         2.89738         2.89738 
       0.681124          2.9415         2.84168         2.84168 
       0.687237         2.89636         2.78734         2.78734 
       0.693381         2.84401          2.7342          2.7342 
       0.699536         2.77271         2.68237         2.68237 
       0.705665         2.72676         2.63214         2.63214 
       0.711789         2.68375         2.58326         2.58326 
       0.717957          2.6293          2.5353          2.5353 
        0.72409         2.58423         2.48885         2.48885 
       0.730186          2.5382         2.44387         2.44387 
       0.736317         2.50627         2.39977         2.39977 
       0.742472         2.46015          2.3566          2.3566 
       0.748622         2.41284         2.31456         2.31456 
        0.75476         2.36199         2.27364         2.27364 
       0.760888         2.32362         2.23379         2.23379 
       0.767043          2.2973         2.19475         2.19475 
       0.773185         2.24845         2.15674         2.15674 
       0.779291         2.21458         2.11985         2.11985 
       0.785407         2.17779         2.08379         2.08379 
       0.791564         2.14291         2.04835         2.04835 
       0.797719         2.11138         2.01376         2.01376 
       0.803834          2.0786          1.9802          1.9802 
       0.809972         2.04378         1.94729         1.94729 
       0.816124         2.00614         1.91507         1.91507 
       0.822261         1.97043         1.88368         1.88368 
       0.828378         1.94528          1.8531          1.8531 
       0.834502          1.9195         1.82317         1.82317 
       0.840667         1.87984         1.79372         1.79372 
       0.846816         1.85151         1.76502         1.76502 
       0.852925         1.83095         1.73713         1.73713 
       0.859047         1.80204         1.70979         1.70979 
       0.865192         1.77221         1.68296         1.68296 
       0.871341         1.74554         1.65669         1.65669 
       0.877463          1.7254         1.63112         1.63112 
       0.883569          1.6934         1.60615         1.60615 
       0.889708         1.66775         1.58158         1.58158 
       0.895864         1.64381         1.55747         1.55747 
       0.902008         1.61728         1.53393         1.53393 
       0.908149         1.59477         1.51088         1.51088 
       0.914301         1.56463         1.48828         1.48828 
       0.920448         1.54523         1.46617         1.46617 
       0.926574         1.52206         1.44459         1.44459 
       0.932687         1.50119          1.4235          1.4235 
       0.938823         1.48595         1.40276         1.40276 
       0.944975         1.46333         1.38239         1.38239 
       0.951105         1.44393          1.3625          1.3625 
       0.957225         1.42868         1.34304         1.34304 
       0.963368         1.40645          1.3239          1.3239 
       0.969511         1.38387         1.30514         1.30514 
       0.975621         1.36245         1.28684         1.28684 
       0.981748         1.35026         1.26886         1.26886 
       0.987916         1.32992         1.25111         1.25111 
        0.99406         1.30961         1.23376         1.23376 
        1.00019         1.29638         1.21679         1.21679 
        1.00632         1.27432         1.20015         1.20015 
        1.01246         1.25823          1.1838          1.1838 
        1.01859         1.24421         1.16779         1.16779 
        1.02471         1.22619          1.1521          1.1521 
        1.03085         1.21404         1.13664         1.13664 
        1.03698         1.19522          1.1215          1.1215 
        1.04314         1.18137         1.10658         1.10658 
        1.04929         1.16448         1.09197         1.09197 
        1.05541         1.15219         1.07768         1.07768 
        1.06154         1.13542         1.06362         1.06362 
        1.06769         1.12053         1.04979         1.04979 
        1.07382         1.10805         1.03625         1.03625 
        1.07993           1.091         1.02298         1.02298 
        1.08607          1.0831          1.0099          1.0099 
        1.09222         1.06652        0.997027        0.997027 
        1.09836         1.05801          0.9844          0.9844 
        1.10449         1.04452        0.972009        0.972009 
        1.11063         1.02783        0.959819        0.959819 
        1.11677         1.01454        0.947845        0.947845 
         1.1229         1.00385        0.936099        0.936099 
        1.12903        0.990564        0.924543        0.924543 
        1.13518        0.981849        0.913175        0.913175 
        1.14131        0.967598        0.902006        0.902006 
        1.14745        0.951255        0.891032        0.891032 
        1.15359        0.944886        0.880241        0.880241 
        1.15973        0.929914        0.869626        0.869626 
        1.16584        0.925585        0.859236        0.859236 
        1.17197        0.912401        0.849002        0.849002 
        1.17811        0.903064        0.838905        0.838905 
        1.18424         0.89553        0.829003        0.829003 
        1.19038         0.88185        0.819234        0.819234 
        1.19652        0.870156        0.809628        0.809628 
        1.20267        0.864071        0.800178        0.800178 
        1.20881        0.851535        0.790882        0.790882 
        1.21495        0.844982        0.781749        0.781749 
        1.22108        0.834993        0.772764        0.772764 
         1.2272        0.827165        0.763943        0.763943 
        1.23334        0.816151        0.755241        0.755241 
        1.23949        0.807231        0.746654        0.746654 
        1.24562        0.799252        0.738227        0.738227 
        1.25174         0.79082        0.729943        0.729943 
        1.25789        0.783072        0.721763        0.721763 
        1.26402          0.7716        0.713723        0.713723 
        1.27014        0.764027        0.705827        0.705827 
        1.27628         0.75866        0.698027        0.698027 
        1.28244        0.746778        0.690331        0.690331 
        1.28858        0.740386        0.682763        0.682763 
        1.29471        0.734443        0.675325        0.675325 
        1.30084         0.72477        0.668006        0.668006 
        1.30697        0.717428        0.660786        0.660786 
        1.31312        0.707078        0.653662        0.653662 
        1.31925        0.702043        0.646667        0.646667 
        1.32537        0.695816        0.639782        0.639782 
        1.33151        0.689715        0.632974        0.632974 
        1.33765        0.681921        0.626269        0.626269 
        1.34378        0.672968        0.619676        0.619676 
        1.34992        0.668151        0.613174        0.613174 
        1.35606         0.66042        0.606752        0.606752 
         1.3622        0.654303        0.600435        0.600435 
        1.36833        0.647397        0.594223        0.594223 
        1.37445        0.639058        0.588103        0.588103 
        1.38059        0.633158        0.582051        0.582051 
        1.38675        0.631307        0.576071        0.576071 
        1.39288        0.622333        0.570199        0.570199 
        1.39901        0.616568        0.564413        0.564413 
        1.40515        0.611045        0.558694        0.558694 
         1.4113        0.603629        0.553058        0.553058 
        1.41742        0.598035        0.547521        0.547521 
        1.42355        0.594885        0.542051        0.542051 
         1.4297        0.586623        0.536639        0.536639 
        1.43585        0.581815        0.531304        0.531304 
        1.44198        0.578488        0.526063        0.526063 
        1.44809        0.570555        0.520903        0.520903 
        1.45423        0.565746        0.515793        0.515793 
        1.46036        0.560228        0.510762        0.510762 
        1.46649        0.555687        0.505797        0.505797 
        1.47263        0.549636        0.500895        0.500895 
        1.47877        0.543871         0.49606         0.49606 
        1.48491        0.539509        0.491282        0.491282 
        1.49104        0.533292        0.486578        0.486578 
        1.49718        0.529507        0.481932        0.481932 
        1.50333        0.524922         0.47734         0.47734 
        1.50947        0.520085        0.472817        0.472817 
         1.5156        0.514882        0.468361        0.468361 
        1.52172        0.510385        0.463962        0.463962 
        1.52787         0.50549        0.459611        0.459611 
          1.534        0.501334        0.455322        0.455322 
        1.54013        0.495519        0.451092        0.451092 
        1.54627        0.492133        0.446909        0.446909 
        1.55241        0.487177        0.442779        0.442779 
        1.55855        0.482151        0.438706        0.438706 
        1.56467        0.480286        0.434697        0.434697 
         1.5708        0.474657        0.430727        0.430727 
        1.57695        0.471133          0.4268          0.4268 
        1.58308        0.466433        0.422932        0.422932 
        1.58922        0.462782         0.41911         0.41911 
        1.59535        0.458401        0.415337        0.415337 
         1.6015          0.4544        0.411605        0.411605 
        1.60764        0.450862        0.407921        0.407921 
        1.61376        0.445644        0.404293        0.404293 
        1.61989        0.442984        0.400706        0.400706 
        1.62604        0.439341        0.397155        0.397155 
        1.63218        0.435957         0.39365         0.39365 
        1.63831        0.432121        0.390195        0.390195 
        1.64444        0.428072        0.386781        0.386781 
        1.65059        0.424564          0.3834          0.3834 
        1.65673        0.421017        0.380063        0.380063 
        1.66285        0.417743        0.376776        0.376776 
        1.66898        0.414652        0.373527        0.373527 
        1.67512        0.410068         0.37031         0.37031 
        1.68127        0.406618        0.367128        0.367128 
         1.6874         0.40452        0.363991        0.363991 
        1.69353        0.400252        0.360893        0.360893 
        1.69967        0.397744        0.357823        0.357823 
        1.70581        0.393618        0.354791        0.354791 
        1.71193        0.390772        0.351806        0.351806 
        1.71806        0.387206        0.348849        0.348849 
        1.72421        0.384799        0.345921        0.345921 
        1.73035        0.381059        0.343029        0.343029 
        1.73649        0.378888        0.340172        0.340172 
        1.74262        0.375467        0.337349        0.337349 
        1.74876        0.372194        0.334557        0.334557 
        1.75489        0.369577        0.331803        0.331803 
        1.76101        0.365791         0.32908         0.32908 
        1.76715        0.363326        0.326385        0.326385 
        1.77329        0.360296        0.323717        0.323717 
        1.77943        0.357357        0.321077        0.321077 
        1.78557        0.355146        0.318472        0.318472 
        1.79171        0.352259        0.315895        0.315895 
        1.79785        0.349415        0.313346        0.313346 
        1.80399        0.346595        0.310826        0.310826 
        1.81012        0.344222        0.308337        0.308337 
        1.81625        0.341315        0.305877        0.305877 
        1.82239        0.339189         0.30344         0.30344 
        1.82853        0.335433        0.301031        0.301031 
        1.83466        0.333576        0.298651        0.298651 
        1.84078        0.330753        0.296299        0.296299 
        1.84692        0.328418        0.293969        0.293969 
        1.85306        0.326389        0.291661        0.291661 
         1.8592        0.323461        0.289382        0.289382 
        1.86533        0.321467        0.287128        0.287128 
        1.87147        0.318775        0.284896        0.284896 
