# k  (h/Mpc)    P(k)  (Mpc/h)^3    P_linear(k)  (Mpc/h)^3     P_NL(k)  ShotnoiseSubtracted = false
     0.00783031         9061.31         9181.07         9181.07 
       0.013688         11683.3         11611.1         11611.1 
       0.019231           11982         11968.6         11968.6 
      0.0249154         11084.2         11272.5         11272.5 
      0.0312784         9900.61         9987.04         9987.04 
      0.0375637         8708.39          8714.3          8714.3 
      0.0433917          7633.4         7752.44         7752.44 
      0.0492413          6983.2         7035.53         7035.53 
      0.0555754         6305.01         6473.57         6473.57 
      0.0619321         6017.59         6020.93         6020.93 
       0.067871         5475.66         5608.36         5608.36 
      0.0738098         5036.55         5160.87         5160.87 
      0.0800417         4504.03         4656.49         4656.49 
      0.0862327         4070.14         4158.69         4158.69 
      0.0921407         3704.42         3730.61         3730.61 
      0.0982031         3330.32         3369.72         3369.72 
       0.104506         3129.31         3086.98         3086.98 
       0.110769         2915.02         2884.37         2884.37 
       0.116806         2744.31         2735.43         2735.43 
       0.122832         2623.23         2602.84         2602.84 
       0.129052         2437.07         2459.59         2459.59 
       0.135211         2293.66         2301.25         2301.25 
       0.141259         2170.35         2133.64         2133.64 
       0.147318         2029.12         1966.02         1966.02 
       0.153489         1859.54         1809.85         1809.85 
       0.159709          1756.4         1677.56         1677.56 
       0.165845         1688.02         1574.57         1574.57 
       0.171974          1594.9         1495.07         1495.07 
       0.178125          1524.2         1430.51         1430.51 
       0.184229         1466.85         1372.33         1372.33 
        0.19034         1375.01         1312.76         1312.76 
       0.196428         1345.18         1248.66         1248.66 
       0.202534         1294.24         1180.23         1180.23 
       0.208729         1226.61         1110.14         1110.14 
       0.214876         1163.05         1044.39         1044.39 
       0.220989         1125.86         986.255         986.255 
       0.227147         1069.95         936.544         936.544 
        0.23329          1029.9         895.203         895.203 
       0.239377         1010.88         860.229         860.229 
       0.245482          946.93         828.388         828.388 
       0.251667         938.696         796.983         796.983 
       0.257832         903.852         765.018         765.018 
       0.263955          872.99         732.355         732.355 
       0.270079         842.047         699.523         699.523 
        0.27624         831.057         667.549         667.549 
       0.282372         795.739         637.953         637.953 
        0.28843         780.103         611.566         611.566 
       0.294538         742.676         587.907         587.907 
       0.300721         739.627         566.529         566.529 
        0.30691         706.571         546.906         546.906 
       0.313033         692.879         528.459         528.459 
       0.319153         674.201         510.378         510.378 
       0.325316         653.902         492.289         492.289 
        0.33145         635.996         474.444         474.444 
       0.337538         627.496         457.178         457.178 
       0.343633         608.332         440.662         440.662 
       0.349808         588.462         424.975         424.975 
       0.355968         584.022         410.491         410.491 
       0.362074         573.642         397.202         397.202 
       0.368217         557.928         384.738         384.738 
       0.374374         535.356         372.897         372.897 
       0.380519         532.006         361.518         361.518 
       0.386598         519.139         350.565         350.565 
       0.392688         516.177         339.834         339.834 
        0.39888         501.396         329.222         329.222 
       0.405048         491.549         319.022         319.022 
       0.411186         482.811         309.311         309.311 
       0.417313         474.147         300.115         300.115 
       0.423458         465.687         291.386         291.386 
       0.429607         456.677         283.103         283.103 
       0.435692         446.016         275.297         275.297 
       0.441815         442.859         267.757         267.757 
       0.447964         433.749          260.44          260.44 
       0.454126         421.505         253.333         253.333 
       0.460267         415.821         246.468         246.468 
       0.466387         411.287         239.843         239.843 
        0.47254         402.542         233.414         233.414 
       0.478662         401.536         227.269         227.269 
       0.484765         389.375         221.395         221.395 
       0.490885         385.202         215.744         215.744 
       0.497035         378.631         210.289         210.289 
       0.503198         371.884         205.032         205.032 
       0.509342         368.917         199.975         199.975 
       0.515458         365.042         195.103         195.103 
       0.521598         357.774          190.36          190.36 
       0.527764         351.257         185.747         185.747 
       0.533884         348.706         181.315         181.315 
           0.54         343.978         177.033         177.033 
       0.546137         342.404          172.88          172.88 
       0.552299          335.45         168.851         168.851 
       0.558452         332.949         164.966         164.966 
       0.564573         327.716         161.232         161.232 
       0.570708         322.073         157.611         157.611 
       0.576825         316.878         154.113         154.113 
       0.582926         314.373         150.729         150.729 
       0.589034         310.983         147.439         147.439 
       0.595184           307.9         144.225         144.225 
       0.601379         304.729         141.085         141.085 
       0.607522         299.461         138.066         138.066 
       0.613639         297.914          135.15          135.15 
       0.619772         290.819         132.315         132.315 
       0.625918         289.684         129.558         129.558 
       0.632068         285.487         126.879         126.879 
       0.638161         284.294         124.302         124.302 
         0.6443         279.364         121.778         121.778 
       0.650464         276.881         119.317         119.317 
       0.656582         275.426         116.942         116.942 
       0.662703         273.021         114.632         114.632 
       0.668861         268.282         112.372         112.372 
       0.675024         265.344         110.172         110.172 
       0.681124         264.279         108.054         108.054 
       0.687237         260.813         105.988         105.988 
       0.693381         257.051         103.967         103.967 
       0.699536         255.189         101.996         101.996 
       0.705665         253.501         100.086         100.086 
       0.711789         250.312         98.2275         98.2275 
       0.717957         248.721          96.404          96.404 
        0.72409             246         94.6378         94.6378 
       0.730186         243.057         92.9272         92.9272 
       0.736317         240.856         91.2503         91.2503 
       0.742472         239.654         89.6091         89.6091 
       0.748622         237.562         88.0103         88.0103 
        0.75476         235.485         86.4545         86.4545 
       0.760888         232.347         84.9392         84.9392 
       0.767043         232.013         83.4547         83.4547 
       0.773185         229.245         82.0092         82.0092 
       0.779291         225.206         80.6067         80.6067 
       0.785407         224.619         79.2353         79.2353 
       0.791564         222.408         77.8877         77.8877 
       0.797719         219.967         76.5725         76.5725 
       0.803834         218.769         75.2964         75.2964 
       0.809972         216.762         74.0452         74.0452 
       0.816124         216.839         72.8201         72.8201 
       0.822261         213.488         71.6263         71.6263 
       0.828378          211.79         70.4633         70.4633 
       0.834502         211.622         69.3255         69.3255 
       0.840667         208.101         68.2058         68.2058 
       0.846816         206.797         67.1142         67.1142 
       0.852925         205.705         66.0537         66.0537 
       0.859047          203.71         65.0142         65.0142 
       0.865192         202.058          63.994          63.994 
       0.871341         200.121         62.9952         62.9952 
       0.877463         198.775         62.0226         62.0226 
       0.883569         197.562         61.0732         61.0732 
       0.889708         195.803         60.1391         60.1391 
       0.895864         193.492         59.2224         59.2224 
       0.902008         192.885          58.327          58.327 
       0.908149         191.919         57.4508         57.4508 
       0.914301         189.595         56.5915         56.5915 
       0.920448          188.16         55.7507         55.7507 
       0.926574         187.237         54.9302         54.9302 
       0.932687         186.621         54.1282         54.1282 
       0.938823         184.357         53.3394         53.3394 
       0.944975         182.839         52.5648         52.5648 
       0.951105         182.008         51.8086         51.8086 
       0.957225         179.974         51.0687         51.0687 
       0.963368         178.113         50.3409         50.3409 
       0.969511         177.527         49.6274         49.6274 
       0.975621         176.284         48.9318         48.9318 
       0.981748         175.953         48.2479         48.2479 
       0.987916         173.684         47.5728         47.5728 
        0.99406         172.562         46.9134         46.9134 
        1.00019         172.131         46.2679         46.2679 
        1.00632         170.502         45.6353         45.6353 
        1.01246         169.414         45.0137         45.0137 
        1.01859         168.211         44.4048         44.4048 
        1.02471          167.11         43.8081         43.8081 
        1.03085         165.283         43.2204         43.2204 
        1.03698         164.368         42.6448         42.6448 
        1.04314         163.172         42.0774         42.0774 
        1.04929         161.986         41.5218         41.5218 
        1.05541          161.35         40.9785         40.9785 
        1.06154         160.154         40.4437         40.4437 
        1.06769         159.948         39.9178         39.9178 
        1.07382         158.621          39.403          39.403 
        1.07993         157.218         38.8985         38.8985 
        1.08607         156.253         38.4009         38.4009 
        1.09222         155.474         37.9116         37.9116 
        1.09836         154.046         37.4315         37.4315 
        1.10449         152.799         36.9603         36.9603 
        1.11063         151.742         36.4968         36.4968 
        1.11677         151.395         36.0415         36.0415 
         1.1229         149.777         35.5948         35.5948 
        1.12903         149.002         35.1554         35.1554 
        1.13518          148.72         34.7231         34.7231 
        1.14131         147.156         34.2984         34.2984 
        1.14745         146.553         33.8812         33.8812 
        1.15359         145.467         33.4708         33.4708 
        1.15973         145.032         33.0672         33.0672 
        1.16584         143.457         32.6721         32.6721 
        1.17197         142.873          32.283          32.283 
        1.17811         141.991          31.899          31.899 
        1.18424         141.192         31.5225         31.5225 
        1.19038         140.608         31.1511         31.1511 
        1.19652         139.593         30.7858         30.7858 
        1.20267         138.738         30.4265         30.4265 
        1.20881         137.602          30.073          30.073 
        1.21495         136.964         29.7257         29.7257 
        1.22108         136.266         29.3841         29.3841 
         1.2272         135.087         29.0486         29.0486 
        1.23334          134.43         28.7177         28.7177 
        1.23949         133.054         28.3913         28.3913 
        1.24562         132.699         28.0708         28.0708 
        1.25174         131.263         27.7558         27.7558 
        1.25789         130.833         27.4448         27.4448 
        1.26402         130.227         27.1391         27.1391 
        1.27014         129.261         26.8388         26.8388 
        1.27628         128.592         26.5422         26.5422 
        1.28244         127.924         26.2496         26.2496 
        1.28858         127.395         25.9618         25.9618 
        1.29471         125.983          25.679          25.679 
        1.30084         125.452         25.4007         25.4007 
        1.30697         124.737         25.1261         25.1261 
        1.31312         124.395         24.8553         24.8553 
        1.31925         123.201         24.5893         24.5893 
        1.32537         122.702         24.3275         24.3275 
        1.33151         121.475         24.0686         24.0686 
        1.33765         121.103         23.8136         23.8136 
        1.34378         120.236         23.5629         23.5629 
        1.34992         120.057         23.3157         23.3157 
        1.35606         119.123         23.0715         23.0715 
         1.3622         118.208         22.8313         22.8313 
        1.36833         117.612         22.5951         22.5951 
        1.37445          116.78         22.3624         22.3624 
        1.38059         116.432         22.1323         22.1323 
        1.38675         115.457         21.9049         21.9049 
        1.39288         115.003         21.6816         21.6816 
        1.39901         114.516         21.4616         21.4616 
        1.40515         113.701         21.2441         21.2441 
         1.4113         112.606         21.0298         21.0298 
        1.41742         112.448         20.8193         20.8193 
        1.42355         111.591         20.6113         20.6113 
         1.4297         110.912         20.4055         20.4055 
        1.43585         109.977         20.2026         20.2026 
        1.44198         109.808         20.0033         20.0033 
        1.44809         108.931         19.8071         19.8071 
        1.45423         108.133         19.6128         19.6128 
        1.46036         107.943         19.4215         19.4215 
        1.46649         107.244         19.2327         19.2327 
        1.47263         106.679         19.0463         19.0463 
        1.47877         106.207         18.8625         18.8625 
        1.48491         105.193         18.6808         18.6808 
        1.49104         104.833         18.5019         18.5019 
        1.49718         104.004         18.3253         18.3253 
        1.50333         103.529         18.1507         18.1507 
        1.50947         102.915         17.9787         17.9787 
         1.5156          102.45         17.8092         17.8092 
        1.52172         101.657          17.642          17.642 
        1.52787         101.383         17.4765         17.4765 
          1.534         100.726         17.3134         17.3134 
        1.54013         99.9815         17.1526         17.1526 
        1.54627         99.5165         16.9935         16.9935 
        1.55241         98.9303         16.8365         16.8365 
        1.55855         98.5561         16.6816         16.6816 
        1.56467         97.9102         16.5292         16.5292 
         1.5708         97.2966         16.3782         16.3782 
        1.57695          97.049         16.2289         16.2289 
        1.58308         96.0297         16.0818         16.0818 
        1.58922         95.8969         15.9365         15.9365 
        1.59535         95.3377          15.793          15.793 
         1.6015         94.7641         15.6511         15.6511 
        1.60764         94.1753          15.511          15.511 
        1.61376         93.8644         15.3731         15.3731 
        1.61989         93.1579         15.2367         15.2367 
        1.62604         92.7195         15.1017         15.1017 
        1.63218         92.3124         14.9684         14.9684 
        1.63831         91.5468          14.837          14.837 
        1.64444         91.1675         14.7072         14.7072 
        1.65059         90.5842         14.5786         14.5786 
        1.65673          89.877         14.4518         14.4518 
        1.66285          89.715         14.3268         14.3268 
        1.66898           89.02         14.2032         14.2032 
        1.67512         88.5501         14.0809         14.0809 
        1.68127         88.0483         13.9599         13.9599 
         1.6874          87.556         13.8406         13.8406 
        1.69353         87.0739         13.7228         13.7228 
        1.69967         86.5953         13.6061         13.6061 
        1.70581         86.2288         13.4908         13.4908 
        1.71193         85.9252         13.3773         13.3773 
        1.71806         85.1043         13.2648         13.2648 
        1.72421         84.8036         13.1535         13.1535 
        1.73035         84.2714         13.0435         13.0435 
        1.73649         83.8147         12.9349         12.9349 
        1.74262          83.369         12.8276         12.8276 
        1.74876         83.0329         12.7214         12.7214 
        1.75489         82.3465         12.6167         12.6167 
        1.76101         82.1215         12.5131         12.5131 
        1.76715         81.5385         12.4106         12.4106 
        1.77329         81.1917         12.3092         12.3092 
        1.77943         80.6254         12.2088         12.2088 
        1.78557         80.3587         12.1097         12.1097 
        1.79171         79.8378         12.0118         12.0118 
        1.79785         79.4281         11.9148         11.9148 
        1.80399         79.0323          11.819          11.819 
        1.81012         78.7088         11.7244         11.7244 
        1.81625         78.0512         11.6308         11.6308 
        1.82239         77.7643         11.5382         11.5382 
        1.82853         77.4561         11.4466         11.4466 
        1.83466         76.9116         11.3561         11.3561 
        1.84078         76.6455         11.2666         11.2666 
        1.84692         75.9764          11.178          11.178 
        1.85306         75.6136         11.0903         11.0903 
         1.8592         75.0925         11.0036         11.0036 
        1.86533            74.8         10.9179         10.9179 
        1.87147         74.2266          10.833          10.833 
        1.87761         73.9653          10.749          10.749 
