# k  (h/Mpc)    P(k)  (Mpc/h)^3    P_linear(k)  (Mpc/h)^3     P_NL(k)  ShotnoiseSubtracted = false
     0.00783031         1273.76         1286.46         1286.46 
       0.013688         1626.04         1627.27         1627.27 
       0.019231          1677.9         1677.62         1677.62 
      0.0249154          1570.5          1580.2          1580.2 
      0.0312784         1398.29          1400.1          1400.1 
      0.0375637         1224.59         1221.73         1221.73 
      0.0433917         1084.29         1086.91         1086.91 
      0.0492413          986.81         986.414         986.414 
      0.0555754         902.583         907.641         907.641 
      0.0619321         847.558         844.188         844.188 
       0.067871         783.005         786.349         786.349 
      0.0738098         719.941         723.612         723.612 
      0.0800417         647.747         652.895         652.895 
      0.0862327         580.885         583.102         583.102 
      0.0921407         522.946         523.081         523.081 
      0.0982031         471.006         472.482         472.482 
       0.104506          435.36         432.838         432.838 
       0.110769         406.195         404.431         404.431 
       0.116806         382.816         383.548         383.548 
       0.122832         365.949         364.958         364.958 
       0.129052         343.636         344.872         344.872 
       0.135211         321.488         322.671         322.671 
       0.141259         300.026          299.17          299.17 
       0.147318         277.998         275.667         275.667 
       0.153489         255.135          253.77          253.77 
       0.159709         237.272         235.221         235.221 
       0.165845         224.857         220.781         220.781 
       0.171974         211.703         209.633         209.633 
       0.178125         202.874         200.581         200.581 
       0.184229         195.235         192.424         192.424 
        0.19034         184.618         184.071         184.071 
       0.196428         177.347         175.084         175.084 
       0.202534         169.391         165.489         165.489 
       0.208729         158.855          155.66          155.66 
       0.214876         148.805         146.441         146.441 
       0.220989         142.527          138.29          138.29 
       0.227147          133.99         131.319         131.319 
        0.23329         128.336         125.523         125.523 
       0.239377         123.959         120.619         120.619 
       0.245482         118.243         116.154         116.154 
       0.251667         115.089         111.751         111.751 
       0.257832         110.564         107.269         107.269 
       0.263955         105.959         102.689         102.689 
       0.270079         101.606         98.0853         98.0853 
        0.27624         98.1112         93.6019         93.6019 
       0.282372         93.9116         89.4521         89.4521 
        0.28843          89.794         85.7522         85.7522 
       0.294538          86.369         82.4348         82.4348 
       0.300721         84.1243         79.4373         79.4373 
        0.30691         80.6404         76.6858         76.6858 
       0.313033         78.1021         74.0992         74.0992 
       0.319153          74.554          71.564          71.564 
       0.325316         73.2294         69.0275         69.0275 
        0.33145         70.3986         66.5253         66.5253 
       0.337538         68.2985         64.1044         64.1044 
       0.343633         65.7934         61.7885         61.7885 
       0.349808         63.7724          59.589          59.589 
       0.355968          61.851         57.5581         57.5581 
       0.362074         59.8806         55.6948         55.6948 
       0.368217         58.1214         53.9471         53.9471 
       0.374374          56.284         52.2867         52.2867 
       0.380519          54.863         50.6912         50.6912 
       0.386598         53.3385         49.1554         49.1554 
       0.392688         52.1034         47.6507         47.6507 
        0.39888         50.4855         46.1627         46.1627 
       0.405048         49.2011         44.7325         44.7325 
       0.411186         47.9703         43.3708         43.3708 
       0.417313         46.3467         42.0814         42.0814 
       0.423458         45.1707         40.8575         40.8575 
       0.429607          43.902          39.696          39.696 
       0.435692         42.6193         38.6015         38.6015 
       0.441815         41.8027         37.5443         37.5443 
       0.447964         41.0527         36.5182         36.5182 
       0.454126         39.4893         35.5218         35.5218 
       0.460267         38.6967         34.5592         34.5592 
       0.466387          37.541         33.6302         33.6302 
        0.47254         36.9109         32.7288         32.7288 
       0.478662         36.1838         31.8671         31.8671 
       0.484765         35.1574         31.0435         31.0435 
       0.490885           34.33         30.2511         30.2511 
       0.497035         33.8281         29.4863         29.4863 
       0.503198         32.9498         28.7491         28.7491 
       0.509342          32.129         28.0401         28.0401 
       0.515458         31.3952         27.3569         27.3569 
       0.521598         30.8304         26.6919         26.6919 
       0.527764         30.1352          26.045          26.045 
       0.533884         29.5974         25.4236         25.4236 
           0.54         28.9558         24.8232         24.8232 
       0.546137         28.4352         24.2409         24.2409 
       0.552299         27.9294         23.6759         23.6759 
       0.558452         27.0651         23.1312         23.1312 
       0.564573         26.6934         22.6076         22.6076 
       0.570708         26.2193         22.0998         22.0998 
       0.576825          25.535         21.6094         21.6094 
       0.582926         25.0886         21.1348         21.1348 
       0.589034         24.3855         20.6736         20.6736 
       0.595184         24.0489         20.2229         20.2229 
       0.601379         23.5758         19.7826         19.7826 
       0.607522         23.1792         19.3593         19.3593 
       0.613639         22.9082         18.9505         18.9505 
       0.619772         22.3023         18.5529         18.5529 
       0.625918         22.1406         18.1663         18.1663 
       0.632068         21.7685         17.7907         17.7907 
       0.638161         21.2606         17.4293         17.4293 
         0.6443         20.8289         17.0755         17.0755 
       0.650464         20.4308         16.7304         16.7304 
       0.656582         20.2816         16.3974         16.3974 
       0.662703         19.8986         16.0735         16.0735 
       0.668861         19.5204         15.7566         15.7566 
       0.675024         19.1482         15.4481         15.4481 
       0.681124         18.8206         15.1511         15.1511 
       0.687237         18.5113         14.8614         14.8614 
       0.693381         18.2952          14.578          14.578 
       0.699536         17.8096         14.3017         14.3017 
       0.705665         17.6599         14.0339         14.0339 
       0.711789         17.3258         13.7732         13.7732 
       0.717957         17.0608         13.5176         13.5176 
        0.72409         16.7814         13.2699         13.2699 
       0.730186         16.5626         13.0301         13.0301 
       0.736317         16.3665         12.7949         12.7949 
       0.742472         16.0954         12.5648         12.5648 
       0.748622         15.8679         12.3406         12.3406 
        0.75476         15.5311         12.1225         12.1225 
       0.760888         15.3526           11.91           11.91 
       0.767043         15.1579         11.7018         11.7018 
       0.773185         14.8539         11.4992         11.4992 
       0.779291         14.7435         11.3025         11.3025 
       0.785407         14.5264         11.1102         11.1102 
       0.791564         14.2698         10.9212         10.9212 
       0.797719         14.0096         10.7368         10.7368 
       0.803834         13.9306         10.5579         10.5579 
       0.809972         13.7917         10.3825         10.3825 
       0.816124         13.4646         10.2107         10.2107 
       0.822261         13.3099         10.0433         10.0433 
       0.828378         13.1539         9.88022         9.88022 
       0.834502         13.0192         9.72068         9.72068 
       0.840667         12.8068         9.56367         9.56367 
       0.846816         12.5803         9.41061         9.41061 
       0.852925         12.4632         9.26192         9.26192 
       0.859047         12.3065         9.11616         9.11616 
       0.865192         12.1914          8.9731          8.9731 
       0.871341         12.0598         8.83306         8.83306 
       0.877463         11.8569         8.69668         8.69668 
       0.883569         11.6686         8.56356         8.56356 
       0.889708         11.4776         8.43258         8.43258 
       0.895864         11.4001         8.30404         8.30404 
       0.902008         11.2832         8.17849         8.17849 
       0.908149         11.1495         8.05564         8.05564 
       0.914301         11.0088         7.93514         7.93514 
       0.920448         10.8215         7.81725         7.81725 
       0.926574         10.7041          7.7022          7.7022 
       0.932687         10.6006         7.58974         7.58974 
       0.938823          10.452         7.47915         7.47915 
       0.944975         10.3102         7.37053         7.37053 
       0.951105         10.2206         7.26449         7.26449 
       0.957225         10.1509         7.16074         7.16074 
       0.963368         10.0072         7.05869         7.05869 
       0.969511         9.90522         6.95865         6.95865 
       0.975621         9.78535         6.86111         6.86111 
       0.981748         9.67459         6.76522         6.76522 
       0.987916         9.58181         6.67056         6.67056 
        0.99406         9.43422          6.5781          6.5781 
        1.00019         9.28728         6.48759         6.48759 
        1.00632         9.26473         6.39889         6.39889 
        1.01246         9.15668         6.31173         6.31173 
        1.01859         9.01916         6.22635         6.22635 
        1.02471         8.94774         6.14268         6.14268 
        1.03085         8.85517         6.06027         6.06027 
        1.03698         8.72179         5.97957         5.97957 
        1.04314         8.65957         5.90001         5.90001 
        1.04929           8.543          5.8221          5.8221 
        1.05541         8.44445         5.74592         5.74592 
        1.06154         8.37322         5.67094         5.67094 
        1.06769         8.33042         5.59719         5.59719 
        1.07382         8.19553         5.52501         5.52501 
        1.07993         8.11688         5.45428         5.45428 
        1.08607         8.05382          5.3845          5.3845 
        1.09222         7.97033         5.31589         5.31589 
        1.09836         7.88043         5.24856         5.24856 
        1.10449         7.80366          5.1825          5.1825 
        1.11063         7.72769          5.1175          5.1175 
        1.11677         7.66826         5.05366         5.05366 
         1.1229         7.59681         4.99103         4.99103 
        1.12903         7.51264         4.92942         4.92942 
        1.13518         7.42622         4.86881         4.86881 
        1.14131         7.34328         4.80926         4.80926 
        1.14745         7.26502         4.75075         4.75075 
        1.15359         7.22211         4.69321         4.69321 
        1.15973         7.14825         4.63662         4.63662 
        1.16584         7.05283         4.58122         4.58122 
        1.17197         6.99857         4.52665         4.52665 
        1.17811         6.95517         4.47282         4.47282 
        1.18424         6.89288         4.42003         4.42003 
        1.19038         6.84682         4.36794         4.36794 
        1.19652         6.77101         4.31672         4.31672 
        1.20267         6.68899         4.26634         4.26634 
        1.20881         6.65768         4.21677         4.21677 
        1.21495         6.59783         4.16808         4.16808 
        1.22108         6.51822         4.12018         4.12018 
         1.2272         6.48006         4.07314         4.07314 
        1.23334         6.39266         4.02674         4.02674 
        1.23949         6.34075         3.98097         3.98097 
        1.24562         6.30625         3.93603         3.93603 
        1.25174         6.23696         3.89187         3.89187 
        1.25789         6.19157         3.84825         3.84825 
        1.26402         6.14688         3.80538         3.80538 
        1.27014         6.08683         3.76328         3.76328 
        1.27628         6.02813          3.7217          3.7217 
        1.28244         5.95666         3.68067         3.68067 
        1.28858         5.94299         3.64031         3.64031 
        1.29471         5.87521         3.60066         3.60066 
        1.30084         5.81639         3.56163         3.56163 
        1.30697         5.81254         3.52314         3.52314 
        1.31312         5.69922         3.48515         3.48515 
        1.31925         5.67393         3.44786         3.44786 
        1.32537          5.6234         3.41115         3.41115 
        1.33151         5.60471         3.37485         3.37485 
        1.33765         5.52924          3.3391          3.3391 
        1.34378         5.48707         3.30395         3.30395 
        1.34992         5.45794         3.26928         3.26928 
        1.35606         5.39653         3.23504         3.23504 
         1.3622         5.36851         3.20136         3.20136 
        1.36833          5.3213         3.16824         3.16824 
        1.37445         5.28129         3.13561         3.13561 
        1.38059         5.25976         3.10334         3.10334 
        1.38675         5.21072         3.07146         3.07146 
        1.39288         5.16716         3.04015         3.04015 
        1.39901         5.11047          3.0093          3.0093 
        1.40515         5.08292         2.97881         2.97881 
         1.4113         5.04503         2.94876         2.94876 
        1.41742         5.00751         2.91924         2.91924 
        1.42355         4.96051         2.89007         2.89007 
         1.4297         4.92069         2.86122         2.86122 
        1.43585         4.90162         2.83277         2.83277 
        1.44198         4.87473         2.80483         2.80483 
        1.44809         4.81841         2.77732         2.77732 
        1.45423         4.77954         2.75007         2.75007 
        1.46036         4.74336         2.72325         2.72325 
        1.46649          4.7056         2.69678         2.69678 
        1.47263         4.66742         2.67064         2.67064 
        1.47877         4.63164         2.64486         2.64486 
        1.48491         4.60357         2.61939         2.61939 
        1.49104         4.57384          2.5943          2.5943 
        1.49718         4.53913         2.56953         2.56953 
        1.50333         4.51173         2.54505         2.54505 
        1.50947          4.4733         2.52094         2.52094 
         1.5156         4.44438         2.49718         2.49718 
        1.52172         4.41759         2.47372         2.47372 
        1.52787         4.38877         2.45053         2.45053 
          1.534         4.34901         2.42766         2.42766 
        1.54013         4.32831         2.40511         2.40511 
        1.54627         4.28302          2.3828          2.3828 
        1.55241         4.25381         2.36078         2.36078 
        1.55855         4.23681         2.33907         2.33907 
        1.56467         4.20378         2.31769         2.31769 
         1.5708         4.17419         2.29652         2.29652 
        1.57695         4.13813         2.27559         2.27559 
        1.58308         4.10676         2.25496         2.25496 
        1.58922         4.09348         2.23458         2.23458 
        1.59535          4.0664         2.21446         2.21446 
         1.6015         4.03446         2.19457         2.19457 
        1.60764         4.00635         2.17493         2.17493 
        1.61376         3.98159         2.15558         2.15558 
        1.61989          3.9559         2.13646         2.13646 
        1.62604         3.92509         2.11753         2.11753 
        1.63218         3.91282         2.09884         2.09884 
        1.63831         3.88163         2.08042         2.08042 
        1.64444          3.8548         2.06221         2.06221 
        1.65059         3.81768         2.04419         2.04419 
        1.65673         3.80783          2.0264          2.0264 
        1.66285         3.76899         2.00887         2.00887 
        1.66898         3.75259         1.99155         1.99155 
        1.67512         3.72439         1.97439         1.97439 
        1.68127         3.70283         1.95743         1.95743 
         1.6874         3.68771          1.9407          1.9407 
        1.69353         3.65016         1.92418         1.92418 
        1.69967         3.63348         1.90782         1.90782 
        1.70581         3.61395         1.89165         1.89165 
        1.71193         3.59115         1.87574         1.87574 
        1.71806         3.57108         1.85997         1.85997 
        1.72421         3.54623         1.84436         1.84436 
        1.73035          3.5289         1.82894         1.82894 
        1.73649         3.50212          1.8137          1.8137 
        1.74262         3.47614         1.79866         1.79866 
        1.74876         3.46591         1.78377         1.78377 
        1.75489         3.44417         1.76908         1.76908 
        1.76101         3.41299         1.75457         1.75457 
        1.76715         3.40008          1.7402          1.7402 
        1.77329         3.38286         1.72597         1.72597 
        1.77943         3.34768          1.7119          1.7119 
        1.78557         3.33923         1.69801         1.69801 
        1.79171         3.31755         1.68427         1.68427 
        1.79785         3.29565         1.67068         1.67068 
        1.80399         3.27595         1.65724         1.65724 
        1.81012         3.26055         1.64397         1.64397 
        1.81625         3.23817         1.63085         1.63085 
        1.82239         3.21888         1.61786         1.61786 
        1.82853         3.19795         1.60502         1.60502 
        1.83466         3.18884         1.59233         1.59233 
        1.84078         3.16956         1.57979         1.57979 
        1.84692         3.15312         1.56736         1.56736 
        1.85306         3.12504         1.55506         1.55506 
         1.8592         3.10595         1.54291         1.54291 
        1.86533         3.09059         1.53089         1.53089 
        1.87147         3.07875         1.51899         1.51899 
        1.87761          3.0577         1.50721         1.50721 
