# k  (h/Mpc)    P(k)  (Mpc/h)^3    P_linear(k)  (Mpc/h)^3     P_NL(k)  ShotnoiseSubtracted = false
     0.00783031         1454.47         1462.67         1461.88 
       0.013688         1933.23         1955.81         1949.23 
       0.019231         2101.51         2112.85         2102.34 
      0.0249154         2074.71         2075.39         2067.15 
      0.0312784         1903.84         1909.34            1904 
      0.0375637         1699.47         1707.92         1703.35 
      0.0433917         1537.78         1537.31         1533.55 
      0.0492413         1395.96          1400.8         1397.29 
      0.0555754         1293.15         1292.12         1288.21 
      0.0619321         1196.95         1211.12         1206.95 
       0.067871         1139.82         1145.61         1140.94 
      0.0738098         1074.05         1077.98         1071.85 
      0.0800417         997.126         998.535         992.672 
      0.0862327         908.356         912.083         907.814 
      0.0921407         824.915         828.523         824.821 
      0.0982031          749.66         749.158         747.386 
       0.104506         675.618         679.689         679.488 
       0.110769         623.566         626.415         625.413 
       0.116806          591.32         588.717         587.611 
       0.122832         558.895         560.726         560.052 
       0.129052         536.963         536.866          536.13 
       0.135211         516.075         513.529         512.875 
       0.141259         487.511          487.91          487.86 
       0.147318         455.246         458.812         459.869 
       0.153489         426.343         426.924          426.99 
       0.159709         397.651         395.037         396.444 
       0.165845         364.729         366.405         370.026 
       0.171974          347.36         342.352         345.935 
       0.178125         328.818           323.3         328.406 
       0.184229         311.136         308.811         314.037 
        0.19034         302.491          297.31         302.429 
       0.196428         292.066         287.159         291.189 
       0.202534         277.662           276.8         281.164 
       0.208729         269.351         265.185         269.349 
       0.214876         258.673         252.397         258.144 
       0.220989         241.221         238.935          245.28 
       0.227147         232.707         225.493         231.955 
        0.23329         221.481         213.083         220.941 
       0.239377         212.195         202.379         210.985 
       0.245482         201.982          193.44         201.395 
       0.251667         193.534         186.021         194.748 
       0.257832         189.865         179.787         188.412 
       0.263955         181.651         174.157         182.476 
       0.270079         175.958         168.554         176.628 
        0.27624         168.685         162.619         170.352 
       0.282372         163.174         156.329         164.473 
        0.28843         159.832         149.877         158.177 
       0.294538         152.589         143.416         152.272 
       0.300721         145.505          137.22         146.784 
        0.30691         141.952         131.606         141.404 
       0.313033         136.342         126.721         136.352 
       0.319153         133.806         122.476         132.646 
       0.325316         128.157         118.686         129.221 
        0.33145         124.498         115.209          125.19 
       0.337538         121.211         111.854         121.609 
       0.343633         117.878         108.467           118.4 
       0.349808          114.22         104.952         115.136 
       0.355968         110.673         101.392         112.298 
       0.362074         108.283         97.8932         108.614 
       0.368217         105.117         94.5002          104.69 
       0.374374         102.853         91.3201         102.072 
       0.380519         98.4379         88.4046         99.0088 
       0.386598         95.8134         85.7808         96.5365 
       0.392688         93.2076          83.371         94.2875 
        0.39888         91.4949         81.0773         91.7053 
       0.405048         89.4264          78.887         89.4774 
       0.411186         87.2534         76.7442         87.8806 
       0.417313         84.9458         74.6111          85.234 
       0.423458         82.6294         72.4842         83.3024 
       0.429607         81.2324         70.3819          81.081 
       0.435692         79.7065         68.3595         79.3057 
       0.441815         76.8218         66.4156         77.8474 
       0.447964         74.6043         64.5725         75.7285 
       0.454126          73.306         62.8376         73.8376 
       0.460267         72.6586         61.2173         72.4991 
       0.466387         70.6679         59.6885         70.7357 
        0.47254          69.697         58.2122         69.3997 
       0.478662         67.5695         56.7849         67.8635 
       0.484765         66.2677         55.3929         66.3476 
       0.490885         64.4986         54.0195         65.3665 
       0.497035         63.5873         52.6632         64.1215 
       0.503198         62.0555         51.3397         62.4383 
       0.509342         60.5166         50.0657         61.3631 
       0.515458         59.7999         48.8482         60.5205 
       0.521598         58.3998          47.678         58.8348 
       0.527764         57.6975         46.5561         57.4888 
       0.533884          56.455          45.492         56.4955 
           0.54         55.3037         44.4689         55.4562 
       0.546137         53.7253         43.4737         54.6695 
       0.552299         52.9078          42.499         53.3916 
       0.558452         51.8929         41.5496         52.3822 
       0.564573         51.4508         40.6283         51.7521 
       0.570708         50.0494         39.7285          50.796 
       0.576825         49.4301         38.8559         49.8887 
       0.582926         48.6327         38.0118         49.0908 
       0.589034         47.7361         37.1947         48.3699 
       0.595184         47.1062         36.4016         47.3239 
       0.601379         45.8577         35.6319          46.755 
       0.607522         45.2435         34.8939         45.7955 
       0.613639         44.5272         34.1808         45.0663 
       0.619772         43.8305         33.4849           44.41 
       0.625918         42.9672         32.8048         43.8052 
       0.632068         42.6376         32.1417         42.9517 
       0.638161         41.7565         31.5019         42.2973 
         0.6443         41.1747         30.8746         41.5538 
       0.650464          40.178         30.2624          41.059 
       0.656582         39.9576         29.6717         40.4588 
       0.662703         39.5083         29.0972         39.7536 
       0.668861         38.5079         28.5353          39.293 
       0.675024         38.0944         27.9886         38.5702 
       0.681124         37.7994         27.4625           38.02 
       0.687237         37.0759         26.9496         37.3874 
       0.693381         36.3556         26.4478         36.8743 
       0.699536         36.2103         25.9582          36.433 
       0.705665         35.5485         25.4832         36.0421 
       0.711789         34.9263         25.0203         35.3805 
       0.717957         34.2651         24.5655         34.9279 
        0.72409         33.9898         24.1243         34.5339 
       0.730186         33.8091         23.6966          33.992 
       0.736317         33.1495          23.277         33.5268 
       0.742472         32.7481         22.8661         33.2525 
       0.748622         32.2327         22.4658         32.6875 
        0.75476         31.4735         22.0762         32.2526 
       0.760888          31.368         21.6968         31.8925 
       0.767043         30.8569         21.3251         31.5638 
       0.773185         30.5752         20.9631         31.1482 
       0.779291         30.2865         20.6118         30.8071 
       0.785407         29.7624         20.2681         30.3779 
       0.791564          29.577         19.9302         30.0163 
       0.797719         28.9834         19.6003         29.6088 
       0.803834         28.8409         19.2799         29.2156 
       0.809972         28.3223         18.9657         28.9991 
       0.816124         28.0285         18.6578         28.5613 
       0.822261         27.7275         18.3577         28.1874 
       0.828378         27.4296         18.0651         27.8752 
       0.834502         27.1685         17.7788         27.6717 
       0.840667         26.8941         17.4969           27.26 
       0.846816         26.3273         17.2219         27.0051 
       0.852925         26.2491         16.9547         26.8571 
       0.859047         25.9307         16.6927         26.4036 
       0.865192         25.5859         16.4355         26.1205 
       0.871341         25.2589         16.1836         25.9055 
       0.877463         25.0354         15.9381         25.5778 
       0.883569         24.8912         15.6985         25.3644 
       0.889708         24.4932         15.4626         25.0388 
       0.895864         24.2043         15.2311         24.7535 
       0.902008         23.9078         15.0048         24.5398 
       0.908149         23.6457         14.7833         24.3021 
       0.914301           23.54          14.566         24.1288 
       0.920448          23.179         14.3534         23.7672 
       0.926574         23.0042         14.1457         23.5317 
       0.932687         22.7204         13.9427         23.2313 
       0.938823         22.4536          13.743         23.0642 
       0.944975         22.2586         13.5468         22.8152 
       0.951105         22.0243         13.3551         22.5272 
       0.957225         21.9069         13.1676         22.4388 
       0.963368         21.5818          12.983         22.1509 
       0.969511         21.3765         12.8021         21.9815 
       0.975621         21.1727         12.6256         21.7229 
       0.981748         20.9108          12.452         21.5683 
       0.987916         20.7746         12.2806         21.3372 
        0.99406         20.5843         12.1131          21.146 
        1.00019         20.4036         11.9492         20.9795 
        1.00632         20.2176         11.7884         20.7957 
        1.01246         20.0547         11.6304          20.674 
        1.01859         19.8017         11.4756         20.4211 
        1.02471         19.5913         11.3238         20.1951 
        1.03085         19.5281         11.1743         20.0478 
        1.03698         19.3339         11.0278         19.8825 
        1.04314         19.1085         10.8833         19.6696 
        1.04929         18.8747         10.7419         19.5329 
        1.05541         18.8105         10.6035         19.3914 
        1.06154         18.6545         10.4672         19.1882 
        1.06769         18.5099         10.3332         19.0369 
        1.07382         18.2254          10.202         18.8958 
        1.07993         18.0767         10.0734         18.7333 
        1.08607         18.0012         9.94646         18.5473 
        1.09222         17.7779         9.82163         18.4065 
        1.09836         17.7226         9.69912         18.2298 
        1.10449         17.4708         9.57886         18.0837 
        1.11063         17.4035         9.46054         17.9676 
        1.11677         17.2877         9.34428         17.7957 
         1.1229         17.1242         9.23019         17.6758 
        1.12903         17.0135         9.11794         17.5863 
        1.13518         16.7707         9.00748         17.4203 
        1.14131         16.6947         8.89893         17.2611 
        1.14745         16.4681         8.79225         17.0934 
        1.15359         16.3567         8.68731         16.9873 
        1.15973          16.215         8.58407         16.8601 
        1.16584         16.0961         8.48298         16.7872 
        1.17197         15.9574          8.3834         16.6405 
        1.17811         15.8271         8.28512         16.4793 
        1.18424         15.7253         8.18872         16.3786 
        1.19038          15.637          8.0936         16.2456 
        1.19652          15.501         8.00003         16.1285 
        1.20267         15.3834         7.90797         15.9878 
        1.20881         15.2329         7.81738         15.9374 
        1.21495         15.1098         7.72837         15.7979 
        1.22108         15.0699         7.64078         15.6846 
         1.2272         14.9299         7.55476         15.5363 
        1.23334          14.853         7.46989         15.4594 
        1.23949         14.7109         7.38613          15.352 
        1.24562         14.5841          7.3039         15.2183 
        1.25174         14.5053         7.22306         15.1298 
        1.25789         14.3378          7.1432         15.0174 
        1.26402         14.3011         7.06471         14.8853 
        1.27014         14.2166         6.98759         14.8055 
        1.27628         14.0339         6.91141         14.7148 
        1.28244         14.0279         6.83622         14.6422 
        1.28858         13.9028         6.76227         14.5098 
        1.29471         13.7145         6.68958         14.4143 
        1.30084          13.643         6.61804         14.3591 
        1.30697         13.6225         6.54745         14.2336 
        1.31312         13.4739          6.4778         14.1472 
        1.31925         13.4007         6.40938          14.083 
        1.32537         13.3141         6.34204          13.993 
        1.33151         13.2117         6.27543         13.8821 
        1.33765         13.1128         6.20982         13.7758 
        1.34378         13.0873         6.14529         13.7146 
        1.34992         12.9563         6.08165         13.6224 
        1.35606         12.8526         6.01877         13.5069 
         1.3622         12.7573         5.95691         13.4316 
        1.36833         12.7011         5.89607         13.3931 
        1.37445           12.62         5.83612         13.2837 
        1.38059         12.5525         5.77683         13.1845 
        1.38675         12.4504         5.71822         13.1263 
        1.39288         12.3382         5.66067         13.0341 
        1.39901         12.2779         5.60395         12.9682 
        1.40515         12.1915         5.54788         12.8928 
         1.4113         12.1032         5.49261         12.8093 
        1.41742         12.0529          5.4383         12.7323 
        1.42355         11.9409         5.38464         12.6466 
         1.4297         11.9014         5.33155         12.5926 
        1.43585         11.8294          5.2792         12.5291 
        1.44198         11.7522         5.22775         12.4284 
        1.44809         11.6885          5.1771         12.3819 
        1.45423         11.5879         5.12694         12.3036 
        1.46036         11.5364         5.07754         12.2245 
        1.46649         11.4582         5.02878         12.1605 
        1.47263         11.4022         4.98063         12.1024 
        1.47877          11.324         4.93313         12.0341 
        1.48491         11.2691         4.88618         11.9501 
        1.49104         11.1712         4.83995         11.8904 
        1.49718         11.1411         4.79429         11.8268 
        1.50333         11.0586         4.74915         11.7678 
        1.50947           10.97         4.70468         11.7085 
         1.5156         10.9508         4.66086          11.642 
        1.52172         10.8803          4.6176         11.5701 
        1.52787         10.8101          4.5748          11.494 
          1.534         10.7532          4.5326         11.4342 
        1.54013         10.6959         4.49098         11.3721 
        1.54627         10.6289         4.44982         11.3169 
        1.55241         10.5408         4.40917         11.2675 
        1.55855          10.528         4.36908         11.1996 
        1.56467         10.4397         4.32961         11.1467 
         1.5708         10.3968         4.29052         11.1041 
        1.57695         10.3139         4.25186         11.0408 
        1.58308         10.2475         4.21376         10.9804 
        1.58922         10.2103         4.17611         10.9334 
        1.59535         10.1428         4.13894         10.8653 
         1.6015         10.0664         4.10217         10.8019 
        1.60764         10.0419         4.06588         10.7578 
        1.61376          10.002         4.03012         10.7139 
        1.61989         9.90015         3.99477         10.6619 
        1.62604         9.87775         3.95976          10.604 
        1.63218         9.82653         3.92521         10.5505 
        1.63831         9.77276         3.89114         10.5017 
        1.64444         9.69273         3.85747         10.4451 
        1.65059         9.64687         3.82413         10.3881 
        1.65673         9.61813         3.79121         10.3422 
        1.66285          9.5649         3.75878         10.2991 
        1.66898         9.50134         3.72672         10.2503 
        1.67512         9.44619         3.69497         10.2045 
        1.68127         9.38804         3.66357         10.1501 
         1.6874         9.36192          3.6326         10.0962 
        1.69353         9.29853         3.60202          10.055 
        1.69967         9.25669         3.57171         10.0037 
        1.70581         9.18849         3.54177         9.96092 
        1.71193         9.17698         3.51229         9.92499 
        1.71806         9.13037         3.48309         9.87481 
        1.72421         9.05565         3.45416         9.82955 
        1.73035         9.01425          3.4256         9.77841 
        1.73649         8.97966         3.39736         9.72359 
        1.74262          8.9088         3.36947         9.69027 
        1.74876         8.90218         3.34188         9.65206 
        1.75489         8.84515         3.31466         9.59978 
        1.76101         8.78285         3.28775         9.54574 
        1.76715          8.7662          3.2611         9.50823 
        1.77329         8.72287         3.23472         9.47147 
        1.77943         8.65372         3.20862         9.42956 
        1.78557         8.63971         3.18285         9.38714 
        1.79171         8.59961         3.15736         9.34106 
        1.79785         8.55037         3.13215         9.29502 
        1.80399         8.47534         3.10722         9.25709 
        1.81012         8.46062          3.0826         9.23228 
        1.81625         8.40781         3.05825         9.19854 
        1.82239          8.3662         3.03414         9.15076 
        1.82853         8.32287          3.0103         9.10958 
        1.83466         8.27048         2.98673         9.07992 
        1.84078          8.2497         2.96345         9.04485 
        1.84692         8.21153         2.94038         8.98534 
        1.85306         8.17447         2.91753          8.9469 
         1.8592         8.14833         2.89496         8.92545 
        1.86533         8.10727         2.87264         8.88422 
        1.87147         8.05126         2.85053         8.83961 
        1.87761         8.03761         2.82865         8.80233 
