# k  (h/Mpc)    P(k)  (Mpc/h)^3    P_linear(k)  (Mpc/h)^3     P_NL(k)  ShotnoiseSubtracted = false
     0.00783031         8368.33         8402.06         8395.14 
       0.013688         10989.4         11231.8         11174.8 
       0.019231           11976         12131.9         12034.7 
      0.0249154         11897.6         11915.8         11804.8 
      0.0312784         10831.1         10961.8         10836.6 
      0.0375637         9616.35            9805          9674.8 
      0.0433917         8738.31         8825.31         8682.54 
      0.0492413         7890.39          8041.5         7896.71 
      0.0555754         7318.56         7417.49         7272.19 
      0.0619321         6669.31         6952.44         6801.44 
       0.067871          6384.9         6576.32         6426.13 
      0.0738098         6036.89         6188.09         5998.85 
      0.0800417         5598.75         5731.99         5548.25 
      0.0862327         5091.32          5235.7          5095.2 
      0.0921407         4636.36         4756.02         4623.95 
      0.0982031         4244.51         4300.42         4218.88 
       0.104506         3812.25         3901.64         3862.58 
       0.110769         3529.83         3595.81         3538.53 
       0.116806         3378.83         3379.41         3322.79 
       0.122832         3179.33         3218.73          3174.6 
       0.129052         3042.11         3081.76          3040.2 
       0.135211         2954.66          2947.8         2906.57 
       0.141259         2768.72         2800.74         2780.12 
       0.147318         2574.63          2633.7         2634.38 
       0.153489          2433.2         2450.65         2430.63 
       0.159709         2319.06         2267.61         2281.18 
       0.165845         2115.56         2103.26         2167.92 
       0.171974         2055.39         1965.19         2037.04 
       0.178125         1977.73         1855.82         1964.86 
       0.184229         1835.63         1772.65         1876.82 
        0.19034         1807.28         1706.63         1812.82 
       0.196428          1758.3         1648.36          1739.6 
       0.202534         1657.43          1588.9         1688.87 
       0.208729         1628.08         1522.22         1611.62 
       0.214876          1565.6         1448.82         1568.85 
       0.220989         1474.49         1371.54         1509.54 
       0.227147         1439.24         1294.38         1444.07 
        0.23329         1383.62         1223.14         1397.61 
       0.239377         1363.82          1161.7         1344.49 
       0.245482         1298.67         1110.39          1285.2 
       0.251667          1251.2          1067.8         1257.74 
       0.257832         1238.13         1032.01         1220.33 
       0.263955         1180.01           999.7         1186.59 
       0.270079         1149.05         967.535         1154.42 
        0.27624         1102.08          933.47         1118.96 
       0.282372         1085.41         897.359         1089.58 
        0.28843         1074.29         860.328          1056.8 
       0.294538         1022.06         823.236         1028.71 
       0.300721         996.327         787.672         1000.04 
        0.30691         978.867         755.443         980.765 
       0.313033         939.961         727.402         950.193 
       0.319153         927.176         703.036          927.36 
       0.325316             914         681.283          913.61 
        0.33145         896.932         661.322         883.011 
       0.337538          866.82         642.064         866.645 
       0.343633         844.059         622.625         856.806 
       0.349808         826.385         602.449         840.206 
       0.355968         811.837         582.012         824.494 
       0.362074         787.726         561.927         805.401 
       0.368217         784.087          542.45         782.497 
       0.374374          771.45         524.196          768.71 
       0.380519         743.623          507.46         752.604 
       0.386598         736.928         492.399         742.359 
       0.392688          722.58         478.567         725.699 
        0.39888         704.051           465.4         715.789 
       0.405048         693.303         452.827         708.167 
       0.411186         690.307         440.527         690.484 
       0.417313          684.68         428.282          676.82 
       0.423458         663.943         416.074         666.922 
       0.429607          647.14         404.006         653.105 
       0.435692         638.823         392.397          642.07 
       0.441815          629.09         381.239           637.8 
       0.447964         617.877         370.659         626.566 
       0.454126         610.516           360.7         612.007 
       0.460267         601.353           351.4         609.592 
       0.466387          593.22         342.624         598.003 
        0.47254         583.606          334.15         591.297 
       0.478662         572.527         325.957         581.194 
       0.484765         567.692         317.966         570.524 
       0.490885         561.931         310.083         563.131 
       0.497035         551.667         302.297         557.716 
       0.503198         550.881           294.7         549.543 
       0.509342         538.582         287.387         543.003 
       0.515458         529.939         280.399          539.59 
       0.521598         522.941         273.681         530.586 
       0.527764         514.374         267.241         523.678 
       0.533884         512.535         261.133         517.888 
           0.54         505.728          255.26         511.373 
       0.546137         496.357         249.547         505.542 
       0.552299         495.649         243.953         498.849 
       0.558452         488.428         238.503         494.133 
       0.564573          482.81         233.215         489.923 
       0.570708         478.516          228.05           485.6 
       0.576825         469.675          223.04         477.114 
       0.582926         466.489         218.195         472.018 
       0.589034         460.491         213.505         466.098 
       0.595184         457.103         208.953         460.756 
       0.601379         449.595         204.534         457.922 
       0.607522         442.755         200.298         452.888 
       0.613639         440.647         196.205          448.95 
       0.619772         438.628          192.21         446.865 
       0.625918         431.792         188.306          441.64 
       0.632068         426.932         184.499         435.787 
       0.638161          422.76         180.827         431.669 
         0.6443         419.742         177.226         428.661 
       0.650464         414.265         173.712          421.74 
       0.656582         410.451         170.321         418.193 
       0.662703         407.374         167.024         416.835 
       0.668861         401.886         163.798         412.824 
       0.675024         398.998          160.66         408.887 
       0.681124         394.971          157.64         403.343 
       0.687237         391.764         154.696         399.862 
       0.693381         387.721         151.816         396.664 
       0.699536         383.974         149.005         394.068 
       0.705665         380.201         146.278         390.897 
       0.711789         378.756         143.621         387.071 
       0.717957         373.291          141.01         384.598 
        0.72409          370.15         138.478         381.919 
       0.730186         371.596         136.023         378.788 
       0.736317         364.908         133.614         374.635 
       0.742472         360.773         131.256         371.257 
       0.748622         357.039         128.958          368.11 
        0.75476         356.576         126.722         367.237 
       0.760888          352.84         124.544          362.81 
       0.767043         349.723          122.41         360.614 
       0.773185         347.985         120.332         357.809 
       0.779291         342.447         118.315          354.48 
       0.785407         341.443         116.343         352.139 
       0.791564         337.823         114.403         349.744 
       0.797719         333.042         112.509         347.268 
       0.803834         335.549         110.671         344.855 
       0.809972         330.882         108.867         342.278 
       0.816124         327.147         107.099         338.833 
       0.822261         323.679         105.377         336.812 
       0.828378         323.731         103.697         334.107 
       0.834502         318.609         102.054         332.555 
       0.840667         318.399         100.435         330.119 
       0.846816         313.638         98.8572         327.844 
       0.852925         312.891         97.3234         325.225 
       0.859047         309.524         95.8194         323.095 
       0.865192         309.378         94.3428         321.109 
       0.871341         304.952         92.8967         318.765 
       0.877463         302.057         91.4879         316.971 
       0.883569         301.128         90.1124         315.071 
       0.889708         298.604         88.7585         312.411 
       0.895864         296.418         87.4293         310.677 
       0.902008         294.144         86.1305         308.207 
       0.908149          291.79         84.8592         305.566 
       0.914301          290.28         83.6118          304.43 
       0.920448         288.556          82.391         301.405 
       0.926574         286.318         81.1992         299.586 
       0.932687         284.167         80.0337         297.115 
       0.938823         281.847         78.8873         296.718 
       0.944975         280.161          77.761         295.146 
       0.951105         277.791          76.661         292.826 
       0.957225         275.486         75.5845         290.647 
       0.963368          274.75         74.5252         288.233 
       0.969511         270.328         73.4864         286.638 
       0.975621         269.743         72.4732         286.059 
       0.981748         267.912         71.4768         283.753 
       0.987916          266.52          70.493         282.404 
        0.99406         264.154         69.5317         280.807 
        1.00019         262.476         68.5904         278.248 
        1.00632         261.833         67.6676         276.106 
        1.01246         259.664         66.7606         274.398 
        1.01859         256.668         65.8719         273.378 
        1.02471         254.748         65.0007         272.235 
        1.03085         254.162         64.1424         270.473 
        1.03698         251.917         63.3016          269.05 
        1.04314         251.508         62.4725         267.214 
        1.04929         249.502         61.6603         265.265 
        1.05541         247.332          60.866         263.818 
        1.06154          245.77          60.084         262.426 
        1.06769         243.295         59.3146         261.081 
        1.07382          243.26         58.5613         259.252 
        1.07993         240.563          57.823         257.937 
        1.08607         238.583         57.0945         256.796 
        1.09222         237.638          56.378         255.156 
        1.09836          236.33         55.6748         254.174 
        1.10449         234.079         54.9845         252.351 
        1.11063         232.534         54.3053         250.733 
        1.11677         231.669         53.6379         249.358 
         1.1229         229.617         52.9831         248.237 
        1.12903         228.965         52.3387         246.995 
        1.13518         227.145         51.7046         245.416 
        1.14131         226.078         51.0815          244.03 
        1.14745         223.479         50.4692          242.72 
        1.15359         221.563         49.8668         241.292 
        1.15973         221.188         49.2742         239.768 
        1.16584         220.287         48.6939         238.011 
        1.17197         218.578         48.1223         236.932 
        1.17811         216.524         47.5581         236.285 
        1.18424         215.336         47.0048         234.831 
        1.19038          213.99         46.4588         233.605 
        1.19652          212.04         45.9217         232.764 
        1.20267         211.381         45.3932         230.971 
        1.20881         209.661         44.8732         230.293 
        1.21495         209.167         44.3623          228.23 
        1.22108         207.392         43.8595         227.636 
         1.2272         205.718         43.3658         225.705 
        1.23334         204.935         42.8786         224.957 
        1.23949         204.207         42.3978         224.241 
        1.24562         202.519         41.9258         222.551 
        1.25174         200.901         41.4617         221.804 
        1.25789         199.591         41.0033         220.506 
        1.26402         199.196         40.5527         218.982 
        1.27014         197.836         40.1101         218.663 
        1.27628         195.482         39.6728         217.794 
        1.28244         194.969         39.2412         215.947 
        1.28858         193.701         38.8167         214.813 
        1.29471         192.599         38.3995         213.857 
        1.30084         191.316         37.9888         212.756 
        1.30697         190.141         37.5836          211.71 
        1.31312          188.85         37.1838         210.147 
        1.31925         187.432         36.7911         209.153 
        1.32537         186.959         36.4045         208.469 
        1.33151         185.507         36.0221         207.374 
        1.33765           183.8         35.6455         206.239 
        1.34378         183.483         35.2751         205.035 
        1.34992         182.455         34.9098         204.066 
        1.35606         181.144         34.5489         202.764 
         1.3622         180.452         34.1938          201.87 
        1.36833         178.347         33.8445         200.903 
        1.37445         178.162         33.5004         199.613 
        1.38059         176.644         33.1601         199.046 
        1.38675         175.671         32.8237         197.911 
        1.39288         174.482         32.4933         196.623 
        1.39901         173.402         32.1677          196.06 
        1.40515         172.534         31.8459         195.246 
         1.4113         171.523         31.5286         194.114 
        1.41742         170.039         31.2169         193.291 
        1.42355         170.018         30.9088         192.681 
         1.4297         168.375         30.6041         191.423 
        1.43585         167.245         30.3036          190.39 
        1.44198         165.724         30.0083         189.476 
        1.44809         164.745         29.7175          188.47 
        1.45423         164.462         29.4296          187.52 
        1.46036         163.202          29.146         186.637 
        1.46649         162.063         28.8661         185.999 
        1.47263         161.507         28.5897         185.381 
        1.47877         160.181         28.3171         184.235 
        1.48491         159.013         28.0476         183.318 
        1.49104         157.359         27.7822         182.635 
        1.49718          157.41         27.5201         181.178 
        1.50333         156.427          27.261         180.503 
        1.50947         155.446         27.0057          179.79 
         1.5156          154.33         26.7542         178.867 
        1.52172         153.447         26.5059         178.204 
        1.52787         152.681         26.2602         177.148 
          1.534         151.865          26.018         176.238 
        1.54013         150.916         25.7791         175.537 
        1.54627         149.885         25.5428           174.8 
        1.55241          148.98         25.3094         173.959 
        1.55855         148.218         25.0793         172.929 
        1.56467         147.014         24.8528         172.064 
         1.5708         146.251         24.6284         171.656 
        1.57695         145.584         24.4064         170.839 
        1.58308         144.618         24.1878          169.68 
        1.58922         144.044         23.9717         168.966 
        1.59535         143.266         23.7583         168.239 
         1.6015         141.608         23.5472         167.418 
        1.60764         140.953         23.3389         166.657 
        1.61376         140.209         23.1336         166.041 
        1.61989         139.527         22.9307         165.358 
        1.62604         138.603         22.7298         164.434 
        1.63218         137.985         22.5314         163.626 
        1.63831         136.843         22.3359         162.965 
        1.64444         136.082         22.1426         162.115 
        1.65059         135.176         21.9512         161.426 
        1.65673         134.641         21.7623         160.679 
        1.66285         134.148         21.5761         159.944 
        1.66898         132.787         21.3921         159.335 
        1.67512         132.325         21.2098         158.628 
        1.68127         131.266         21.0296         157.849 
         1.6874         130.599         20.8518         157.156 
        1.69353         129.709         20.6762         156.564 
        1.69967         129.093         20.5023         155.686 
        1.70581          128.57         20.3304         154.912 
        1.71193         127.488         20.1612         154.288 
        1.71806         126.722         19.9936         153.498 
        1.72421         126.063         19.8275         152.837 
        1.73035         125.397         19.6636         152.161 
        1.73649         124.406         19.5015         151.442 
        1.74262         123.903         19.3414         150.915 
        1.74876         122.943          19.183          150.16 
        1.75489         122.422         19.0267         149.316 
        1.76101          121.69         18.8723         148.624 
        1.76715         120.645         18.7193         147.979 
        1.77329         120.295         18.5679         147.376 
        1.77943         119.226         18.4181          146.79 
        1.78557         118.767         18.2702         146.193 
        1.79171         118.134         18.1239         145.637 
        1.79785         117.168         17.9791          145.03 
        1.80399         116.791          17.836         144.283 
        1.81012         115.818         17.6947         143.567 
        1.81625         115.362         17.5549         142.982 
        1.82239         114.772         17.4165         142.426 
        1.82853         114.157         17.2796         141.751 
        1.83466         113.122         17.1444         141.038 
        1.84078         112.524         17.0107          140.44 
        1.84692         112.247         16.8783         140.024 
        1.85306         111.396         16.7471         139.367 
         1.8592         110.875         16.6176         138.699 
        1.86533             110         16.4895         138.245 
        1.87147         109.416         16.3626         137.339 
        1.87761          108.81          16.237         136.583 
