# k  (h/Mpc)    Pcb(k)  (Mpc/h)^3    Pcb_linear(k) (Mpc/h)^3    Pcb_NL(k) (Mpc/h)^3   ShotnoiseSubtracted = false
     0.00783031         5905.31         5931.36         5927.66 
       0.013688         7781.91         7929.61         7894.51 
       0.019231         8475.74         8565.44         8506.28 
      0.0249154         8407.02         8413.05         8350.98 
      0.0312784         7672.11         7739.58         7675.19 
      0.0375637         6822.37         6922.91         6857.01 
      0.0433917         6193.79         6231.24         6160.67 
      0.0492413         5600.84         5677.84         5606.77 
      0.0555754         5195.95         5237.27         5165.29 
      0.0619321         4754.68         4908.93         4833.79 
       0.067871          4547.6         4643.37         4567.86 
      0.0738098         4294.98         4369.26         4273.77 
      0.0800417          3986.3         4047.22         3954.46 
      0.0862327         3625.78         3696.81         3626.31 
      0.0921407         3298.17         3358.12         3291.92 
      0.0982031         3012.94         3036.43         2996.75 
       0.104506         2706.95         2754.86         2737.15 
       0.110769         2504.05         2538.93         2510.88 
       0.116806         2392.68         2386.14         2358.44 
       0.122832         2251.45         2272.68         2251.65 
       0.129052          2159.1         2175.97         2155.82 
       0.135211         2090.89         2081.38         2061.97 
       0.141259         1963.65         1977.55          1968.3 
       0.147318         1825.64         1859.61          1862.9 
       0.153489         1721.21         1730.36          1721.3 
       0.159709         1630.14         1601.12         1610.13 
       0.165845         1487.01         1485.07         1522.33 
       0.171974         1439.87         1387.58         1427.36 
       0.178125         1378.05         1310.36          1370.6 
       0.184229         1285.18         1251.63         1310.49 
        0.19034         1260.86         1205.02         1264.19 
       0.196428         1224.18         1163.87          1212.8 
       0.202534         1153.83         1121.89         1175.61 
       0.208729         1131.88         1074.81         1123.35 
       0.214876         1089.22         1022.98         1089.95 
       0.220989         1018.99         968.419         1044.56 
       0.227147         994.328         913.939         994.827 
        0.23329         954.617          863.64         959.791 
       0.239377         933.233         820.257         922.324 
       0.245482         886.901         784.024         880.227 
       0.251667         853.507         753.953         859.233 
       0.257832         845.379         728.687         832.904 
       0.263955          803.37         705.871           808.5 
       0.270079           780.2         683.161         785.116 
        0.27624         748.028         659.108         759.349 
       0.282372         733.016          633.61         736.989 
        0.28843         727.122         607.463         712.186 
       0.294538         690.961         581.273         692.412 
       0.300721         668.631         556.162         673.167 
        0.30691         658.027         533.406         656.483 
       0.313033         631.196         513.609         634.824 
       0.319153         620.893         496.401         620.025 
       0.325316         608.395         481.042         609.284 
        0.33145         595.984         466.949         588.741 
       0.337538         576.064          453.35         575.444 
       0.343633         559.243         439.624         567.436 
       0.349808         545.933          425.38         555.492 
       0.355968          535.48         410.949         544.059 
       0.362074         520.976         396.767         530.222 
       0.368217         515.912         383.016         513.901 
       0.374374         505.881         370.125         503.895 
       0.380519         486.494          358.31         492.281 
       0.386598         480.177         347.674         483.808 
       0.392688         470.672         337.908         473.894 
        0.39888         458.658         328.611         464.735 
       0.405048         451.484         319.734         459.557 
       0.411186         448.325         311.049         448.078 
       0.417313         441.089         302.403         436.924 
       0.423458         428.964         293.782         429.685 
       0.429607         419.694         285.262         421.124 
       0.435692         411.958         277.065         413.501 
       0.441815         405.732         269.186         409.828 
       0.447964         396.067         261.716         401.616 
       0.454126         390.644         254.686         392.135 
       0.460267         385.474         248.117         389.284 
       0.466387          379.32         241.921          381.75 
        0.47254         374.435         235.937         376.506 
       0.478662         364.574         230.153         369.612 
       0.484765         360.934          224.51         361.595 
       0.490885         357.039         218.945         357.479 
       0.497035         351.699         213.447         353.524 
       0.503198         348.927         208.083         347.841 
       0.509342         339.768         202.919         343.686 
       0.515458         336.126         197.985         341.062 
       0.521598          329.28         193.242         334.143 
       0.527764         325.315         188.695         328.615 
       0.533884         324.879         184.382         324.996 
           0.54         318.411         180.235         320.877 
       0.546137         311.512         176.201         317.503 
       0.552299         310.513         172.251         312.309 
       0.558452         305.408         168.403         308.472 
       0.564573         302.841         164.669         305.845 
       0.570708         297.713         161.022         302.173 
       0.576825         293.148         157.485         296.723 
       0.582926         290.201         154.064         293.282 
       0.589034          286.74         150.752         290.415 
       0.595184         284.882         147.538         285.884 
       0.601379         279.168         144.418         284.801 
       0.607522         274.958         141.427         280.806 
       0.613639          272.92         138.537         277.855 
       0.619772         270.891         135.716         274.625 
       0.625918         268.127          132.96         272.504 
       0.632068         262.867         130.272         268.002 
       0.638161         260.151         127.679           266.6 
         0.6443         259.174         125.136         263.515 
       0.650464         254.773         122.655         259.176 
       0.656582         252.951         120.261         257.308 
       0.662703         250.938         117.933         254.987 
       0.668861         246.523         115.655         252.405 
       0.675024         246.081         113.439         249.361 
       0.681124          242.79         111.307         247.255 
       0.687237          239.87         109.228         244.397 
       0.693381          238.27         107.195         242.077 
       0.699536         235.276          105.21         240.222 
       0.705665         232.503         103.285         238.964 
       0.711789         230.334         101.409         235.242 
       0.717957         227.899         99.5652         233.516 
        0.72409          226.42         97.7771         232.595 
       0.730186         226.041         96.0436         230.208 
       0.736317         222.291         94.3428         227.523 
       0.742472         219.498         92.6775         225.573 
       0.748622         216.492          91.055          223.21 
        0.75476         217.007         89.4761         221.563 
       0.760888         214.719         87.9384         218.989 
       0.767043         211.816         86.4318         217.918 
       0.773185         209.844         84.9646         216.596 
       0.779291         207.365         83.5406         214.488 
       0.785407         205.888         82.1478         212.136 
       0.791564         204.423         80.7783         210.815 
       0.797719         201.985          79.441         209.544 
       0.803834         201.831         78.1427         207.137 
       0.809972         200.623          76.869         205.744 
       0.816124         198.002         75.6212         204.512 
       0.822261         195.761         74.4047         202.661 
       0.828378         195.879         73.2189         200.322 
       0.834502         192.323         72.0583         199.756 
       0.840667         191.915         70.9157         198.694 
       0.846816           190.1         69.8014         196.491 
       0.852925         188.383         68.7185         194.904 
       0.859047         186.535         67.6565           193.5 
       0.865192         185.716         66.6139         192.469 
       0.871341         183.421         65.5928         190.651 
       0.877463          182.25         64.5981         189.898 
       0.883569         181.907         63.6269         188.327 
       0.889708         180.498         62.6709         187.135 
       0.895864          178.65         61.7324         186.061 
       0.902008         177.211         60.8153         184.123 
       0.908149         175.127         59.9177         182.757 
       0.914301         175.228         59.0369         182.139 
       0.920448         173.949         58.1749         180.667 
       0.926574         171.618         57.3334         178.664 
       0.932687         171.038         56.5105         177.513 
       0.938823         169.663          55.701         176.764 
       0.944975         167.821         54.9058         175.854 
       0.951105         166.792         54.1291         174.427 
       0.957225         166.594         53.3689         173.378 
       0.963368         164.681          52.621         171.492 
       0.969511         163.088         51.8875         170.713 
       0.975621         162.111         51.1722         171.006 
       0.981748         160.771         50.4686         168.984 
       0.987916         159.867          49.774         168.359 
        0.99406         159.043         49.0952           167.1 
        1.00019         157.645         48.4306         165.693 
        1.00632          157.04          47.779         164.649 
        1.01246          155.67         47.1386         163.406 
        1.01859         154.576         46.5111         162.828 
        1.02471         153.411         45.8959         162.253 
        1.03085         152.354         45.2899         161.041 
        1.03698         151.328         44.6962         159.704 
        1.04314         150.488         44.1108         159.071 
        1.04929         149.899         43.5373         158.404 
        1.05541         148.872         42.9765         157.497 
        1.06154         147.944         42.4243         156.679 
        1.06769         146.431          41.881         155.764 
        1.07382         145.578         41.3492          154.79 
        1.07993         144.967         40.8279         153.796 
        1.08607         143.584         40.3135         153.026 
        1.09222         143.167         39.8076          151.98 
        1.09836         141.621          39.311         151.045 
        1.10449          140.83         38.8236         150.199 
        1.11063         139.902         38.3441         149.049 
        1.11677         139.183         37.8729         148.422 
         1.1229         138.109         37.4105         147.918 
        1.12903         137.719         36.9555         146.839 
        1.13518         136.744         36.5078         146.127 
        1.14131         135.961         36.0678         145.156 
        1.14745         134.772         35.6354         144.455 
        1.15359         133.583         35.2101         143.628 
        1.15973         133.106         34.7917         143.077 
        1.16584         132.292          34.382         142.227 
        1.17197         131.513         33.9783         141.375 
        1.17811         130.583           33.58         140.698 
        1.18424         129.704         33.1893         139.958 
        1.19038         129.505         32.8038         139.433 
        1.19652         128.332         32.4246         138.389 
        1.20267         127.458         32.0514         137.739 
        1.20881         126.682         31.6843          137.13 
        1.21495         126.275         31.3235         136.137 
        1.22108         125.243         30.9685         135.711 
         1.2272          124.33         30.6199         134.939 
        1.23334         123.879         30.2759         134.315 
        1.23949         123.272         29.9364         133.397 
        1.24562         122.119         29.6031         132.938 
        1.25174         121.221         29.2754         132.219 
        1.25789         121.254         28.9518         131.611 
        1.26402         120.231         28.6336         130.863 
        1.27014         119.587         28.3211          130.62 
        1.27628         118.359         28.0123         130.056 
        1.28244         118.111         27.7076           128.8 
        1.28858         117.207         27.4078         128.175 
        1.29471         116.524         27.1132         127.908 
        1.30084         115.823         26.8233         126.991 
        1.30697         115.748         26.5372         126.341 
        1.31312         114.665         26.2548         125.871 
        1.31925         113.994         25.9776         125.202 
        1.32537           113.3         25.7046         124.532 
        1.33151         113.098         25.4346         124.036 
        1.33765         111.905         25.1687         123.509 
        1.34378         111.865         24.9072         122.754 
        1.34992          111.11         24.6492         122.296 
        1.35606         110.294         24.3944         121.597 
         1.3622         109.886         24.1437         121.112 
        1.36833         108.876         23.8971          120.29 
        1.37445         108.214         23.6541         119.706 
        1.38059         107.852         23.4138         119.477 
        1.38675         106.947         23.1763         118.568 
        1.39288         106.717          22.943          118.29 
        1.39901         105.576         22.7131          117.67 
        1.40515         105.451         22.4858          117.14 
         1.4113         104.846         22.2618          116.75 
        1.41742         104.168         22.0417         116.139 
        1.42355         103.518         21.8242         115.284 
         1.4297         102.963          21.609         114.781 
        1.43585          102.24         21.3969         114.426 
        1.44198          101.73         21.1884         114.058 
        1.44809          101.12         20.9831         113.176 
        1.45423         100.529         20.7798         112.678 
        1.46036         99.7392         20.5795         112.297 
        1.46649         99.4748         20.3819         111.955 
        1.47263         98.9834         20.1867          111.49 
        1.47877         98.4812         19.9942          110.68 
        1.48491         97.7801         19.8039         110.454 
        1.49104          96.997         19.6166         109.731 
        1.49718         96.7858         19.4315         109.148 
        1.50333         96.2679         19.2485         108.776 
        1.50947         95.8469         19.0683         108.317 
         1.5156         95.2738         18.8907          107.87 
        1.52172         94.6329         18.7154         107.461 
        1.52787         93.9633         18.5419         106.853 
          1.534         93.7837         18.3709         106.477 
        1.54013          93.252         18.2022         105.942 
        1.54627         92.4335         18.0353         105.451 
        1.55241         91.9098         17.8706         105.101 
        1.55855         91.6365         17.7081         104.439 
        1.56467         90.7552         17.5481         103.928 
         1.5708         90.5667         17.3897         103.652 
        1.57695         90.0824          17.233          103.27 
        1.58308         89.5561         17.0786           102.8 
        1.58922         89.1546          16.926         102.365 
        1.59535         88.7041         16.7753         101.885 
         1.6015         88.4586         16.6263         101.364 
        1.60764         87.8724         16.4792         101.037 
        1.61376         87.2214         16.3343         100.779 
        1.61989         86.5079          16.191         100.186 
        1.62604         86.2645         16.0491         99.6267 
        1.63218         85.9278         15.9091         99.2304 
        1.63831         85.4524          15.771         98.9375 
        1.64444         84.9693         15.6345         98.5173 
        1.65059         84.5643         15.4994         97.8933 
        1.65673         83.7998          15.366         97.5379 
        1.66285         83.4313         15.2345         97.2385 
        1.66898         82.8359         15.1046         96.7619 
        1.67512          82.815         14.9759         96.5181 
        1.68127         82.1999         14.8486          96.065 
         1.6874         81.7044         14.7231         95.4245 
        1.69353         81.3651         14.5992         95.0066 
        1.69967         80.9832         14.4763          94.826 
        1.70581         80.5011          14.355         94.4656 
        1.71193         80.0068         14.2355         93.9908 
        1.71806         79.4619         14.1171         93.7526 
        1.72421         79.1907         13.9999         93.2314 
        1.73035         78.9337         13.8841         92.8333 
        1.73649         78.3987         13.7697         92.6462 
        1.74262         77.6866         13.6567         92.0986 
        1.74876         77.5058         13.5448         91.6325 
        1.75489         76.8567         13.4345         91.3325 
        1.76101         76.4937         13.3254         90.9804 
        1.76715         76.4449         13.2174         90.4437 
        1.77329         75.6545         13.1105         90.1026 
        1.77943         75.4979         13.0047         89.7941 
        1.78557         75.2033         12.9003         89.2622 
        1.79171         74.6301          12.797         88.9038 
        1.79785         74.2939         12.6948         88.6829 
        1.80399         73.8504         12.5937         88.3532 
        1.81012         73.4568         12.4939         87.9476 
        1.81625         73.2011         12.3953         87.5397 
        1.82239         72.8974         12.2975         87.2396 
        1.82853         72.3767         12.2009          87.064 
        1.83466         71.9561         12.1054         86.6288 
        1.84078         71.5548          12.011         86.1078 
        1.84692         71.2202         11.9175         86.0078 
        1.85306         70.8992         11.8249         85.6828 
         1.8592         70.5854         11.7334         85.1832 
        1.86533         70.0131         11.6429         84.9431 
        1.87147         69.7438         11.5533         84.5387 
