# k  (h/Mpc)    P(k)  (Mpc/h)^3    P_linear(k)  (Mpc/h)^3     P_NL(k)  ShotnoiseSubtracted = false
     0.00783031         2253.44         2265.39         2264.28 
       0.013688         2989.05         3028.97         3018.24 
       0.019231         3250.97         3272.09         3254.65 
      0.0249154         3213.47         3214.02         3199.32 
      0.0312784          2945.2         2956.83         2945.66 
      0.0375637         2626.71         2644.89         2634.52 
      0.0433917         2379.04         2380.67         2371.01 
      0.0492413         2157.62         2169.26          2159.9 
      0.0555754         1999.97         2000.95         1991.03 
      0.0619321         1845.95         1875.52         1865.05 
       0.067871          1760.2         1774.06         1762.93 
      0.0738098         1659.46         1669.34         1654.96 
      0.0800417          1540.9         1546.31         1532.45 
      0.0862327         1403.03         1412.43         1402.17 
      0.0921407         1274.45         1283.03         1273.78 
      0.0982031         1159.62         1160.13         1155.25 
       0.104506         1043.95         1052.55         1051.26 
       0.110769         964.031         970.048         966.918 
       0.116806         916.185         911.671         908.476 
       0.122832         864.624         868.324         866.208 
       0.129052          830.82         831.375         829.232 
       0.135211         799.866         795.236         793.311 
       0.141259         754.543         755.563         755.082 
       0.147318         703.532         710.502         712.484 
       0.153489         659.968         661.121         660.777 
       0.159709         617.646         611.742         614.461 
       0.165845         565.351         567.403         575.163 
       0.171974         541.051         530.156          537.92 
       0.178125         513.192         500.653         511.945 
       0.184229         484.002         478.214         489.692 
        0.19034         471.598         460.405         471.705 
       0.196428          455.88         444.684         453.619 
       0.202534         432.123         428.644         438.383 
       0.208729         420.611         410.656         419.824 
       0.214876         404.459         390.854         403.598 
       0.220989         376.676         370.006         384.146 
       0.227147         364.957         349.191         363.696 
        0.23329         348.284         329.973         347.591 
       0.239377         335.095         313.398         332.574 
       0.245482         318.605         299.555         317.307 
       0.251667         305.544         288.065         307.566 
       0.257832         300.871         278.411         297.694 
       0.263955           286.9         269.694         288.384 
       0.270079         278.029         261.017         279.253 
        0.27624         266.472         251.827         269.373 
       0.282372         258.482         242.085         260.427 
        0.28843         254.554         232.095         250.707 
       0.294538         242.734         222.089             242 
       0.300721         231.933         212.494         233.961 
        0.30691         227.113           203.8         225.918 
       0.313033         218.037         196.235         217.949 
       0.319153          214.19         189.662         212.433 
       0.325316         206.052         183.793         207.403 
        0.33145         200.424         178.409         200.767 
       0.337538         194.855         173.213         195.166 
       0.343633         189.313         167.969         190.558 
       0.349808         183.766         162.526         185.642 
       0.355968         178.619         157.013          181.37 
       0.362074         174.978         151.594         175.736 
       0.368217         170.551          146.34         169.511 
       0.374374         166.905         141.415         165.617 
       0.380519         159.763           136.9         160.896 
       0.386598         156.048         132.837         157.059 
       0.392688         152.011         129.106         153.767 
        0.39888         149.258         125.553         149.563 
       0.405048         146.084         122.162         146.479 
       0.411186         143.111         118.843         143.858 
       0.417313         139.473          115.54         139.487 
       0.423458         135.971         112.247         136.557 
       0.429607         133.708         108.991         133.233 
       0.435692         131.267         105.859         130.496 
       0.441815         127.033         102.849         128.494 
       0.447964         123.466         99.9948         125.138 
       0.454126         121.242         97.3081          122.05 
       0.460267         120.383         94.7991         120.202 
       0.466387         117.432         92.4316         117.446 
        0.47254         116.054         90.1454         115.418 
       0.478662         112.318         87.9352         113.023 
       0.484765         110.487         85.7796         110.442 
       0.490885         107.835         83.6528         108.975 
       0.497035         106.897         81.5525         107.184 
       0.503198         104.214         79.5029         104.677 
       0.509342         101.719           77.53          103.02 
       0.515458         100.647         75.6447         101.859 
       0.521598         98.2578         73.8326          99.151 
       0.527764         97.1929         72.0952         96.8607 
       0.533884         95.8719         70.4473         95.4079 
           0.54         93.6381         68.8631         93.9011 
       0.546137         91.1906         67.3218         92.7532 
       0.552299         89.9469         65.8126         90.7057 
       0.558452         88.2928         64.3423         89.0589 
       0.564573         87.8621         62.9157         88.0753 
       0.570708         85.2718         61.5223         86.5912 
       0.576825          84.425         60.1709         85.1683 
       0.582926         83.3477         58.8638         83.8406 
       0.589034         81.9174         57.5984         82.8061 
       0.595184         80.8372         56.3703         81.3493 
       0.601379         78.7411         55.1784         80.3774 
       0.607522         77.7919         54.0355         78.6845 
       0.613639         76.9047         52.9313         77.6975 
       0.619772         75.6322         51.8535         76.4904 
       0.625918          74.429         50.8004         75.7991 
       0.632068         73.7242         49.7735         74.3247 
       0.638161         72.2692         48.7827         73.4434 
         0.6443         71.5849         47.8113         72.1683 
       0.650464          70.043         46.8633         71.1929 
       0.656582         69.6843         45.9486         70.4641 
       0.662703         68.9008         45.0589         69.2199 
       0.668861         67.3285         44.1888         68.5131 
       0.675024         66.9145         43.3422         67.4339 
       0.681124         66.1135         42.5275         66.5148 
       0.687237         64.8251         41.7332         65.5732 
       0.693381         64.0816         40.9562         64.7254 
       0.699536         63.6535          40.198          64.214 
       0.705665         62.5407         39.4624         63.4838 
       0.711789         61.5982         38.7456         62.2665 
       0.717957         60.6616         38.0412         61.7668 
        0.72409         60.1489         37.3581          61.204 
       0.730186         59.8106         36.6957         60.2996 
       0.736317         58.7411         36.0459         59.5049 
       0.742472         58.1128         35.4096         58.9536 
       0.748622         57.2234         34.7897         58.0849 
        0.75476         56.1691         34.1865         57.4865 
       0.760888         56.0546          33.599         56.8793 
       0.767043         55.1084         33.0233         56.4022 
       0.773185         54.7041         32.4628         55.7485 
       0.779291          54.039         31.9187         55.1952 
       0.785407         53.1926         31.3865          54.463 
       0.791564         53.1247         30.8633         53.8407 
       0.797719         52.2542         30.3523         53.3259 
       0.803834         51.8346         29.8563         52.6742 
       0.809972         51.1104         29.3696         52.2275 
       0.816124         50.6181         28.8929         51.6288 
       0.822261         50.0506         28.4281         50.9439 
       0.828378         49.7024          27.975         50.3675 
       0.834502         49.1788         27.5316         50.2183 
       0.840667         48.7437          27.095         49.5044 
       0.846816         47.8311         26.6693         49.0763 
       0.852925         47.7757         26.2555         48.8684 
       0.859047         47.2848         25.8498         48.0665 
       0.865192         46.6124         25.4514         47.6444 
       0.871341         46.1397         25.0613         47.2885 
       0.877463         45.7847         24.6813         46.7934 
       0.883569         45.5724         24.3102         46.4878 
       0.889708          45.002         23.9449         45.8801 
       0.895864         44.4907         23.5863         45.4601 
       0.902008         43.9687         23.2359         45.0984 
       0.908149         43.6763          22.893         44.7545 
       0.914301         43.4086         22.5565         44.4657 
       0.920448         42.8892         22.2271         43.9094 
       0.926574         42.3164         21.9056         43.4496 
       0.932687          42.032         21.5912         43.1128 
       0.938823         41.5755         21.2819         42.7294 
       0.944975         41.2412         20.9781         42.2857 
       0.951105         40.8622         20.6813         41.9537 
       0.957225         40.6924         20.3909         41.6621 
       0.963368         40.1339         20.1051         41.2422 
       0.969511         39.8435         19.8249         40.9335 
       0.975621         39.4776         19.5515         40.6189 
       0.981748         39.0615         19.2827         40.3455 
       0.987916         38.8414         19.0173         39.9028 
        0.99406         38.4348          18.758         39.6326 
        1.00019         38.1695          18.504         39.3045 
        1.00632         37.8488         18.2551         39.0642 
        1.01246         37.6049         18.0104         38.8065 
        1.01859         37.1692         17.7707         38.4315 
        1.02471         36.8454         17.5356         38.1206 
        1.03085         36.7425         17.3041         37.8408 
        1.03698         36.3986         17.0773         37.5251 
        1.04314         36.0659         16.8536         37.1507 
        1.04929         35.6972         16.6345         36.9735 
        1.05541           35.57         16.4202         36.7905 
        1.06154          35.362         16.2092         36.3556 
        1.06769         34.9075         16.0016         36.0994 
        1.07382          34.633         15.7984         35.9245 
        1.07993         34.3303         15.5993         35.5936 
        1.08607         34.1599         15.4027         35.3331 
        1.09222         33.8654         15.2094         35.1444 
        1.09836         33.6257         15.0197         34.8596 
        1.10449         33.4081         14.8335         34.5669 
        1.11063         33.1594         14.6503         34.4174 
        1.11677         33.0655         14.4702         34.1131 
         1.1229         32.7253         14.2936         33.8718 
        1.12903         32.5348         14.1197         33.6851 
        1.13518          32.283         13.9487         33.3553 
        1.14131         32.0615         13.7806         33.1622 
        1.14745         31.6673         13.6154         32.9706 
        1.15359          31.442         13.4529         32.7645 
        1.15973         31.2075          13.293         32.5477 
        1.16584         31.0166         13.1365         32.3871 
        1.17197         30.7211         12.9822         32.1475 
        1.17811         30.5579         12.8301         31.8264 
        1.18424         30.3215         12.6808          31.697 
        1.19038          30.178         12.5335          31.527 
        1.19652         29.9362         12.3886         31.2496 
        1.20267         29.7589          12.246         31.0756 
        1.20881         29.5408         12.1057         30.9568 
        1.21495         29.3205         11.9679         30.7706 
        1.22108          29.292         11.8322          30.519 
         1.2272          29.068          11.699         30.3242 
        1.23334         28.8478         11.5676         30.2019 
        1.23949         28.6352         11.4379         29.9504 
        1.24562         28.3655         11.3106         29.7652 
        1.25174         28.2472         11.1854         29.6232 
        1.25789         28.0947         11.0617         29.4211 
        1.26402         27.9545         10.9402         29.2143 
        1.27014         27.7632         10.8207         29.0718 
        1.27628         27.4808         10.7028         28.8768 
        1.28244           27.48         10.5863          28.809 
        1.28858         27.1774         10.4718         28.5463 
        1.29471         26.9482         10.3593         28.3736 
        1.30084         26.7967         10.2485         28.3027 
        1.30697         26.7315         10.1392         28.0769 
        1.31312          26.469         10.0313         27.8948 
        1.31925          26.345         9.92535          27.808 
        1.32537          26.168         9.82106         27.6826 
        1.33151         26.0086         9.71791         27.4786 
        1.33765         25.9218         9.61632         27.3293 
        1.34378         25.7538         9.51639         27.2014 
        1.34992         25.5944         9.41783         27.0472 
        1.35606         25.3918         9.32046         26.8634 
         1.3622         25.1864         9.22466         26.7397 
        1.36833         25.1327         9.13045          26.638 
        1.37445         25.0218         9.03761         26.4313 
        1.38059         24.8479         8.94579         26.2587 
        1.38675         24.6408         8.85504         26.1675 
        1.39288         24.5007         8.76592         26.0142 
        1.39901         24.4019         8.67808         25.9015 
        1.40515         24.2439         8.59125         25.7811 
         1.4113         24.1274         8.50566         25.6563 
        1.41742         24.0082         8.42157         25.5175 
        1.42355         23.8084         8.33847         25.3154 
         1.4297         23.6881         8.25625         25.2442 
        1.43585         23.5738         8.17518         25.1523 
        1.44198         23.4689         8.09552         24.9964 
        1.44809         23.3267         8.01708         24.8963 
        1.45423         23.1826          7.9394         24.7538 
        1.46036         23.0666          7.8629         24.5989 
        1.46649         22.9107         7.78739          24.474 
        1.47263         22.8308         7.71282         24.3953 
        1.47877         22.7355         7.63927         24.3237 
        1.48491         22.5755         7.56657         24.1053 
        1.49104         22.4394         7.49498         24.0286 
        1.49718         22.3413         7.42427         23.9352 
        1.50333         22.2345         7.35436         23.8183 
        1.50947         22.1187         7.28551         23.7182 
         1.5156         21.9933         7.21764         23.5966 
        1.52172          21.863         7.15065         23.4482 
        1.52787         21.7309         7.08438         23.3317 
          1.534         21.6879         7.01903         23.2345 
        1.54013         21.5722         6.95458         23.0736 
        1.54627         21.4177         6.89083         22.9651 
        1.55241         21.2841         6.82788         22.9225 
        1.55855         21.2145         6.76581         22.8172 
        1.56467         21.1287         6.70468         22.6862 
         1.5708         21.0376         6.64415         22.6194 
        1.57695         20.8867         6.58428         22.5269 
        1.58308         20.7388         6.52529         22.4051 
        1.58922         20.6696         6.46698         22.3376 
        1.59535         20.5288         6.40942         22.2286 
         1.6015          20.407         6.35249         22.1163 
        1.60764         20.3488         6.29627         22.0066 
        1.61376         20.2859          6.2409         21.8928 
        1.61989         20.1263         6.18616          21.825 
        1.62604         20.0726         6.13195          21.771 
        1.63218         19.9678         6.07844         21.6576 
        1.63831         19.8425         6.02569         21.5306 
        1.64444         19.7484         5.97355          21.473 
        1.65059         19.6371         5.92191          21.354 
        1.65673         19.5744         5.87094         21.2788 
        1.66285         19.4457         5.82071         21.2106 
        1.66898         19.3971         5.77107         21.0882 
        1.67512         19.3164         5.72191         20.9919 
        1.68127         19.1566         5.67328         20.8906 
         1.6874         19.1154         5.62532         20.7938 
        1.69353         18.9892         5.57796         20.7322 
        1.69967         18.8919         5.53103         20.6671 
        1.70581         18.8458         5.48467         20.5967 
        1.71193         18.7221         5.43902         20.5072 
        1.71806         18.6755         5.39379         20.3913 
        1.72421          18.557         5.34899         20.3332 
        1.73035         18.4571         5.30476         20.2403 
        1.73649         18.4053         5.26104         20.1148 
        1.74262         18.2544         5.21785         20.0956 
        1.74876          18.226         5.17512         20.0137 
        1.75489         18.1401         5.13296         19.8882 
        1.76101         18.0458         5.09129         19.8056 
        1.76715         17.9638         5.05003         19.7524 
        1.77329         17.8826         5.00918         19.6625 
        1.77943         17.7668         4.96876         19.5832 
        1.78557         17.7417         4.92886         19.5547 
        1.79171         17.6279         4.88938         19.4648 
        1.79785         17.5968         4.85034          19.357 
        1.80399         17.4595         4.81174           19.31 
        1.81012         17.4199          4.7736         19.2279 
        1.81625         17.2854         4.73591         19.1596 
        1.82239         17.2196         4.69856         19.1131 
        1.82853         17.1656         4.66164         19.0085 
        1.83466         17.0469         4.62515         18.9266 
        1.84078         17.0285          4.5891         18.8748 
        1.84692         16.9708         4.55337         18.7867 
        1.85306         16.8797         4.51798         18.7188 
         1.8592         16.8067         4.48303          18.667 
        1.86533         16.6915         4.44847         18.5896 
        1.87147         16.6282         4.41423         18.5248 
        1.87761         16.5437         4.38035         18.4639 
