# k  (h/Mpc)    Pcb(k)  (Mpc/h)^3    Pcb_linear(k) (Mpc/h)^3    Pcb_NL(k) (Mpc/h)^3   ShotnoiseSubtracted = false
     0.00783031         4523.74         4544.92         4542.48 
       0.013688          5974.3          6076.3         6051.52 
       0.019231         6504.24         6563.68          6522.3 
      0.0249154         6444.56         6446.99         6406.34 
      0.0312784         5889.93         5930.96         5891.87 
      0.0375637         5242.77         5305.17         5265.88 
      0.0433917         4756.43         4775.15         4734.15 
      0.0492413         4305.19         4351.08         4310.09 
      0.0555754         3993.59         4013.47         3971.59 
      0.0619321         3664.56         3761.85         3718.02 
       0.067871         3502.13         3558.35         3513.83 
      0.0738098         3305.47          3348.3         3291.77 
      0.0800417         3068.85         3101.52         3046.65 
      0.0862327         2792.06         2832.98         2791.54 
      0.0921407         2538.31         2573.44         2534.73 
      0.0982031         2315.72         2326.92         2304.36 
       0.104506         2081.42         2111.14         2101.87 
       0.110769         1924.29         1945.67         1929.86 
       0.116806         1835.95         1828.58         1812.96 
       0.122832         1728.58         1741.63          1730.1 
       0.129052         1659.41         1667.52         1656.36 
       0.135211          1603.8         1595.04          1584.5 
       0.141259         1508.42         1515.46         1510.81 
       0.147318         1403.15         1425.08         1428.61 
       0.153489         1320.79         1326.04         1321.53 
       0.159709         1245.86         1226.99         1233.64 
       0.165845         1137.15         1138.06         1162.46 
       0.171974         1097.64         1063.35         1088.77 
       0.178125         1047.07         1004.18         1042.35 
       0.184229         979.981         959.171         997.039 
        0.19034          959.29         923.451          961.19 
       0.196428         930.022         891.919         922.501 
       0.202534         877.531         859.747         893.341 
       0.208729         859.239         823.668         854.337 
       0.214876         827.032          783.95         826.672 
       0.220989         771.457         742.134         790.323 
       0.227147         751.834         700.384         750.904 
        0.23329         720.787         661.839         722.506 
       0.239377         700.743         628.593         693.559 
       0.245482         665.631         600.826         661.563 
       0.251667         639.885         577.781         644.426 
       0.257832         633.315         558.419         624.361 
       0.263955         601.668         540.935         605.548 
       0.270079         583.707         523.531         587.339 
        0.27624         559.513         505.099         567.362 
       0.282372         546.442         485.558         549.901 
        0.28843          541.68         465.521         530.543 
       0.294538         515.135          445.45         514.859 
       0.300721         496.089         426.207         500.068 
        0.30691         487.994         408.768         485.927 
       0.313033         468.157         393.597         469.436 
       0.319153         460.072          380.41         458.494 
       0.325316         448.255          368.64         449.686 
        0.33145         438.173          357.84         434.646 
       0.337538         424.163         347.419         423.869 
       0.343633         411.483           336.9         416.767 
       0.349808          400.98         325.984         407.429 
       0.355968         392.355         314.925         398.701 
       0.362074         382.916         304.057         387.901 
       0.368217         377.302         293.519         375.369 
       0.374374         369.373          283.64         367.644 
       0.380519         354.657         274.586         358.565 
       0.386598         348.984         266.436          351.42 
       0.392688         341.437         258.951         344.644 
        0.39888         333.598         251.827         336.604 
       0.405048         327.851         245.024         332.196 
       0.411186         324.397         238.368         324.601 
       0.417313         317.803         231.743         315.672 
       0.423458         309.618         225.136         309.919 
       0.429607         303.645         218.607         303.707 
       0.435692          297.75         212.325         297.984 
       0.441815         292.121         206.287         294.834 
       0.447964         284.383         200.562         288.335 
       0.454126         279.869         195.175         281.369 
       0.460267         276.993         190.141         278.684 
       0.466387         271.902         185.393         273.072 
        0.47254         268.743         180.807         268.872 
       0.478662         260.704         176.374         263.879 
       0.484765         257.738          172.05         257.894 
       0.490885         254.064         167.785         254.893 
       0.497035         251.447         163.572         251.769 
       0.503198         247.516         159.461         247.405 
       0.509342         241.081         155.505         244.091 
       0.515458         238.877         151.723         242.032 
       0.521598         233.397         148.088         236.693 
       0.527764         230.879         144.604         232.086 
       0.533884          230.34         141.298         229.381 
           0.54         224.797         138.121         226.411 
       0.546137         219.834         135.029         224.054 
       0.552299         218.281         132.002         219.828 
       0.558452         214.496         129.053          216.65 
       0.564573         213.337         126.192         214.759 
       0.570708         208.423         123.397         211.683 
       0.576825         205.759         120.687         208.055 
       0.582926         203.632         118.065         205.371 
       0.589034         200.989         115.527         203.446 
       0.595184         199.325         113.064          200.34 
       0.601379         194.675         110.673          199.11 
       0.607522         192.029         108.381         195.571 
       0.613639         190.413         106.166         193.652 
       0.619772         188.232         104.004         190.721 
       0.625918         186.703         101.892         189.455 
       0.632068         182.858         99.8322         186.254 
       0.638161         180.449          97.845         185.169 
         0.6443         179.863         95.8967         182.498 
       0.650464         176.729         93.9952         179.375 
       0.656582         175.837         92.1605          178.32 
       0.662703         173.962         90.3761         175.891 
       0.668861         170.597         88.6308         174.271 
       0.675024         170.603         86.9327         171.971 
       0.681124         167.904         85.2987         170.439 
       0.687237         165.161         83.7056         168.278 
       0.693381         164.585         82.1471         166.459 
       0.699536         162.433         80.6264          165.37 
       0.705665         160.131         79.1509         164.268 
       0.711789         158.274         77.7132         161.228 
       0.717957         156.742         76.3005         160.157 
        0.72409          155.89         74.9302         159.532 
       0.730186         154.856         73.6017         157.583 
       0.736317         152.195         72.2983         155.593 
       0.742472         150.591         71.0222         154.249 
       0.748622         148.389         69.7788         152.562 
        0.75476          148.11         68.5689         151.109 
       0.760888         147.091         67.3904         149.386 
       0.767043         144.716         66.2359         148.706 
       0.773185         143.112         65.1115         147.726 
       0.779291         141.632         64.0202         146.223 
       0.785407         139.971         62.9528         144.395 
       0.791564          139.69         61.9034         143.313 
       0.797719         138.282         60.8786         142.348 
       0.803834         137.128         59.8836          140.55 
       0.809972         136.526         58.9075          139.61 
       0.816124          134.88         57.9513         138.856 
       0.822261         133.197         57.0191         137.333 
       0.828378         132.978         56.1104         135.604 
       0.834502         130.731          55.221         135.366 
       0.840667         130.269         54.3453         134.527 
       0.846816         129.105         53.4914         133.009 
       0.852925         127.897         52.6615         131.914 
       0.859047         127.049         51.8477          130.63 
       0.865192         125.553         51.0487         130.001 
       0.871341         124.286         50.2662         128.678 
       0.877463         123.644         49.5039         128.073 
       0.883569         123.254         48.7596         127.041 
       0.889708         122.252          48.027         126.063 
       0.895864          121.03         47.3078         125.232 
       0.902008         120.124          46.605         124.098 
       0.908149         118.699         45.9171         123.167 
       0.914301         118.543         45.2422         122.633 
       0.920448         117.755         44.5816         121.569 
       0.926574         115.794         43.9367         120.072 
       0.932687         115.431         43.3061         119.552 
       0.938823         114.449         42.6858         118.639 
       0.944975          113.23         42.0763         117.849 
       0.951105         112.417         41.4811          117.13 
       0.957225         112.457         40.8986          116.49 
       0.963368         111.093         40.3254         115.127 
       0.969511          110.11         39.7633         114.506 
       0.975621          109.42         39.2151          114.63 
       0.981748         108.423         38.6759         113.271 
       0.987916          107.63         38.1436         112.802 
        0.99406         107.215         37.6234         111.913 
        1.00019         106.033         37.1141         111.072 
        1.00632         105.484         36.6148         110.492 
        1.01246         104.686          36.124         109.575 
        1.01859         104.217         35.6431         108.928 
        1.02471         103.133         35.1717         108.491 
        1.03085         102.425         34.7073         107.646 
        1.03698         101.818         34.2524         106.815 
        1.04314         101.151         33.8037         106.249 
        1.04929         100.588         33.3643         105.907 
        1.05541         99.8966         32.9345         105.366 
        1.06154         99.3218         32.5113         104.567 
        1.06769         98.2247          32.095         104.013 
        1.07382         97.6531         31.6874         103.322 
        1.07993           97.25         31.2879         102.611 
        1.08607         96.3846         30.8937         101.947 
        1.09222         96.0949          30.506         101.167 
        1.09836          95.145         30.1255         100.716 
        1.10449         94.6442          29.752         100.105 
        1.11063         93.8364         29.3845         99.3113 
        1.11677         93.5474         29.0234         98.8128 
         1.1229         92.6743          28.669         98.5796 
        1.12903          92.509         28.3204         97.8098 
        1.13518         92.0858         27.9773         97.2772 
        1.14131         91.2595         27.6401         96.7487 
        1.14745         90.3518         27.3088         96.1871 
        1.15359         89.6165         26.9828         95.8934 
        1.15973         89.4694         26.6622         95.2041 
        1.16584         88.8387         26.3482         94.6319 
        1.17197         87.9889         26.0389         94.1156 
        1.17811         87.6042         25.7336          93.399 
        1.18424         86.7804         25.4342         92.9329 
        1.19038         86.7092         25.1387         92.7817 
        1.19652         86.2292         24.8481         91.9247 
        1.20267         85.5134         24.5622         91.6979 
        1.20881         84.9176         24.2808         91.0519 
        1.21495         84.6174         24.0044          90.629 
        1.22108         84.0726         23.7323         90.1751 
         1.2272          83.458         23.4651         89.7823 
        1.23334         83.0076         23.2015         89.2441 
        1.23949         82.5639         22.9413         88.6558 
        1.24562          81.879         22.6859         88.2651 
        1.25174         81.4125         22.4348          87.945 
        1.25789          81.526         22.1868         87.4175 
        1.26402          80.705          21.943         86.8863 
        1.27014          80.214         21.7035         86.5153 
        1.27628         79.5362         21.4669         86.0991 
        1.28244         79.2704         21.2333         85.5936 
        1.28858         78.8142         21.0036         85.2001 
        1.29471         78.4602         20.7779         84.9154 
        1.30084          77.809         20.5557         84.1881 
        1.30697         77.7001         20.3364         83.7605 
        1.31312         76.9535         20.1201          83.653 
        1.31925         76.5266         19.9076         83.1278 
        1.32537         76.1371         19.6984          82.633 
        1.33151          75.788         19.4915         82.3152 
        1.33765         75.2761         19.2877         81.9412 
        1.34378         75.0926         19.0873         81.4726 
        1.34992         74.5231         18.8896         81.1254 
        1.35606         74.0381         18.6943         80.8339 
         1.3622         73.5664         18.5022         80.3893 
        1.36833         73.1259         18.3132         79.8479 
        1.37445         72.6376          18.127          79.588 
        1.38059         72.4427         17.9428         79.4485 
        1.38675         71.7051         17.7608         78.8054 
        1.39288         71.6708         17.5821         78.6115 
        1.39901         71.0822         17.4059         78.1966 
        1.40515         70.8086         17.2317         77.7763 
         1.4113         70.6241         17.0601         77.5221 
        1.41742         70.1879         16.8914         77.2518 
        1.42355         69.5491         16.7247         76.6444 
         1.4297         69.1975         16.5598         76.3025 
        1.43585         68.7215         16.3972          76.102 
        1.44198         68.3531         16.2374         75.8598 
        1.44809         68.0362         16.0801         75.1793 
        1.45423         67.7323         15.9243         74.9242 
        1.46036         67.3091         15.7709         74.6871 
        1.46649         67.1976         15.6194         74.4227 
        1.47263         66.6763         15.4698         74.1387 
        1.47877         66.3785         15.3223         73.6835 
        1.48491         66.1117         15.1765         73.3038 
        1.49104          65.574         15.0329         72.9112 
        1.49718         65.2497         14.8911         72.6132 
        1.50333         65.0643         14.7509         72.4066 
        1.50947         64.5157         14.6128         72.1494 
         1.5156         64.2766         14.4766         71.8392 
        1.52172         63.8342         14.3423          71.514 
        1.52787         63.4937         14.2093         71.1606 
          1.534         63.2876         14.0783         70.9072 
        1.54013         62.9634          13.949          70.573 
        1.54627          62.443         13.8212         70.2012 
        1.55241         62.1415         13.6949         69.9221 
        1.55855          61.969         13.5704         69.6482 
        1.56467          61.576         13.4478         69.2696 
         1.5708         61.3349         13.3264         69.1095 
        1.57695         61.0132         13.2063         68.9019 
        1.58308          60.528          13.088         68.4813 
        1.58922         60.2791          12.971         68.2272 
        1.59535         60.0768         12.8556         67.9901 
         1.6015         59.9481         12.7414         67.6402 
        1.60764         59.5484         12.6286         67.3478 
        1.61376         59.1311         12.5176         67.1344 
        1.61989         58.7787         12.4078         66.7446 
        1.62604         58.5472          12.299         66.4657 
        1.63218         58.2332         12.1917         66.2668 
        1.63831         58.0841         12.0859         65.9892 
        1.64444         57.6395         11.9813         65.6671 
        1.65059         57.4701         11.8777         65.4333 
        1.65673         56.9868         11.7755         65.1189 
        1.66285         56.9256         11.6748         64.8624 
        1.66898         56.3183         11.5752         64.7724 
        1.67512          56.285         11.4766         64.5304 
        1.68127         55.9426         11.3791         64.1285 
         1.6874         55.6292         11.2829          63.752 
        1.69353         55.4133         11.1879         63.5574 
        1.69967          55.219         11.0938         63.3844 
        1.70581         54.7181         11.0008         63.2606 
        1.71193         54.5072         10.9092         63.0326 
        1.71806         54.3203         10.8185         62.5098 
        1.72421         54.0423         10.7286         62.2199 
        1.73035         53.7241         10.6399         62.1714 
        1.73649         53.3883         10.5522         62.0396 
        1.74262         53.0485         10.4656         61.5459 
        1.74876         52.7733         10.3799         61.2792 
        1.75489          52.594         10.2953         61.1426 
        1.76101         52.3818         10.2118         60.8842 
        1.76715         52.1979          10.129         60.6474 
        1.77329         51.7692         10.0471         60.4354 
        1.77943         51.7663         9.96599         60.2109 
        1.78557         51.4163         9.88595         59.9652 
        1.79171         51.1684         9.80678         59.7052 
        1.79785         50.8583         9.72847         59.5169 
        1.80399         50.6216         9.65104          59.386 
        1.81012         50.4178         9.57456         58.9757 
        1.81625         50.0479         9.49894         58.6349 
        1.82239         49.8285         9.42404         58.5523 
        1.82853         49.7103         9.34998         58.4127 
        1.83466         49.3816          9.2768         58.1427 
        1.84078         49.1111         9.20448         57.8727 
        1.84692         48.8212         9.13283          57.769 
        1.85306          48.608         9.06185          57.562 
         1.8592         48.4473         8.99174         57.2828 
        1.86533         48.2199         8.92242         57.1218 
        1.87147         47.9543         8.85376         56.9072 
