# k  (h/Mpc)    P(k)  (Mpc/h)^3    P_linear(k)  (Mpc/h)^3     P_NL(k)  ShotnoiseSubtracted = false
     0.00783031         4140.28         4159.99         4157.85 
       0.013688         5471.21         5561.74         5539.55 
       0.019231         5955.78         6007.88         5970.95 
      0.0249154         5899.28         5901.09         5865.53 
      0.0312784         5393.77         5428.77         5395.43 
      0.0375637         4802.45         4855.98          4822.7 
      0.0433917         4356.04         4370.84         4336.45 
      0.0492413         3943.86         3982.68         3948.38 
      0.0555754          3658.2         3673.66          3638.5 
      0.0619321         3359.47         3443.35         3406.52 
       0.067871         3209.72         3257.08         3219.53 
      0.0738098         3028.98         3064.81         3017.06 
      0.0800417         2812.32         2838.92          2792.6 
      0.0862327          2558.9         2593.13         2558.21 
      0.0921407            2326         2355.56         2323.03 
      0.0982031         2121.24         2129.91         2111.14 
       0.104506         1906.94          1932.4         1924.93 
       0.110769         1762.69         1780.94         1767.86 
       0.116806         1680.96         1673.76         1660.81 
       0.122832         1583.03         1594.18         1584.72 
       0.129052         1520.04         1526.34         1517.15 
       0.135211         1468.28         1459.99         1451.38 
       0.141259         1381.53         1387.16         1383.48 
       0.147318         1285.42         1304.43         1307.84 
       0.153489         1209.41         1213.77         1210.23 
       0.159709         1139.52         1123.11         1129.11 
       0.165845         1040.36         1041.71         1062.95 
       0.171974         1003.18         973.324          995.31 
       0.178125         956.125         919.158         952.063 
       0.184229         895.806         877.963         910.743 
        0.19034         876.341         845.267         877.868 
       0.196428         849.244         816.405         842.696 
       0.202534         801.681         786.956         815.828 
       0.208729         784.448         753.932         780.381 
       0.214876         755.035         717.577         754.474 
       0.220989          703.89         679.302         720.822 
       0.227147         685.619         641.086         684.462 
        0.23329         656.973         605.804          658.02 
       0.239377         637.723         575.373         631.427 
       0.245482         605.764         549.958         602.258 
       0.251667         582.135         528.865         586.277 
       0.257832          575.91         511.141         567.944 
       0.263955         547.229         495.136         550.716 
       0.270079         530.773         479.206         533.996 
        0.27624         508.753         462.334         515.679 
       0.282372         496.387         444.448         499.639 
        0.28843         491.824         426.108         481.878 
       0.294538         467.875         407.736         467.329 
       0.300721          449.99         390.122         453.706 
        0.30691         442.494          374.16         440.451 
       0.313033         424.533         360.272         425.397 
       0.319153         417.158         348.204         415.441 
       0.325316         405.727         337.429         407.217 
        0.33145         396.314         327.543         393.656 
       0.337538         383.865         318.005         383.675 
       0.343633         372.388         308.377           376.9 
       0.349808         362.695         298.384         368.293 
       0.355968         354.606         288.262         360.337 
       0.362074         346.366         278.314         350.389 
       0.368217         340.768         268.668         338.906 
       0.374374         333.524         259.627         331.836 
       0.380519          320.08         251.338         323.472 
       0.386598         314.659         243.878         316.799 
       0.392688         307.658         237.027         310.732 
        0.39888         300.866         230.506         303.191 
       0.405048          295.51         224.279         298.979 
       0.411186         292.031         218.187         292.375 
       0.417313          285.81         212.122         284.151 
       0.423458         278.561         206.075         278.851 
       0.429607         273.344         200.098         273.179 
       0.435692         268.044         194.349         267.972 
       0.441815         262.549         188.822          264.99 
       0.447964         255.471         183.582         258.994 
       0.454126         251.263          178.65         252.702 
       0.460267         248.883         174.043         250.117 
       0.466387         244.127         169.697         245.001 
        0.47254         241.351           165.5         241.153 
       0.478662         233.937         161.442         236.642 
       0.484765          231.16         157.484         231.234 
       0.490885         227.564          153.58         228.504 
       0.497035         225.487         149.724         225.612 
       0.503198         221.479         145.961          221.57 
       0.509342          215.79         142.339         218.512 
       0.515458         213.829         138.877         216.609 
       0.521598         208.842          135.55         211.702 
       0.527764         206.635         132.361         207.414 
       0.533884         205.972         129.335         204.938 
           0.54         200.872         126.427         202.247 
       0.546137         196.394         123.597         200.128 
       0.552299         194.782         120.826          196.24 
       0.558452         191.365         118.127         193.276 
       0.564573         190.468         115.508         191.546 
       0.570708         185.779          112.95         188.713 
       0.576825         183.536         110.469         185.539 
       0.582926         181.645         108.069         183.052 
       0.589034         179.181         105.746         181.313 
       0.595184         177.559         103.491         178.583 
       0.601379         173.288         101.303         177.295 
       0.607522         171.013         99.2046         173.976 
       0.613639          169.55         97.1774         172.293 
       0.619772         167.407         95.1987          169.59 
       0.625918         166.003         93.2652          168.48 
       0.632068         162.745         91.3799         165.592 
       0.638161         160.424          89.561         164.544 
         0.6443         159.857         87.7776         162.052 
       0.650464          157.04         86.0371         159.287 
       0.656582         156.298         84.3578          158.37 
       0.662703         154.543         82.7244          156.05 
       0.668861         151.493         81.1269         154.628 
       0.675024         151.481         79.5726         152.564 
       0.681124         149.055         78.0769         151.092 
       0.687237          146.44         76.6187         149.161 
       0.693381         145.981         75.1921         147.492 
       0.699536         144.109         73.8002         146.587 
       0.705665         141.975         72.4496         145.484 
       0.711789         140.278         71.1336         142.715 
       0.717957         138.907         69.8405         141.816 
        0.72409         138.127         68.5863         141.208 
       0.730186         137.095         67.3703         139.412 
       0.736317         134.706         66.1772          137.61 
       0.742472         133.361         65.0091           136.4 
       0.748622           131.4          63.871         134.884 
        0.75476         130.886         62.7635         133.574 
       0.760888         130.125         61.6849         132.056 
       0.767043          127.96         60.6281         131.443 
       0.773185         126.569         59.5989         130.515 
       0.779291         125.244            58.6         129.175 
       0.785407         123.648          57.623         127.536 
       0.791564          123.54         56.6624         126.494 
       0.797719          122.31         55.7243         125.623 
       0.803834         121.099         54.8136         124.057 
       0.809972         120.514         53.9202         123.198 
       0.816124         119.126         53.0449         122.489 
       0.822261          117.59         52.1916         121.074 
       0.828378         117.336         51.3598         119.548 
       0.834502         115.434         50.5457         119.361 
       0.840667         114.971         49.7442         118.503 
       0.846816         113.853         48.9626         117.219 
       0.852925         112.878         48.2029         116.291 
       0.859047         112.199          47.458         115.055 
       0.865192         110.687         46.7267         114.472 
       0.871341         109.605         46.0104         113.325 
       0.877463         109.049         45.3127         112.724 
       0.883569         108.665         44.6314         111.868 
       0.889708         107.748         43.9608         110.916 
       0.895864         106.691         43.3025         110.162 
       0.902008         105.856         42.6592         109.214 
       0.908149         104.702         42.0296         108.377 
       0.914301         104.403         41.4117         107.874 
       0.920448         103.755         40.8071         106.886 
       0.926574          101.94         40.2168         105.591 
       0.932687         101.594         39.6396         105.185 
       0.938823         100.737         39.0718          104.28 
       0.944975         99.6927         38.5139         103.529 
       0.951105         98.9216         37.9691         102.985 
       0.957225         98.9314         37.4359         102.357 
       0.963368         97.7716         36.9113         101.189 
       0.969511          96.913         36.3968         100.613 
       0.975621         96.2974          35.895         100.614 
       0.981748          95.371         35.4015         99.4754 
       0.987916         94.6683         34.9142         99.0131 
        0.99406         94.2618         34.4381         98.2728 
        1.00019         93.2579         33.9719         97.5598 
        1.00632         92.7278         33.5148         97.0152 
        1.01246         92.0443         33.0656         96.2003 
        1.01859         91.6302         32.6254         95.5855 
        1.02471         90.5949         32.1939          95.173 
        1.03085         90.0647         31.7688         94.4346 
        1.03698         89.4844         31.3524         93.7265 
        1.04314         88.9363         30.9418         93.1495 
        1.04929         88.3108         30.5395         92.8486 
        1.05541         87.7176         30.1461         92.4052 
        1.06154         87.2623         29.7587         91.6251 
        1.06769         86.2146         29.3777         91.1443 
        1.07382         85.8143         29.0046         90.5502 
        1.07993         85.3885         28.6389         89.8885 
        1.08607         84.6569         28.2781         89.3066 
        1.09222         84.3622         27.9232         88.6718 
        1.09836          83.597         27.5749          88.264 
        1.10449         83.1184         27.2331         87.6613 
        1.11063          82.396         26.8967         87.0106 
        1.11677         82.2364         26.5661         86.5678 
         1.1229         81.3823         26.2418         86.2877 
        1.12903         81.2575         25.9226         85.6562 
        1.13518         80.9252         25.6086         85.1461 
        1.14131         80.1062            25.3         84.7296 
        1.14745         79.2955         24.9967         84.2014 
        1.15359         78.6795         24.6983          84.001 
        1.15973         78.5413         24.4048           83.33 
        1.16584         78.0026         24.1174         82.8111 
        1.17197         77.1789         23.8343         82.3328 
        1.17811         76.8862         23.5549         81.7039 
        1.18424          76.099         23.2808         81.2778 
        1.19038         75.9938         23.0104         81.1775 
        1.19652         75.6423         22.7444         80.4147 
        1.20267         75.0438         22.4826          80.253 
        1.20881         74.5064         22.2251          79.655 
        1.21495          74.237          21.972         79.3173 
        1.22108         73.7977          21.723         78.8526 
         1.2272         73.2741         21.4785         78.5388 
        1.23334         72.8343         21.2372         78.0629 
        1.23949         72.4481          20.999         77.5349 
        1.24562         71.8474         20.7652         77.1643 
        1.25174         71.4434         20.5354         76.8956 
        1.25789          71.526         20.3084         76.4076 
        1.26402         70.8303         20.0852         75.9515 
        1.27014         70.3629          19.866         75.6044 
        1.27628         69.7813         19.6494         75.2198 
        1.28244         69.5707         19.4356         74.8641 
        1.28858         69.1282         19.2254         74.4948 
        1.29471         68.8605         19.0187         74.2033 
        1.30084         68.2737         18.8153         73.5904 
        1.30697         68.1172         18.6146         73.2027 
        1.31312         67.4837         18.4166         73.0925 
        1.31925          67.092         18.2221         72.6338 
        1.32537         66.7926         18.0306         72.2213 
        1.33151         66.4138         17.8413         71.9309 
        1.33765         66.0366         17.6547         71.6043 
        1.34378         65.8458         17.4713         71.1955 
        1.34992         65.3446         17.2903         70.8727 
        1.35606         64.9407         17.1116           70.66 
         1.3622         64.4815         16.9357         70.2658 
        1.36833         64.1307         16.7627         69.8332 
        1.37445         63.7353         16.5923         69.5627 
        1.38059          63.536         16.4237         69.4107 
        1.38675         62.8799         16.2571         68.9156 
        1.39288         62.8538         16.0935         68.7241 
        1.39901         62.3691         15.9322         68.3629 
        1.40515         62.1083         15.7728         67.9595 
         1.4113         62.0113         15.6157         67.7243 
        1.41742         61.5909         15.4613         67.5453 
        1.42355         61.0063         15.3087         66.9911 
         1.4297         60.6965         15.1578         66.6794 
        1.43585           60.27         15.0089          66.508 
        1.44198         59.9756         14.8627         66.2703 
        1.44809         59.7139         14.7187         65.7156 
        1.45423         59.4768         14.5761         65.4634 
        1.46036         59.1188         14.4356         65.2348 
        1.46649          58.953          14.297         64.9947 
        1.47263         58.4901         14.1601         64.7574 
        1.47877         58.2597         14.0251         64.4125 
        1.48491         58.0483         13.8916         64.0216 
        1.49104         57.5785         13.7601         63.7365 
        1.49718         57.3021         13.6303         63.4562 
        1.50333         57.1608          13.502         63.2899 
        1.50947         56.6348         13.3756         63.0757 
         1.5156         56.4371          13.251         62.7761 
        1.52172         56.0337          13.128         62.4756 
        1.52787         55.7736         13.0063         62.1742 
          1.534         55.5656         12.8863         61.9596 
        1.54013         55.2911          12.768         61.6458 
        1.54627         54.8354          12.651          61.316 
        1.55241         54.6197         12.5354         61.1018 
        1.55855         54.4264         12.4215          60.892 
        1.56467         54.1668         12.3092         60.5669 
         1.5708          53.909         12.1981         60.4004 
        1.57695         53.6176         12.0882         60.1776 
        1.58308         53.1703         11.9799         59.8053 
        1.58922         52.9457         11.8728         59.6219 
        1.59535         52.7808         11.7672          59.441 
         1.6015         52.6514         11.6626         59.1203 
        1.60764         52.3372         11.5594         58.8463 
        1.61376         51.9512         11.4578         58.6592 
        1.61989         51.6688         11.3573         58.3123 
        1.62604         51.4698         11.2577          58.119 
        1.63218         51.1662         11.1595         57.9731 
        1.63831         51.0666         11.0627         57.6922 
        1.64444         50.6851         10.9669         57.3959 
        1.65059         50.4921         10.8721         57.2104 
        1.65673         50.1219         10.7785         56.9493 
        1.66285         50.0592         10.6863         56.7239 
        1.66898         49.5624         10.5952         56.6367 
        1.67512         49.5012         10.5049         56.4166 
        1.68127         49.2163         10.4157         56.0777 
         1.6874         48.9546         10.3276         55.7672 
        1.69353         48.7707         10.2407         55.5882 
        1.69967         48.5781         10.1545           55.41 
        1.70581         48.0956         10.0694         55.3009 
        1.71193         47.9334         9.98557         55.1205 
        1.71806          47.808         9.90254         54.6616 
        1.72421         47.5736          9.8203         54.4148 
        1.73035         47.2727         9.73909         54.3568 
        1.73649         46.9617         9.65882         54.2214 
        1.74262         46.6931         9.57953         53.8388 
        1.74876         46.4374         9.50109         53.6171 
        1.75489         46.3216         9.42369         53.4835 
        1.76101          46.163         9.34718         53.2661 
        1.76715         45.9256         9.27143         53.0726 
        1.77329         45.6103         9.19642         52.8805 
        1.77943         45.5925         9.12223         52.6804 
        1.78557         45.2536         9.04896         52.4845 
        1.79171         45.0791         8.97649           52.26 
        1.79785         44.7976         8.90481         52.0882 
        1.80399         44.6093         8.83394         51.9799 
        1.81012          44.432         8.76393         51.6261 
        1.81625          44.091         8.69472         51.3169 
        1.82239         43.9084         8.62616         51.2242 
        1.82853          43.784         8.55837         51.0957 
        1.83466         43.5289         8.49139         50.8952 
        1.84078         43.2795         8.42519         50.7026 
        1.84692         43.0554          8.3596         50.5964 
        1.85306         42.8371         8.29463         50.3915 
         1.8592         42.6993         8.23046         50.1422 
        1.86533         42.5043         8.16701         49.9984 
        1.87147         42.2902         8.10416         49.8152 
        1.87761          42.035         8.04194         49.5929 
