# k  (h/Mpc)    P(k)  (Mpc/h)^3    P_linear(k)  (Mpc/h)^3     P_NL(k)  ShotnoiseSubtracted = false
     0.00783031            6564         6592.18         6587.73 
       0.013688         8641.11         8812.88         8772.31 
       0.019231         9413.23         9519.45         9450.78 
      0.0249154         9341.39         9350.01         9275.97 
      0.0312784         8518.76          8601.5         8522.46 
      0.0375637         7571.75         7693.87         7612.48 
      0.0433917         6876.12         6925.15         6837.24 
      0.0492413         6215.16         6310.12         6221.36 
      0.0555754         5765.76         5820.48         5730.87 
      0.0619321         5269.49         5455.57         5362.16 
       0.067871         5041.59         5160.43         5066.89 
      0.0738098         4763.03          4855.8         4737.65 
      0.0800417         4419.88          4497.9         4383.13 
      0.0862327         4019.77         4108.46         4021.05 
      0.0921407         3657.66         3732.06         3649.89 
      0.0982031         3343.44         3374.55         3324.78 
       0.104506         3003.49         3061.63         3038.81 
       0.110769         2779.12         2821.65         2786.46 
       0.116806          2657.1         2651.84         2617.08 
       0.122832         2499.96         2525.75         2499.09 
       0.129052            2396         2418.27         2392.87 
       0.135211         2322.41         2313.15         2288.46 
       0.141259          2179.6         2197.75         2185.75 
       0.147318         2026.26         2066.68         2069.49 
       0.153489         1911.72         1923.04         1911.27 
       0.159709         1813.97         1779.41         1789.57 
       0.165845         1654.54         1650.44         1694.61 
       0.171974         1603.99         1542.09          1589.8 
       0.178125         1537.56         1456.27         1528.67 
       0.184229         1431.74         1391.01         1461.24 
        0.19034         1406.14          1339.2         1410.13 
       0.196428         1366.09         1293.48         1352.75 
       0.202534         1287.32         1246.82         1311.85 
       0.208729         1263.58          1194.5         1253.03 
       0.214876         1215.72          1136.9         1217.13 
       0.220989         1139.33         1076.25          1167.8 
       0.227147         1112.07         1015.71         1113.57 
        0.23329         1068.16         959.808         1075.51 
       0.239377          1046.9         911.595         1033.92 
       0.245482         995.386         871.329          987.11 
       0.251667         958.284         837.908         964.389 
       0.257832         949.104         809.828         935.076 
       0.263955         902.487         784.471          908.09 
       0.270079         877.011         759.231         882.329 
        0.27624         840.965           732.5         853.916 
       0.282372         825.331         704.163         829.432 
        0.28843         818.495         675.105         802.272 
       0.294538         777.787         645.998         780.445 
       0.300721         754.336         618.091         758.876 
        0.30691         742.228         592.801         741.323 
       0.313033         712.028         570.797         717.225 
       0.319153           700.9         551.677         700.408 
       0.325316         688.302         534.607         688.818 
        0.33145         674.737         518.944          665.59 
       0.337538         651.979         503.832         651.317 
       0.343633         633.378         488.578         642.925 
       0.349808         618.816         472.746         629.731 
       0.355968         607.432         456.709         617.094 
       0.362074         590.263         440.948         601.829 
       0.368217         585.673         425.664         583.696 
       0.374374         574.843          411.34         572.651 
       0.380519         553.189         398.208         559.835 
       0.386598         546.678         386.389         550.905 
       0.392688         536.118         375.534         539.215 
        0.39888         522.135         365.202         529.828 
       0.405048         514.173         355.337          524.17 
       0.411186         511.139         345.685         510.822 
       0.417313         504.067         336.076         498.834 
       0.423458         489.767         326.496          490.94 
       0.429607         478.595         317.026          481.02 
       0.435692         470.358         307.917         472.495 
       0.441815         463.545         299.161         468.607 
       0.447964         453.234         290.859         459.608 
       0.454126          447.43         283.044         448.856 
       0.460267         441.029         275.746         446.047 
       0.466387         434.418         268.859         437.495 
        0.47254         428.461         262.209         431.869 
       0.478662         418.006          255.78         424.019 
       0.484765         414.092          249.51         415.144 
       0.490885         409.935         243.324         410.348 
       0.497035         403.092         237.215         405.992 
       0.503198         401.112         231.253         399.621 
       0.509342         390.807         225.515         395.018 
       0.515458          386.06         220.031         392.138 
       0.521598         378.895          214.76         384.503 
       0.527764         373.966         209.706         378.617 
       0.533884         373.324         204.913         374.485 
           0.54         366.743         200.305         369.744 
       0.546137         358.948         195.822         365.781 
       0.552299         358.255         191.431         360.229 
       0.558452         352.518         187.155         356.131 
       0.564573         349.102         183.005         353.083 
       0.570708          344.16         178.952         349.268 
       0.576825         338.514         175.021         342.926 
       0.582926          335.34         171.219         339.059 
       0.589034         331.283         167.539         335.537 
       0.595184          329.21         163.966         330.506 
       0.601379          323.06         160.499         329.209 
       0.607522         318.093         157.175          325.09 
       0.613639         315.956         153.963         321.678 
       0.619772         314.059         150.828         318.633 
       0.625918         310.274         147.765         315.866 
       0.632068         304.887         144.778         310.783 
       0.638161         301.928         141.896          308.99 
         0.6443         300.548         139.071         305.819 
       0.650464         295.663         136.313         300.869 
       0.656582         293.219         133.652         298.528 
       0.662703         291.145         131.065         296.511 
       0.668861         286.325         128.534         293.404 
       0.675024         285.333         126.071         290.096 
       0.681124         281.932         123.701         287.319 
       0.687237         278.972         121.391         284.267 
       0.693381           276.7         119.131         281.706 
       0.699536         273.362         116.925         279.567 
       0.705665         270.448         114.786         277.986 
       0.711789         268.333         112.701         274.143 
       0.717957         265.239         110.652         272.158 
        0.72409         263.288         108.665         270.894 
       0.730186          263.49         106.738         268.346 
       0.736317         259.047         104.848         265.282 
       0.742472         255.734         102.997         262.965 
       0.748622         252.442         101.194          260.33 
        0.75476         253.091         99.4395         258.804 
       0.760888         250.141         97.7305         255.744 
       0.767043         247.124         96.0562         254.449 
       0.773185         245.281         94.4256         252.787 
       0.779291         241.952          92.843         250.347 
       0.785407         240.712          91.295         247.938 
       0.791564          238.54         89.7731         246.377 
       0.797719         235.461         88.2869         244.928 
       0.803834         236.109          86.844         242.422 
       0.809972         234.199         85.4285         240.722 
       0.816124           231.2         84.0417         239.074 
       0.822261         228.576         82.6898         237.092 
       0.828378         228.883          81.372         234.591 
       0.834502         224.835         80.0821         233.775 
       0.840667          224.49         78.8123         232.386 
       0.846816         221.956         77.5739         230.065 
       0.852925         220.313         76.3704         228.236 
       0.859047         217.977         75.1902         226.737 
       0.865192         217.557         74.0314          225.42 
       0.871341         214.664         72.8967         223.437 
       0.877463         213.068         71.7912         222.501 
       0.883569         212.752         70.7118         220.822 
       0.889708         211.054         69.6494         219.319 
       0.895864         209.055         68.6064         218.137 
       0.902008         207.231         67.5872         215.883 
       0.908149         205.096         66.5896         214.219 
       0.914301         204.881         65.6108         213.558 
       0.920448         203.553         64.6528         211.688 
       0.926574         201.116         63.7176         209.663 
       0.932687         200.234          62.803         208.178 
       0.938823         198.707         61.9034         207.551 
       0.944975         196.751         61.0196         206.573 
       0.951105         195.428         60.1564         204.855 
       0.957225         194.849         59.3117         203.425 
       0.963368         192.991         58.4804         201.384 
       0.969511         190.839         57.6653         200.488 
       0.975621         189.823         56.8703         200.601 
       0.981748         188.312         56.0883         198.425 
       0.987916          187.38         55.3164         197.654 
        0.99406         186.177          54.562         196.336 
        1.00019         184.863         53.8234         194.645 
        1.00632         184.152         53.0992         193.182 
        1.01246         182.526         52.3875         191.806 
        1.01859         180.984         51.6901         191.281 
        1.02471         179.687         51.0065         190.596 
        1.03085          178.68          50.333         189.194 
        1.03698         177.273         49.6732         187.743 
        1.04314         176.571         49.0226         186.908 
        1.04929         175.702         48.3853          185.92 
        1.05541         174.419          47.762         184.877 
        1.06154         173.391         47.1483         183.993 
        1.06769         171.596         46.5446         182.932 
        1.07382         170.861         45.9535         181.788 
        1.07993          169.87         45.3741         180.646 
        1.08607         168.315         44.8025         179.919 
        1.09222         167.687         44.2402         178.828 
        1.09836         166.193         43.6884         177.659 
        1.10449         164.942         43.1467         176.543 
        1.11063         163.989         42.6137         175.257 
        1.11677         163.266         42.0901         174.566 
         1.1229         161.889         41.5762         173.797 
        1.12903         161.416         41.0705         172.688 
        1.13518         160.226          40.573         171.794 
        1.14131         159.293          40.084         170.634 
        1.14745         157.916         39.6035         169.814 
        1.15359         156.476         39.1309         168.797 
        1.15973         155.974         38.6658         168.109 
        1.16584         155.137         38.2105         167.085 
        1.17197         154.262         37.7619         166.027 
        1.17811         152.947         37.3192         165.544 
        1.18424         152.062          36.885         164.525 
        1.19038         151.539         36.4565         163.818 
        1.19652         150.154         36.0351         162.827 
        1.20267         149.315         35.6204         161.968 
        1.20881         148.358         35.2124         161.359 
        1.21495         147.988         34.8114         159.998 
        1.22108         146.626         34.4169          159.64 
         1.2272         145.633         34.0294         158.587 
        1.23334         145.173         33.6471         157.936 
        1.23949         144.545         33.2698           156.9 
        1.24562         143.183         32.8994         156.214 
        1.25174         141.952         32.5353           155.4 
        1.25789         141.815         32.1756         154.705 
        1.26402         140.927          31.822         153.763 
        1.27014         140.024         31.4747         153.663 
        1.27628         138.458         31.1315          153.05 
        1.28244         138.273         30.7929         151.457 
        1.28858         137.135         30.4597          150.71 
        1.29471         136.306         30.1323         150.351 
        1.30084         135.603         29.8101         149.414 
        1.30697         135.287         29.4921         148.621 
        1.31312         134.168         29.1784         147.808 
        1.31925         133.138         28.8702         147.137 
        1.32537         132.561         28.5669         146.435 
        1.33151         132.082         28.2668         145.771 
        1.33765         130.648         27.9713         145.181 
        1.34378          130.74         27.6807         144.249 
        1.34992         129.953          27.394         143.697 
        1.35606         128.912         27.1108         142.836 
         1.3622         128.541         26.8321         142.264 
        1.36833          127.14         26.5581         141.431 
        1.37445         126.681          26.288         140.614 
        1.38059         126.048         26.0209         140.286 
        1.38675         125.102          25.757         139.351 
        1.39288         124.565         25.4977         138.914 
        1.39901         123.368         25.2422         138.235 
        1.40515         123.247         24.9897         137.564 
         1.4113         122.491         24.7407         137.044 
        1.41742         121.582         24.4961         136.465 
        1.42355         121.026         24.2544          135.57 
         1.4297         120.266         24.0152         134.909 
        1.43585         119.343         23.7794         134.371 
        1.44198         118.695         23.5477          133.86 
        1.44809         117.916         23.3196          133.01 
        1.45423         117.406         23.0936         132.281 
        1.46036         116.483         22.8711         131.776 
        1.46649         115.921         22.6515         131.395 
        1.47263         115.544         22.4346         130.851 
        1.47877         114.726         22.2206         129.928 
        1.48491         113.902         22.0091         129.621 
        1.49104         112.919         21.8009         128.935 
        1.49718         112.908         21.5952         128.051 
        1.50333         112.175         21.3919         127.683 
        1.50947         111.708         21.1916         127.155 
         1.5156         110.973         20.9942         126.556 
        1.52172         110.243         20.7993         126.148 
        1.52787         109.458         20.6066         125.295 
          1.534         109.237         20.4165         124.822 
        1.54013         108.568          20.229         124.239 
        1.54627         107.632         20.0436         123.687 
        1.55241         107.063         19.8605         123.298 
        1.55855         106.615         19.6799          122.47 
        1.56467         105.638         19.5021         121.882 
         1.5708         105.411         19.3261          121.51 
        1.57695         104.895         19.1519         120.984 
        1.58308         104.258         18.9803          120.42 
        1.58922         103.857         18.8107         119.885 
        1.59535          103.27         18.6433         119.358 
         1.6015          102.74         18.4777         118.787 
        1.60764         102.017         18.3142         118.386 
        1.61376         101.333         18.1531         118.046 
        1.61989         100.669         17.9939         117.351 
        1.62604         100.253         17.8362         116.711 
        1.63218         99.8747         17.6806         116.257 
        1.63831         99.1182         17.5271          115.93 
        1.64444         98.6451         17.3755         115.428 
        1.65059          98.061         17.2253         114.612 
        1.65673         97.3001          17.077         114.245 
        1.66285         96.8151         16.9309         113.931 
        1.66898         96.1949         16.7865         113.246 
        1.67512          96.039         16.6435         112.927 
        1.68127         95.3487         16.5021         112.415 
         1.6874         94.8073         16.3626         111.689 
        1.69353         94.2275         16.2248         111.202 
        1.69967         93.9485         16.0883         110.906 
        1.70581         93.3714         15.9534         110.392 
        1.71193         92.7689         15.8206         109.852 
        1.71806         92.0461         15.6891         109.727 
        1.72421         91.7113         15.5588         109.136 
        1.73035         91.4651         15.4301         108.497 
        1.73649         90.7635          15.303         108.148 
        1.74262          90.007         15.1773         107.729 
        1.74876         89.7596         15.0531         107.216 
        1.75489         89.0188         14.9304         106.733 
        1.76101         88.5732         14.8092         106.274 
        1.76715         88.2955         14.6892         105.687 
        1.77329         87.5875         14.5704         105.325 
        1.77943         87.2886         14.4528          104.96 
        1.78557         86.9371         14.3367         104.318 
        1.79171         86.2833         14.2219         103.906 
        1.79785         85.8103         14.1083         103.625 
        1.80399         85.3387         13.9961         103.166 
        1.81012         84.7935         13.8851         102.761 
        1.81625          84.591         13.7755         102.319 
        1.82239          84.279         13.6669         101.857 
        1.82853         83.5118         13.5595         101.565 
        1.83466         83.0447         13.4533         101.092 
        1.84078         82.6582         13.3485         100.561 
        1.84692          82.297         13.2445         100.403 
        1.85306         81.8597         13.1416         99.9954 
         1.8592         81.4262         13.0399          99.413 
        1.86533         80.8399         12.9394         99.0597 
        1.87147         80.4159         12.8398          98.489 
        1.87761         79.9193         12.7413         97.9774 
