# k  (h/Mpc)    P(k)  (Mpc/h)^3    P_linear(k)  (Mpc/h)^3     P_NL(k)  ShotnoiseSubtracted = false
     0.00783031         6916.96         6946.27         6941.39 
       0.013688         9101.22         9286.17         9242.57 
       0.019231         9915.29         10030.6          9956.7 
      0.0249154         9841.87         9852.06         9771.34 
      0.0312784         8972.03         9063.33         8976.07 
      0.0375637         7972.82         8106.96         8016.88 
      0.0433917         7241.33         7296.96          7199.3 
      0.0492413         6543.89          6648.9          6550.2 
      0.0555754          6070.6         6132.98         6033.46 
      0.0619321         5544.74         5748.47         5644.79 
       0.067871         5305.69         5437.49         5333.83 
      0.0738098         5013.33          5116.5         4985.65 
      0.0800417         4651.67         4739.38         4612.27 
      0.0862327         4230.42         4329.03         4232.14 
      0.0921407         3849.93         3932.42         3841.32 
      0.0982031         3520.28         3555.72         3500.29 
       0.104506         3162.18            3226          3200.3 
       0.110769         2926.35         2973.13         2933.96 
       0.116806         2798.62         2794.21         2755.51 
       0.122832         2633.04         2661.35         2631.55 
       0.129052         2522.77          2548.1         2519.77 
       0.135211         2446.35         2437.34         2409.68 
       0.141259         2295.16         2315.74         2302.19 
       0.147318          2133.7         2177.63         2180.12 
       0.153489         2013.79         2026.28         2013.01 
       0.159709         1912.57         1874.94         1885.73 
       0.165845         1744.45         1739.04            1787 
       0.171974         1692.03         1624.88         1676.98 
       0.178125         1623.22         1534.46         1613.56 
       0.184229         1510.43         1465.68         1542.16 
        0.19034         1484.18          1411.1          1488.5 
       0.196428         1442.33         1362.92         1427.96 
       0.202534         1359.14         1313.75         1385.09 
       0.208729         1334.37         1258.62         1322.72 
       0.214876          1283.7         1197.93         1285.47 
       0.220989         1204.16         1134.03         1234.08 
       0.227147         1175.44         1070.24         1177.51 
        0.23329         1129.24         1011.34         1137.82 
       0.239377         1108.12         960.535         1093.99 
       0.245482         1053.88         918.107         1044.69 
       0.251667         1014.77         882.892         1021.04 
       0.257832         1004.94         853.304         990.128 
       0.263955         955.951         826.586         961.779 
       0.270079         929.294         799.991         934.753 
        0.27624         891.156         771.825         904.941 
       0.282372         875.227         741.967          879.38 
        0.28843          867.76         711.349         851.012 
       0.294538         824.684         680.679         828.038 
       0.300721         800.683         651.274         805.168 
        0.30691         787.681         624.626         787.191 
       0.313033         755.712         601.441           761.8 
       0.319153         744.184         581.294         743.868 
       0.325316         731.499         563.308         731.825 
        0.33145         717.288         546.804         707.164 
       0.337538          693.05         530.881         692.412 
       0.343633         673.555         514.807         683.782 
       0.349808         658.339         498.125         669.916 
       0.355968          646.41         481.228         656.652 
       0.362074         627.833         464.621         640.627 
       0.368217         623.474         448.516          621.53 
       0.374374         612.247         433.423         609.936 
       0.380519         589.379         419.586         596.471 
       0.386598         582.776         407.132         587.299 
       0.392688         571.589         395.695         574.642 
        0.39888         556.626         384.809         565.145 
       0.405048         548.194         374.413         559.183 
       0.411186         545.188         364.243         544.889 
       0.417313         538.284         354.119           532.5 
       0.423458         522.787         344.024         524.249 
       0.429607          510.56         334.046         513.575 
       0.435692         502.164         324.448          504.57 
       0.441815         494.921         315.221         500.573 
       0.447964         484.325         306.474         491.144 
       0.454126         478.289         298.239         479.695 
       0.460267         471.266         290.549         476.927 
       0.466387         464.399         283.293         467.809 
        0.47254         457.807         276.286         461.985 
       0.478662         447.105         269.512         453.638 
       0.484765         443.041         262.905         444.344 
       0.490885         438.665         256.387         439.134 
       0.497035         431.068          249.95         434.565 
       0.503198         429.445         243.668         427.824 
       0.509342          418.62         237.621         422.938 
       0.515458         413.203         231.843         419.929 
       0.521598         405.944         226.289         411.945 
       0.527764         400.428         220.964         405.864 
       0.533884          399.62         215.914         401.438 
           0.54         392.991         211.058         396.355 
       0.546137         384.776         206.334         392.056 
       0.552299         384.198         201.709          386.31 
       0.558452         378.132         197.202         382.076 
       0.564573         374.261          192.83         378.802 
       0.570708         369.439         188.559         374.914 
       0.576825         363.203         184.418         368.116 
       0.582926         359.959         180.411         364.009 
       0.589034         355.547         176.533         360.088 
       0.595184         353.299         172.769         354.875 
       0.601379         346.903         169.116         353.369 
       0.607522         341.555         165.613         349.153 
       0.613639         339.384         162.229         345.548 
       0.619772         337.531         158.926         342.649 
       0.625918         333.162         155.698         339.477 
       0.632068         327.798          152.55         334.141 
       0.638161         324.671         149.514         332.047 
         0.6443         323.023         146.537         328.855 
       0.650464         317.946         143.631         323.556 
       0.656582         315.182         140.828         320.966 
       0.662703          313.02         138.101         319.118 
       0.668861         308.014         135.434         315.763 
       0.675024         306.677         132.839         312.325 
       0.681124         303.218         130.342         309.093 
       0.687237         300.208         127.908         305.962 
       0.693381         297.596         125.526         303.271 
       0.699536         294.103         123.203         301.019 
       0.705665         291.087         120.948         299.195 
       0.711789         289.044         118.751         295.329 
       0.717957         285.547         116.592         293.222 
        0.72409         283.346         114.499         291.728 
       0.730186         283.855         112.468         289.086 
       0.736317         278.994         110.477         285.812 
       0.742472         275.463         108.527         283.291 
       0.748622         272.049         106.627         280.535 
        0.75476         272.652         104.778         279.106 
       0.760888         269.414         102.977         275.784 
       0.767043          266.36         101.213         274.357 
       0.773185         264.591         99.4949         272.477 
       0.779291         260.783         97.8273         269.855 
       0.785407         259.653         96.1963          267.45 
       0.791564         257.137         94.5926         265.735 
       0.797719         253.714         93.0266         264.158 
       0.803834         254.789         91.5063         261.635 
       0.809972         252.412         90.0148         259.759 
       0.816124         249.237         88.5535         257.845 
       0.822261         246.405          87.129         255.816 
       0.828378         246.769         85.7405         253.258 
       0.834502         242.495         84.3814         252.297 
       0.840667          242.18         83.0434         250.704 
       0.846816         239.215         81.7385         248.373 
       0.852925         237.685         80.4704         246.391 
       0.859047         235.121         79.2268         244.812 
       0.865192         234.853         78.0059         243.352 
       0.871341         231.654         76.8102         241.289 
       0.877463         229.808         75.6454         240.225 
       0.883569         229.474          74.508         238.508 
       0.889708         227.593         73.3886         236.794 
       0.895864         225.557         72.2895         235.538 
       0.902008         223.555         71.2156         233.172 
       0.908149         221.411         70.1645         231.338 
       0.914301         220.947         69.1331         230.633 
       0.920448         219.603         68.1237         228.515 
       0.926574         217.158         67.1383         226.516 
       0.932687         216.067         66.1747         224.856 
       0.938823         214.436         65.2268         224.285 
       0.944975         212.484         64.2955         223.245 
       0.951105         210.957          63.386           221.4 
       0.957225         210.117         62.4958         219.774 
       0.963368         208.395           61.62         217.655 
       0.969511         205.866         60.7611         216.667 
       0.975621         204.857         59.9234         216.651 
       0.981748         203.288         59.0995         214.429 
       0.987916         202.302         58.2861         213.558 
        0.99406         200.874         57.4912         212.216 
        1.00019         199.585         56.7129          210.37 
        1.00632         198.825         55.9499         208.698 
        1.01246          197.08            55.2         207.256 
        1.01859         195.299         54.4652          206.72 
        1.02471         193.895         53.7448         205.958 
        1.03085         192.933         53.0351         204.456 
        1.03698         191.336           52.34         202.994 
        1.04314         190.729         51.6544         202.002 
        1.04929         189.663         50.9829         200.817 
        1.05541         188.228         50.3262         199.711 
        1.06154         187.124         49.6795         198.758 
        1.06769         185.176         49.0433         197.641 
        1.07382         184.551         48.4205         196.383 
        1.07993         183.296         47.8101         195.175 
        1.08607         181.649         47.2077         194.451 
        1.09222         180.922         46.6153         193.302 
        1.09836         179.503         46.0338         192.081 
        1.10449         177.984         45.4631         190.814 
        1.11063         176.998         44.9015         189.455 
        1.11677         176.281         44.3497         188.688 
         1.1229          174.74         43.8082          187.81 
        1.12903         174.228         43.2754         186.688 
        1.13518         172.931         42.7512         185.676 
        1.14131         171.904          42.236          184.44 
        1.14745         170.391         41.7296         183.542 
        1.15359         168.814         41.2316         182.446 
        1.15973         168.353         40.7416         181.607 
        1.16584          167.51         40.2618         180.481 
        1.17197         166.532         39.7892         179.346 
        1.17811         164.993         39.3227          178.93 
        1.18424         164.094         38.8652         177.767 
        1.19038         163.381         38.4137         176.969 
        1.19652         161.928         37.9696         176.033 
        1.20267         161.106         37.5327         175.047 
        1.20881         160.022         37.1027         174.415 
        1.21495         159.651         36.6803          172.88 
        1.22108         158.164         36.2646         172.552 
         1.2272         157.093         35.8563         171.325 
        1.23334         156.603         35.4535         170.657 
        1.23949         155.976         35.0559         169.607 
        1.24562         154.522         34.6657         168.744 
        1.25174         153.149          34.282         167.931 
        1.25789         152.871          33.903         167.153 
        1.26402         152.075         33.5304         166.085 
        1.27014         151.027         33.1644         166.023 
        1.27628         149.302         32.8028         165.379 
        1.28244         149.094          32.446         163.666 
        1.28858         147.905          32.095         162.856 
        1.29471         147.004           31.75         162.429 
        1.30084         146.226         31.4105          161.47 
        1.30697         145.772         31.0754         160.597 
        1.31312         144.629         30.7448         159.612 
        1.31925         143.422         30.4201         158.938 
        1.32537         142.937         30.1005         158.222 
        1.33151         142.241         29.7843         157.456 
        1.33765         140.725          29.473         156.817 
        1.34378         140.847         29.1667         155.795 
        1.34992         140.042         28.8646          155.19 
        1.35606           138.9         28.5662         154.243 
         1.3622         138.506         28.2726         153.599 
        1.36833         136.927         27.9838         152.757 
        1.37445         136.572         27.6993          151.85 
        1.38059         135.758         27.4179         151.468 
        1.38675         134.818         27.1397         150.508 
        1.39288         134.099         26.8666         149.945 
        1.39901         132.941         26.5974         149.265 
        1.40515         132.728         26.3313         148.531 
         1.4113         131.944         26.0689         147.916 
        1.41742         130.918         25.8112         147.354 
        1.42355         130.416         25.5565         146.486 
         1.4297         129.506         25.3045         145.718 
        1.43585         128.509          25.056         145.075 
        1.44198         127.738         24.8119         144.474 
        1.44809         126.861         24.5715         143.636 
        1.45423         126.447         24.3334         142.807 
        1.46036         125.477         24.0989         142.237 
        1.46649         124.754         23.8675         141.824 
        1.47263         124.413          23.639         141.246 
        1.47877         123.379         23.4135         140.287 
        1.48491         122.564         23.1907         139.877 
        1.49104         121.441         22.9713         139.221 
        1.49718         121.516         22.7546          138.18 
        1.50333         120.701         22.5403         137.802 
        1.50947         120.135         22.3293         137.245 
         1.5156         119.322         22.1213         136.571 
        1.52172         118.569          21.916         136.157 
        1.52787         117.767         21.7128         135.193 
          1.534         117.468         21.5126         134.652 
        1.54013         116.721          21.315         134.056 
        1.54627         115.743         21.1197         133.464 
        1.55241         115.139         20.9267         133.022 
        1.55855         114.601         20.7365         132.134 
        1.56467         113.603         20.5491         131.495 
         1.5708         113.325         20.3636          131.09 
        1.57695         112.766         20.1801           130.5 
        1.58308         112.057         19.9993         129.846 
        1.58922          111.68         19.8206          129.26 
        1.59535          111.06         19.6442         128.713 
         1.6015         110.296         19.4697         128.115 
        1.60764         109.527         19.2974         127.653 
        1.61376         108.856         19.1277         127.255 
        1.61989         108.245         18.9599         126.534 
        1.62604         107.693         18.7938         125.848 
        1.63218         107.293         18.6297         125.346 
        1.63831         106.401         18.4681         124.986 
        1.64444         105.896         18.3083         124.439 
        1.65059         105.217           18.15         123.578 
        1.65673         104.515         17.9938         123.165 
        1.66285         104.032         17.8399         122.814 
        1.66898         103.294         17.6877         122.094 
        1.67512         103.077          17.537         121.701 
        1.68127         102.321          17.388         121.136 
         1.6874         101.769          17.241         120.394 
        1.69353         101.047         17.0958         119.883 
        1.69967         100.808          16.952         119.493 
        1.70581         100.221         16.8099         118.914 
        1.71193         99.5434           16.67         118.357 
        1.71806         98.7747         16.5314         118.196 
        1.72421         98.3672         16.3941         117.586 
        1.73035         98.0805         16.2585         116.876 
        1.73649         97.3415         16.1245         116.434 
        1.74262         96.5956         15.9921         116.042 
        1.74876         96.2308         15.8612         115.501 
        1.75489         95.5293          15.732         114.926 
        1.76101          94.996         15.6043           114.4 
        1.76715         94.5783         15.4778         113.819 
        1.77329         93.9391         15.3526         113.447 
        1.77943          93.534         15.2287         113.049 
        1.78557         93.1445         15.1064         112.389 
        1.79171         92.4902         14.9854         111.939 
        1.79785         91.9145         14.8658         111.603 
        1.80399         91.4545         14.7474         111.094 
        1.81012         90.8223         14.6306         110.648 
        1.81625          90.585          14.515         110.171 
        1.82239         90.2655         14.4006          109.66 
        1.82853         89.4515         14.2874         109.291 
        1.83466         88.8986         14.1756         108.791 
        1.84078         88.5104         14.0651         108.266 
        1.84692         88.1546         13.9556         108.058 
        1.85306         87.6368         13.8471         107.604 
         1.8592         87.1962           13.74             107 
        1.86533         86.5885         13.6341         106.595 
        1.87147         86.0705         13.5291         105.931 
        1.87761         85.5697         13.4253         105.386 
