# k  (h/Mpc)    Pcb(k)  (Mpc/h)^3    Pcb_linear(k) (Mpc/h)^3    Pcb_NL(k) (Mpc/h)^3   ShotnoiseSubtracted = false
     0.00783031         13215.9         13262.2         13245.8 
       0.013688         17254.9         17722.1         17610.1 
       0.019231         18816.5         19140.2         18946.9 
      0.0249154         18734.4         18798.1         18556.2 
      0.0312784         16986.4         17292.3         16996.9 
      0.0375637         15043.7         15467.2         15156.8 
      0.0433917         13684.3         13921.6         13575.3 
      0.0492413           12331           12685         12332.5 
      0.0555754         11425.7         11700.6         11350.4 
      0.0619321           10351         10966.9         10605.5 
       0.067871         9916.74         10373.6         10017.6 
      0.0738098         9396.15         9761.15         9314.23 
      0.0800417         8698.06         9041.66         8609.89 
      0.0862327         7912.05         8258.79         7927.13 
      0.0921407         7220.65         7502.13         7193.19 
      0.0982031         6633.54         6783.46         6587.77 
       0.104506         5959.38         6154.41         6056.98 
       0.110769         5527.28            5672         5541.27 
       0.116806         5299.28         5330.65         5200.62 
       0.122832         4995.25         5077.18         4974.12 
       0.129052         4757.39         4861.12         4767.09 
       0.135211         4639.46         4649.81         4552.34 
       0.141259         4335.79         4417.83         4371.31 
       0.147318         4043.45         4154.35         4147.01 
       0.153489         3834.42         3865.62         3821.91 
       0.159709         3689.08         3576.89         3605.59 
       0.165845         3373.34         3317.64         3452.25 
       0.171974         3281.69         3099.84         3257.57 
       0.178125         3184.11         2927.34         3161.51 
       0.184229         2942.35         2796.14         3014.61 
        0.19034         2910.78            2692         2918.16 
       0.196428          2840.7         2600.08            2807 
       0.202534         2689.77         2506.29         2731.26 
       0.208729         2637.57         2401.12         2604.45 
       0.214876         2535.52         2285.33         2540.92 
       0.220989         2419.81         2163.43         2460.81 
       0.227147         2357.85         2041.72         2372.91 
        0.23329         2268.69         1929.36         2301.29 
       0.239377         2257.19         1832.44         2216.24 
       0.245482         2160.26          1751.5         2126.88 
       0.251667         2083.14         1684.32         2086.05 
       0.257832         2054.22         1627.87         2029.19 
       0.263955         1971.95          1576.9         1980.31 
       0.270079         1933.22         1526.17         1929.99 
        0.27624         1853.16         1472.43         1875.69 
       0.282372         1838.81         1415.47          1841.9 
        0.28843          1804.6         1357.06         1799.48 
       0.294538          1730.3         1298.55         1749.71 
       0.300721         1703.15         1242.45         1699.27 
        0.30691         1661.75         1191.62         1677.77 
       0.313033         1605.62         1147.39          1631.3 
       0.319153         1591.89         1108.95         1589.22 
       0.325316         1573.41         1074.64         1571.87 
        0.33145         1543.77         1043.15         1521.07 
       0.337538         1498.96         1012.77         1501.34 
       0.343633         1467.19          982.11         1485.07 
       0.349808         1445.41          950.29         1460.35 
       0.355968          1415.2          918.05          1437.3 
       0.362074         1380.86         886.369          1408.7 
       0.368217         1376.95         855.649         1375.66 
       0.374374          1355.4         826.851         1353.71 
       0.380519         1313.91         800.456         1330.71 
       0.386598         1311.41         776.697         1312.85 
       0.392688         1278.18         754.878         1288.11 
        0.39888          1256.4         734.109         1273.41 
       0.405048         1234.07         714.278         1256.08 
       0.411186         1226.67         694.877          1232.8 
       0.417313         1227.05         675.562         1218.42 
       0.423458         1189.86         656.302         1196.93 
       0.429607         1160.02         637.269         1176.55 
       0.435692         1152.64         618.958         1155.78 
       0.441815         1131.57         601.356         1154.38 
       0.447964         1122.12         584.667         1138.65 
       0.454126          1106.9         568.962         1109.29 
       0.460267         1095.33         554.287         1109.46 
       0.466387         1079.54         540.446         1088.66 
        0.47254         1059.32         527.078          1076.4 
       0.478662         1049.38         514.155         1064.42 
       0.484765         1040.27         501.551         1052.68 
       0.490885          1027.9         489.117         1033.88 
       0.497035         1011.37         476.836          1025.8 
       0.503198         1010.24         464.852            1015 
       0.509342         992.325         453.317          997.56 
       0.515458         972.835         442.293         993.001 
       0.521598         973.634         431.697         984.925 
       0.527764         950.399         421.539          975.01 
       0.533884         941.629         411.904         964.616 
           0.54         934.678         402.641         955.349 
       0.546137         925.175         393.629         944.642 
       0.552299          917.19         384.805         931.719 
       0.558452         909.593         376.208         925.095 
       0.564573          903.05         367.866         916.104 
       0.570708         893.903         359.719         906.411 
       0.576825         876.488         351.818         895.131 
       0.582926          874.45         344.175         888.897 
       0.589034         865.618         336.777         875.984 
       0.595184         854.983         329.596         870.064 
       0.601379         841.748         322.626         863.369 
       0.607522         832.307         315.944         851.474 
       0.613639          831.13         309.488         848.505 
       0.619772         822.327         303.186         846.206 
       0.625918         813.653         297.029         836.292 
       0.632068         807.234         291.024         831.175 
       0.638161         795.937         285.231         816.273 
         0.6443         789.915         279.552         813.066 
       0.650464         784.517         274.009         803.016 
       0.656582          778.67          268.66         797.588 
       0.662703          767.41         263.458         792.102 
       0.668861         760.763         258.371         788.809 
       0.675024         755.873         253.421         784.979 
       0.681124         743.959         248.657         771.616 
       0.687237         744.339         244.013         766.296 
       0.693381         730.917          239.47         759.038 
       0.699536         732.263         235.037         753.963 
       0.705665         722.767         230.735         747.082 
       0.711789         720.054         226.544         740.634 
       0.717957         711.691         222.426          739.26 
        0.72409          705.55         218.432         733.041 
       0.730186         702.282         214.559         725.961 
       0.736317         694.367         210.759         719.535 
       0.742472         685.525         207.039         714.734 
       0.748622         683.107         203.415         708.837 
        0.75476         675.371         199.887         709.066 
       0.760888           671.8         196.452         701.182 
       0.767043         669.198         193.087         692.424 
       0.773185         664.457         189.809         688.709 
       0.779291         656.577         186.628         682.684 
       0.785407         651.573         183.516         678.646 
       0.791564          647.14         180.457          677.64 
       0.797719         637.711         177.469         670.519 
       0.803834          638.29         174.569          666.51 
       0.809972         630.236         171.723          663.61 
       0.816124         625.668         168.936         654.813 
       0.822261         621.854         166.218         651.023 
       0.828378         619.143         163.569         647.112 
       0.834502         609.524         160.976         645.342 
       0.840667         608.134         158.424          640.76 
       0.846816         603.292         155.935          635.86 
       0.852925         600.142         153.515         631.779 
       0.859047         594.685         151.143         625.536 
       0.865192         591.027         148.814         622.065 
       0.871341         584.401         146.533         619.067 
       0.877463         583.282         144.311         615.438 
       0.883569         576.773         142.141         610.497 
       0.889708         570.721         140.005         605.374 
       0.895864         565.476         137.909         602.174 
       0.902008         564.562          135.86         598.875 
       0.908149         559.281         133.854         593.461 
       0.914301         557.058         131.887         589.182 
       0.920448         550.056         129.961         587.026 
       0.926574         547.712         128.081         582.652 
       0.932687         545.679         126.243         579.162 
       0.938823         539.015         124.435         576.969 
       0.944975         535.573         122.658         573.007 
       0.951105         532.036         120.923         567.437 
       0.957225         524.684         119.225         566.534 
       0.963368         525.727         117.554         562.476 
       0.969511         518.067         115.915         558.525 
       0.975621         516.436         114.317         554.827 
       0.981748         512.847         112.746         550.754 
       0.987916         509.892         111.194          549.99 
        0.99406         504.949         109.677         545.571 
        1.00019         500.325         108.193          539.78 
        1.00632         497.857         106.737         537.055 
        1.01246         494.405         105.306         534.239 
        1.01859           489.9         103.905             530 
        1.02471         488.132          102.53         528.247 
        1.03085         483.938         101.176         527.041 
        1.03698         482.207         99.8502         524.013 
        1.04314         476.879         98.5424         520.499 
        1.04929         475.646         97.2613         515.932 
        1.05541         468.965         96.0084         512.274 
        1.06154         467.808         94.7748         509.114 
        1.06769         463.493         93.5611         505.587 
        1.07382         459.444          92.373         503.213 
        1.07993         459.068         91.2084         500.507 
        1.08607         455.103         90.0593         496.979 
        1.09222         451.225         88.9291         493.659 
        1.09836         447.736         87.8198         492.548 
        1.10449         443.832          86.731         489.696 
        1.11063         442.022         85.6596         485.007 
        1.11677          437.45          84.607         483.878 
         1.1229         435.564          83.574         480.464 
        1.12903         431.616         82.5576         477.667 
        1.13518         429.909         81.5574         474.741 
        1.14131         427.456         80.5746          472.03 
        1.14745         422.507         79.6086         469.132 
        1.15359         419.786         78.6585         467.524 
        1.15973         417.598         77.7237         464.432 
        1.16584         415.635         76.8084         462.171 
        1.17197         412.481         75.9067         459.261 
        1.17811         407.613         75.0169         456.558 
        1.18424         406.206         74.1441         454.796 
        1.19038         403.886         73.2828         451.931 
        1.19652         399.432         72.4356         449.167 
        1.20267         398.272          71.602         446.386 
        1.20881          396.25         70.7818         443.685 
        1.21495         390.952         69.9759         441.222 
        1.22108         390.634         69.1828           438.8 
         1.2272         385.172          68.404         436.182 
        1.23334         384.295         67.6355         433.245 
        1.23949         380.836         66.8771         431.366 
        1.24562         380.668         66.1325         429.365 
        1.25174         376.577         65.4005         427.161 
        1.25789         373.567         64.6775         424.889 
        1.26402         371.399         63.9668          422.95 
        1.27014         369.438         63.2685         419.244 
        1.27628         365.799         62.5787         418.441 
        1.28244          363.43          61.898         416.782 
        1.28858         361.853         61.2284         413.763 
        1.29471         360.036         60.5702         411.141 
        1.30084         357.648         59.9225         408.673 
        1.30697         353.876         59.2833         406.972 
        1.31312         351.828         58.6526         405.255 
        1.31925         349.525         58.0332         402.434 
        1.32537         347.688         57.4234         399.805 
        1.33151         344.432         56.8203         398.574 
        1.33765         341.858         56.2263         396.647 
        1.34378         339.477          55.642         393.611 
        1.34992         336.917         55.0657         391.067 
        1.35606         334.646         54.4965         389.361 
         1.3622          333.19         53.9363         387.883 
        1.36833         331.884         53.3854         386.218 
        1.37445         329.769         52.8426         383.426 
        1.38059         325.941         52.3058         382.136 
        1.38675         324.491         51.7751         380.764 
        1.39288         322.833          51.254         377.483 
        1.39901         320.004         50.7404         375.195 
        1.40515         318.381         50.2328         372.927 
         1.4113         315.964         49.7323         370.943 
        1.41742         312.981         49.2406         369.673 
        1.42355         312.422         48.7547         367.486 
         1.4297         310.099          48.274         365.343 
        1.43585          306.09            47.8         364.475 
        1.44198         305.643         47.3342         362.038 
        1.44809          303.78         46.8756           360.6 
        1.45423         301.127         46.4214         357.496 
        1.46036         299.785         45.9741         356.022 
        1.46649          297.86         45.5326         354.531 
        1.47263         294.662         45.0966         351.985 
        1.47877         293.668         44.6666          350.21 
        1.48491         290.972         44.2415         348.244 
        1.49104         288.745         43.8229         346.271 
        1.49718         287.196         43.4094         345.829 
        1.50333         285.079         43.0007         344.177 
        1.50947          284.23         42.5981         342.001 
         1.5156         280.968         42.2013         339.995 
        1.52172         279.491         41.8096         337.925 
        1.52787         277.468         41.4221         336.366 
          1.534         276.792           41.04         334.982 
        1.54013         274.147         40.6632         333.223 
        1.54627          272.36         40.2905         331.582 
        1.55241         270.807         39.9224         330.333 
        1.55855         268.865         39.5594         328.946 
        1.56467         267.056         39.2021         326.393 
         1.5708         265.556         38.8481         324.372 
        1.57695         263.999          38.498         323.028 
        1.58308          262.79         38.1531         321.188 
        1.58922         260.495         37.8122         319.707 
        1.59535          258.03         37.4757         318.704 
         1.6015         256.958         37.1428         317.312 
        1.60764         255.273         36.8141         315.228 
        1.61376         253.203         36.4903         313.412 
        1.61989         251.782         36.1703         312.114 
        1.62604           249.8         35.8533         310.346 
        1.63218          248.27         35.5404          308.96 
        1.63831         247.171          35.232         307.803 
        1.64444         245.042         34.9271          305.73 
        1.65059         244.214         34.6252         304.341 
        1.65673         241.981         34.3272         303.209 
        1.66285         240.661         34.0335         301.492 
        1.66898           239.2         33.7432         299.406 
        1.67512         237.009         33.4558         298.501 
        1.68127         235.817         33.1714         297.062 
         1.6874         234.174         32.8911         295.343 
        1.69353         233.324         32.6141          294.42 
        1.69967         231.599         32.3397         292.677 
        1.70581         229.614         32.0687         291.168 
        1.71193         228.536         31.8017         290.062 
        1.71806         226.345         31.5373         288.392 
        1.72421         225.324         31.2754         286.947 
        1.73035         223.392         31.0167         285.388 
        1.73649         221.822         30.7611         283.818 
        1.74262         220.912         30.5086         283.068 
        1.74876         219.298         30.2588         281.616 
        1.75489          218.15         30.0123         280.032 
        1.76101         216.962         29.7686         279.053 
        1.76715         215.113         29.5273         277.875 
        1.77329         213.096         29.2885         276.607 
        1.77943         212.038         29.0522         275.222 
        1.78557         211.013         28.8188         273.652 
        1.79171          210.04         28.5881         272.396 
        1.79785         208.335         28.3598         271.166 
        1.80399         207.083          28.134         269.675 
        1.81012         205.611         27.9111          268.84 
        1.81625         204.171         27.6907         267.653 
        1.82239         202.796         27.4723         265.926 
        1.82853         202.019         27.2564         264.835 
        1.83466         200.333         27.0431         263.619 
        1.84078         199.029         26.8323         262.255 
        1.84692         197.996         26.6234         261.417 
        1.85306         196.301         26.4165         260.134 
         1.8592         195.461         26.2121         258.673 
        1.86533         193.554           26.01          257.81 
        1.87147         192.931         25.8099         256.724 
