# k  (h/Mpc)    P(k)  (Mpc/h)^3    P_linear(k)  (Mpc/h)^3     P_NL(k)  ShotnoiseSubtracted = false
     0.00783031         143.607         144.568         144.437 
       0.013688         191.984         193.383         192.783 
       0.019231         208.347         208.942         208.034 
      0.0249154          204.92         205.254         204.632 
      0.0312784         188.623         188.841         188.593 
      0.0375637         168.764         168.925         168.817 
      0.0433917         152.232         152.053         152.065 
      0.0492413         138.553         138.553         138.588 
      0.0555754         128.008         127.804         127.801 
      0.0619321         119.446         119.794         119.762 
       0.067871         113.219         113.314         113.229 
      0.0738098         106.552         106.626         106.495 
      0.0800417          98.787          98.768         98.6514 
      0.0862327         90.1579          90.217         90.1409 
      0.0921407         81.8796         81.9521         81.9146 
      0.0982031         74.1666          74.102         74.1082 
       0.104506         67.1257         67.2307         67.2647 
       0.110769         61.8798         61.9612         61.9847 
       0.116806         58.2969         58.2324          58.233 
       0.122832         55.3752         55.4637         55.4582 
       0.129052         53.0867         53.1036          53.083 
       0.135211         50.8226         50.7954         50.7652 
       0.141259         48.1921         48.2613         48.2378 
       0.147318         45.2217         45.3831         45.3782 
       0.153489         42.1612         42.2289         42.2221 
       0.159709         39.0629         39.0749          39.092 
       0.165845         36.0949         36.2428         36.2915 
       0.171974         33.9037         33.8637         33.9123 
       0.178125         32.0081         31.9791          32.045 
       0.184229         30.4984         30.5459           30.61 
        0.19034         29.4564         29.4083         29.4666 
       0.196428         28.4081         28.4042          28.444 
       0.202534         27.2626         27.3796         27.4206 
       0.208729         26.2031         26.2307         26.2699 
       0.214876         25.0161         24.9658         25.0255 
       0.220989         23.5451         23.6342         23.7043 
       0.227147         22.3726         22.3046         22.3776 
        0.23329         21.1628         21.0771         21.1693 
       0.239377         20.1158         20.0183          20.122 
       0.245482         19.2175         19.1341         19.2294 
       0.251667         18.4297         18.4002         18.5042 
       0.257832          17.872         17.7836         17.8847 
       0.263955         17.2658         17.2267         17.3215 
       0.270079         16.7064         16.6725         16.7621 
        0.27624         16.0691         16.0855         16.1698 
       0.282372         15.4623         15.4632         15.5548 
        0.28843         14.8994         14.8251         14.9207 
       0.294538         14.2486         14.1859         14.2886 
       0.300721         13.5976         13.5731         13.6853 
        0.30691         13.1009         13.0178         13.1326 
       0.313033         12.6025         12.5346         12.6481 
       0.319153         12.2556         12.1147         12.2362 
       0.325316         11.7752         11.7398         11.8655 
        0.33145         11.4347         11.3959         11.5136 
       0.337538         11.1205          11.064         11.1775 
       0.343633         10.8015          10.729         10.8416 
       0.349808         10.4407         10.3814          10.498 
       0.355968          10.079         10.0292         10.1608 
       0.362074         9.76157         9.68311         9.80937 
       0.368217         9.42454         9.34748         9.46418 
       0.374374         9.15594         9.03292         9.16007 
       0.380519         8.82043         8.74454         8.86818 
       0.386598          8.5494         8.48501         8.61331 
       0.392688         8.30164         8.24665         8.37418 
        0.39888         8.09327         8.01976         8.14561 
       0.405048          7.8807         7.80311         7.92222 
       0.411186         7.66037         7.59116         7.72257 
       0.417313         7.45705         7.38016         7.50618 
       0.423458         7.22313         7.16977         7.29817 
       0.429607         7.04588         6.96183          7.0864 
       0.435692         6.85479         6.76179         6.89194 
       0.441815         6.64417          6.5695         6.70744 
       0.447964         6.44054         6.38719         6.52107 
       0.454126         6.29756         6.21558         6.34756 
       0.460267         6.16177         6.05532          6.1907 
       0.466387         5.99554         5.90409         6.03385 
        0.47254         5.85858         5.75806           5.889 
       0.478662         5.70903         5.61688         5.74536 
       0.484765         5.57457         5.47919         5.60915 
       0.490885         5.42821         5.34335         5.48211 
       0.497035         5.27799         5.20919         5.34883 
       0.503198         5.16259         5.07827         5.20733 
       0.509342         5.02219         4.95225         5.08526 
       0.515458         4.91924         4.83183         4.97092 
       0.521598          4.8033         4.71608         4.84519 
       0.527764         4.70937          4.6051         4.73407 
       0.533884         4.57534         4.49984         4.62976 
           0.54         4.48141         4.39865         4.52621 
       0.546137         4.36907          4.3002          4.4304 
       0.552299         4.28224          4.2038         4.32582 
       0.558452         4.19007         4.10988         4.23391 
       0.564573         4.10331         4.01876          4.1524 
       0.570708         4.01242         3.92975          4.0607 
       0.576825          3.9266         3.84343         3.97215 
       0.582926         3.83533         3.75994         3.89085 
       0.589034         3.76934         3.67911         3.81375 
       0.595184         3.69625         3.60067         3.72348 
       0.601379         3.60739         3.52453         3.65597 
       0.607522         3.53244         3.45153         3.58101 
       0.613639         3.45019           3.381         3.50876 
       0.619772         3.39667         3.31216         3.44394 
       0.625918         3.32663         3.24489         3.37185 
       0.632068         3.26404         3.17929         3.30455 
       0.638161         3.19758         3.11601         3.24061 
         0.6443         3.13337         3.05396         3.17649 
       0.650464           3.072         2.99341         3.12081 
       0.656582         3.02377         2.93498         3.06045 
       0.662703         2.96463         2.87815           3.002 
       0.668861          2.8939         2.82257         2.95018 
       0.675024         2.84609         2.76849         2.89294 
       0.681124         2.81671         2.71646         2.83917 
       0.687237         2.75163         2.66572         2.78407 
       0.693381         2.68892         2.61609         2.73153 
       0.699536         2.65656         2.56766         2.68463 
       0.705665         2.60671         2.52067         2.64484 
       0.711789         2.55059         2.47488         2.59713 
       0.717957         2.50769          2.4299         2.54817 
        0.72409         2.46419         2.38626         2.50461 
       0.730186         2.43081         2.34395          2.4589 
       0.736317         2.38133         2.30244         2.41651 
       0.742472         2.34563          2.2618         2.38239 
       0.748622         2.30725          2.2222         2.34232 
        0.75476         2.26103         2.18367         2.29846 
       0.760888         2.23201         2.14614         2.26199 
       0.767043         2.17459         2.10938         2.22625 
       0.773185         2.14741         2.07357         2.19178 
       0.779291         2.12331         2.03881         2.15618 
       0.785407         2.08287         2.00482          2.1203 
       0.791564         2.04984          1.9714         2.08681 
       0.797719         2.01521         1.93876          2.0497 
       0.803834         1.98199         1.90708         2.01952 
       0.809972         1.95146         1.87599         1.99141 
       0.816124         1.92002         1.84554         1.95669 
       0.822261          1.8933         1.81585         1.92632 
       0.828378         1.85944         1.78691         1.89707 
       0.834502         1.83213         1.75859         1.86646 
       0.840667         1.80788          1.7307         1.83994 
       0.846816         1.77917         1.70351         1.81693 
       0.852925         1.74754         1.67708         1.78751 
       0.859047         1.72273         1.65116         1.76449 
       0.865192         1.69772         1.62572         1.73628 
       0.871341         1.67496          1.6008         1.70966 
       0.877463         1.64496         1.57652         1.68405 
       0.883569         1.62228         1.55282         1.66202 
       0.889708         1.60213         1.52949          1.6382 
       0.895864         1.57891         1.50658          1.6139 
       0.902008         1.55189          1.4842         1.59094 
       0.908149         1.53338          1.4623            1.57 
       0.914301         1.51484          1.4408         1.54562 
       0.920448         1.49266         1.41976         1.52365 
       0.926574         1.47542         1.39923         1.50371 
       0.932687         1.45296         1.37914         1.48056 
       0.938823         1.42754         1.35939         1.46575 
       0.944975         1.41221         1.33998         1.44055 
       0.951105         1.38716         1.32102         1.42162 
       0.957225         1.36869         1.30247          1.4059 
       0.963368         1.35415         1.28422         1.38511 
       0.969511          1.3381         1.26632         1.36714 
       0.975621         1.31633         1.24886         1.34542 
       0.981748         1.29418         1.23169         1.32904 
       0.987916         1.27908         1.21474         1.31546 
        0.99406         1.26581         1.19817         1.29906 
        1.00019         1.24806         1.18195         1.28212 
        1.00632         1.23635         1.16605         1.26394 
        1.01246         1.21841         1.15042         1.24716 
        1.01859         1.20245         1.13511         1.23276 
        1.02471          1.1834         1.12009         1.21791 
        1.03085         1.16811          1.1053         1.19983 
        1.03698          1.1561         1.09082         1.18434 
        1.04314         1.14197         1.07653         1.17099 
        1.04929         1.12995         1.06253          1.1566 
        1.05541         1.11063         1.04885         1.14398 
        1.06154          1.0999         1.03537         1.12993 
        1.06769         1.08759         1.02211         1.11558 
        1.07382         1.07343         1.00913          1.1023 
        1.07993         1.06091        0.996408           1.089 
        1.08607         1.04764        0.983855         1.07641 
        1.09222         1.03321        0.971508         1.06244 
        1.09836         1.02273         0.95939         1.05112 
        1.10449         1.00812        0.947495         1.03866 
        1.11063        0.996244         0.93579         1.02512 
        1.11677        0.986955         0.92429         1.01477 
         1.1229        0.971111        0.913006         1.00308 
        1.12903        0.963081        0.901902        0.991237 
        1.13518        0.950169        0.890976        0.980113 
        1.14131        0.940775        0.880239        0.969393 
        1.14745        0.932423        0.869686         0.95664 
        1.15359         0.91928        0.859307        0.946822 
        1.15973        0.910383        0.849094        0.937249 
        1.16584        0.897873        0.839095        0.925578 
        1.17197        0.887284        0.829245         0.91543 
        1.17811        0.876848        0.819524        0.906447 
        1.18424         0.86745        0.809989        0.894787 
        1.19038         0.85633        0.800579        0.885495 
        1.19652        0.850769        0.791324        0.876436 
        1.20267        0.841368        0.782217        0.864718 
        1.20881        0.827892        0.773257        0.857245 
        1.21495         0.82102        0.764453        0.849856 
        1.22108         0.81249        0.755789        0.838905 
         1.2272        0.801549        0.747281        0.828888 
        1.23334        0.794136        0.738885         0.82105 
        1.23949        0.787478          0.7306        0.813645 
        1.24562        0.778204        0.722466        0.804914 
        1.25174        0.769731         0.71447        0.795413 
        1.25789         0.75937        0.706571        0.786981 
        1.26402        0.753057        0.698806        0.779136 
        1.27014        0.743136        0.691179        0.770866 
        1.27628        0.737694        0.683643        0.762773 
        1.28244        0.730207        0.676206        0.755266 
        1.28858        0.720807        0.668891        0.746354 
        1.29471         0.71359        0.661701        0.739848 
        1.30084        0.706416        0.654625        0.733967 
        1.30697        0.701298        0.647642        0.725928 
        1.31312        0.693417        0.640752        0.718324 
        1.31925        0.686001        0.633985        0.711969 
        1.32537        0.679206        0.627324        0.705184 
        1.33151        0.672157        0.620735        0.698058 
        1.33765        0.665036        0.614246        0.691212 
        1.34378        0.657108        0.607863        0.684673 
        1.34992        0.653619        0.601567        0.678269 
        1.35606        0.645679        0.595348        0.670528 
         1.3622          0.6396        0.589229        0.664289 
        1.36833         0.63433        0.583211        0.658583 
        1.37445        0.628413        0.577281        0.652752 
        1.38059         0.62143        0.571416        0.645844 
        1.38675        0.614931        0.565619        0.639752 
        1.39288        0.607957        0.559926        0.633341 
        1.39901        0.604059        0.554315        0.627881 
        1.40515        0.597437        0.548769        0.621781 
         1.4113        0.593652        0.543302        0.616537 
        1.41742        0.587018        0.537931        0.612118 
        1.42355        0.579244        0.532622        0.604197 
         1.4297        0.576835        0.527371        0.600018 
        1.43585        0.569526        0.522192        0.594349 
        1.44198        0.565187        0.517104        0.586976 
        1.44809        0.558898        0.512094        0.584042 
        1.45423        0.554735        0.507132        0.576665 
        1.46036        0.549222        0.502246        0.572297 
        1.46649        0.544117        0.497422        0.568545 
        1.47263        0.537815        0.492659        0.562848 
        1.47877        0.536167        0.487961        0.557873 
        1.48491        0.528003        0.483317        0.553541 
        1.49104        0.526363        0.478744         0.54727 
        1.49718        0.519791        0.474228        0.543904 
        1.50333        0.516075        0.469763        0.537458 
        1.50947         0.51188        0.465364        0.532575 
         1.5156        0.506512         0.46103        0.529224 
        1.52172        0.502789         0.45675        0.523888 
        1.52787        0.496553        0.452517        0.519272 
          1.534        0.493932        0.448343        0.515514 
        1.54013        0.489291        0.444227        0.510985 
        1.54627        0.485123        0.440155        0.506266 
        1.55241        0.480215        0.436133        0.501956 
        1.55855        0.476395        0.432168        0.497785 
        1.56467        0.472742        0.428264        0.494157 
         1.5708        0.467979        0.424397        0.489256 
        1.57695        0.463933        0.420573        0.484642 
        1.58308        0.458456        0.416805        0.481535 
        1.58922        0.456498        0.413081        0.477723 
        1.59535         0.45169        0.409404        0.473368 
         1.6015        0.448305        0.405767        0.468879 
        1.60764        0.444407        0.402177        0.465703 
        1.61376         0.44075         0.39864        0.463121 
        1.61989        0.436736        0.395143        0.458855 
        1.62604        0.433332        0.391681        0.454838 
        1.63218        0.430319        0.388262        0.451319 
        1.63831        0.425994        0.384893        0.447679 
        1.64444        0.422798        0.381563        0.443755 
        1.65059        0.418616        0.378264        0.440063 
        1.65673        0.415714        0.375008        0.436829 
        1.66285        0.412904          0.3718        0.433519 
        1.66898        0.408693        0.368629        0.429768 
        1.67512        0.405276        0.365489         0.42634 
        1.68127        0.401675        0.362383        0.423286 
         1.6874        0.399287         0.35932        0.420303 
        1.69353        0.395967        0.356294        0.416944 
        1.69967        0.392273        0.353297        0.413137 
        1.70581        0.390013        0.350335        0.409867 
        1.71193        0.387255        0.347419        0.407054 
        1.71806        0.383601         0.34453        0.403869 
        1.72421        0.380375        0.341669        0.401257 
        1.73035        0.377148        0.338843        0.398072 
        1.73649        0.375154        0.336051        0.394147 
        1.74262         0.37123        0.333292        0.391222 
        1.74876        0.369237        0.330563         0.38894 
        1.75489        0.366097         0.32787        0.386169 
        1.76101        0.362914        0.325208        0.382841 
        1.76715        0.360636        0.322573        0.380305 
        1.77329        0.357319        0.319963        0.377819 
        1.77943        0.354566        0.317382        0.374862 
        1.78557        0.352958        0.314833        0.371674 
        1.79171        0.349988        0.312311          0.3686 
        1.79785        0.346729        0.309817        0.366088 
        1.80399        0.343441        0.307351        0.363927 
        1.81012        0.341814        0.304916        0.360384 
        1.81625        0.339631        0.302508        0.357467 
        1.82239        0.337321        0.300122        0.355893 
        1.82853        0.334053        0.297764        0.353576 
        1.83466        0.331545        0.295433        0.350655 
        1.84078        0.328894         0.29313        0.347924 
        1.84692         0.32672        0.290848        0.345864 
        1.85306        0.324433        0.288588        0.343055 
         1.8592        0.322148        0.286355        0.340048 
        1.86533        0.320069        0.284148        0.338071 
        1.87147        0.317307        0.281961        0.335925 
        1.87761        0.314804        0.279796         0.33371 
