# k  (h/Mpc)    Pcb(k)  (Mpc/h)^3    Pcb_linear(k) (Mpc/h)^3    Pcb_NL(k) (Mpc/h)^3   ShotnoiseSubtracted = false
     0.00783031         4166.56         4186.39         4184.23 
       0.013688         5505.93         5597.03          5574.7 
       0.019231         5993.57            6046         6008.84 
      0.0249154         5936.71         5938.54         5902.75 
      0.0312784            5428         5463.22         5429.67 
      0.0375637         4832.93          4886.8          4853.3 
      0.0433917         4383.69         4398.58         4363.96 
      0.0492413         3968.89         4007.95         3973.43 
      0.0555754         3681.42         3696.97         3661.59 
      0.0619321         3380.79          3465.2         3428.14 
       0.067871         3230.09         3277.75         3239.96 
      0.0738098          3048.2         3084.26         3036.21 
      0.0800417         2830.16         2856.94         2810.32 
      0.0862327         2575.13         2609.58         2574.44 
      0.0921407         2340.76          2370.5         2337.77 
      0.0982031          2134.7         2143.43         2124.54 
       0.104506         1919.04         1944.67         1937.15 
       0.110769         1773.87         1792.24         1779.07 
       0.116806         1691.63         1684.38         1671.35 
       0.122832         1593.08         1604.29         1594.78 
       0.129052         1529.69         1536.03         1526.78 
       0.135211          1477.6         1469.26         1460.59 
       0.141259          1390.3         1395.96         1392.26 
       0.147318         1293.58          1312.7         1316.14 
       0.153489         1217.08         1221.47         1217.91 
       0.159709         1146.75         1130.24         1136.27 
       0.165845         1046.96         1048.32          1069.7 
       0.171974         1009.55           979.5         1001.63 
       0.178125         962.192         924.993         958.106 
       0.184229         901.491         883.535         916.523 
        0.19034         881.902         850.631         883.439 
       0.196428         854.633         821.585         848.043 
       0.202534         806.768         791.951         821.005 
       0.208729         789.426         758.717         785.334 
       0.214876         759.827         722.131         759.261 
       0.220989         708.356         683.613         725.396 
       0.227147         689.969         645.155         688.806 
        0.23329         661.143         609.649         662.196 
       0.239377         641.769         579.024         635.433 
       0.245482         609.608         553.447         606.079 
       0.251667         585.829          532.22         589.996 
       0.257832         579.564         514.384         571.548 
       0.263955         550.702         498.279         554.211 
       0.270079         534.142         482.247         537.385 
        0.27624         511.982         465.268         518.952 
       0.282372         499.537         447.269          502.81 
        0.28843         494.945         428.812         484.937 
       0.294538         470.844         410.324         470.294 
       0.300721         452.846         392.598         456.585 
        0.30691         445.302         376.534         443.246 
       0.313033         427.227          362.56         428.099 
       0.319153         419.805         350.413         418.076 
       0.325316         408.302         339.571         409.801 
        0.33145         398.829         329.622         396.155 
       0.337538         386.301         320.023          386.11 
       0.343633         374.751         310.333         379.291 
       0.349808         364.996         300.278         370.632 
       0.355968         356.856         290.091         362.623 
       0.362074         348.564         280.081         352.613 
       0.368217          342.93         270.373         341.057 
       0.374374          335.64         261.274         333.941 
       0.380519         322.112         252.933         325.525 
       0.386598         316.655         245.426         318.809 
       0.392688         309.611         238.531         312.704 
        0.39888         302.775         231.969         305.115 
       0.405048         297.386         225.702         300.876 
       0.411186         293.884         219.572         294.231 
       0.417313         287.624         213.468         285.954 
       0.423458         280.329         207.382          280.62 
       0.429607         275.078         201.368         274.913 
       0.435692         269.745         195.582         269.673 
       0.441815         264.215          190.02         266.671 
       0.447964         257.092         184.747         260.637 
       0.454126         252.858         179.784         254.307 
       0.460267         250.463         175.147         251.703 
       0.466387         245.677         170.774         246.555 
        0.47254         242.882          166.55         242.683 
       0.478662         235.422         162.466         238.144 
       0.484765         232.627         158.483         232.701 
       0.490885         229.008         154.554         229.955 
       0.497035         226.918         150.674         227.044 
       0.503198         222.885         146.887         222.976 
       0.509342          217.16         143.242         219.898 
       0.515458         215.186         139.759         217.984 
       0.521598         210.167         136.411         213.045 
       0.527764         207.946         133.201          208.73 
       0.533884         207.279         130.156         206.239 
           0.54         202.147         127.229          203.53 
       0.546137          197.64         124.381         201.397 
       0.552299         196.018         121.593         197.485 
       0.558452         192.579         118.877         194.503 
       0.564573         191.677         116.241         192.762 
       0.570708         186.958         113.667          189.91 
       0.576825         184.701          111.17         186.716 
       0.582926         182.797         108.755         184.213 
       0.589034         180.319         106.417         182.464 
       0.595184         178.686         104.148         179.717 
       0.601379         174.387         101.946          178.42 
       0.607522         172.098         99.8342         175.081 
       0.613639         170.626          97.794         173.386 
       0.619772          168.47         95.8029         170.667 
       0.625918         167.056         93.8571         169.549 
       0.632068         163.778         91.9598         166.643 
       0.638161         161.442         90.1293         165.589 
         0.6443         160.871         88.3347         163.081 
       0.650464         158.036         86.5831         160.298 
       0.656582          157.29         84.8931         159.375 
       0.662703         155.524         83.2494          157.04 
       0.668861         152.454         81.6417         155.609 
       0.675024         152.443         80.0775         153.532 
       0.681124         150.001         78.5724          152.05 
       0.687237         147.369         77.1049         150.107 
       0.693381         146.907         75.6693         148.428 
       0.699536         145.023         74.2685         147.517 
       0.705665         142.876         72.9093         146.408 
       0.711789         141.169          71.585         143.621 
       0.717957         139.789         70.2837         142.716 
        0.72409         139.003         69.0215         142.104 
       0.730186         137.965         67.7978         140.297 
       0.736317         135.561         66.5972         138.483 
       0.742472         134.207         65.4217         137.265 
       0.748622         132.234         64.2763          135.74 
        0.75476         131.717         63.1618         134.422 
       0.760888         130.951         62.0763         132.894 
       0.767043         128.772         61.0128         132.277 
       0.773185         127.373         59.9771         131.344 
       0.779291         126.038         58.9719         129.995 
       0.785407         124.433         57.9886         128.346 
       0.791564         124.324         57.0219         127.297 
       0.797719         123.087         56.0779          126.42 
       0.803834         121.867         55.1614         124.844 
       0.809972         121.279         54.2623          123.98 
       0.816124         119.882         53.3815         123.266 
       0.822261         118.336         52.5228         121.842 
       0.828378          118.08         51.6857         120.307 
       0.834502         116.167         50.8665         120.118 
       0.840667           115.7         50.0599         119.255 
       0.846816         114.575         49.2733         117.963 
       0.852925         113.594         48.5088         117.029 
       0.859047         112.911         47.7592         115.785 
       0.865192          111.39         47.0232         115.198 
       0.871341         110.301         46.3024         114.044 
       0.877463         109.741         45.6002          113.44 
       0.883569         109.354         44.9146         112.578 
       0.889708         108.432         44.2398          111.62 
       0.895864         107.368         43.5773         110.861 
       0.902008         106.528         42.9299         109.907 
       0.908149         105.366         42.2963         109.065 
       0.914301         105.066         41.6745         108.558 
       0.920448         104.413         41.0661         107.564 
       0.926574         102.587          40.472         106.261 
       0.932687         102.239         39.8911         105.853 
       0.938823         101.376         39.3197         104.942 
       0.944975         100.325         38.7583         104.186 
       0.951105         99.5494         38.2101         103.638 
       0.957225         99.5592         37.6735         103.007 
       0.963368         98.3921         37.1455         101.831 
       0.969511          97.528         36.6277         101.251 
       0.975621         96.9085         36.1228         101.253 
       0.981748         95.9762         35.6261         100.107 
       0.987916          95.269         35.1358         99.6414 
        0.99406           94.86         34.6566         98.8964 
        1.00019         93.8497         34.1874         98.1789 
        1.00632         93.3162         33.7275         97.6308 
        1.01246         92.6284         33.2754         96.8108 
        1.01859         92.2117         32.8325          96.192 
        1.02471         91.1698         32.3982         95.7769 
        1.03085         90.6363         31.9704         95.0338 
        1.03698         90.0523         31.5514         94.3213 
        1.04314         89.5006         31.1381         93.7406 
        1.04929         88.8712         30.7333         93.4379 
        1.05541         88.2742         30.3374         92.9916 
        1.06154          87.816         29.9476         92.2066 
        1.06769         86.7617         29.5641         91.7227 
        1.07382         86.3588         29.1887         91.1248 
        1.07993         85.9303         28.8207         90.4589 
        1.08607         85.1941         28.4576         89.8734 
        1.09222         84.8976         28.1004         89.2345 
        1.09836         84.1274         27.7499         88.8242 
        1.10449         83.6459         27.4059         88.2176 
        1.11063         82.9188         27.0673         87.5627 
        1.11677         82.7583         26.7347         87.1172 
         1.1229         81.8987         26.4083         86.8353 
        1.12903         81.7731         26.0871         86.1998 
        1.13518         81.4387         25.7711         85.6865 
        1.14131         80.6145         25.4605         85.2673 
        1.14745         79.7987         25.1553         84.7358 
        1.15359         79.1788         24.8551          84.534 
        1.15973         79.0397         24.5597         83.8588 
        1.16584         78.4976         24.2705         83.3366 
        1.17197         77.6687         23.9855         82.8552 
        1.17811         77.3741         23.7044         82.2224 
        1.18424         76.5819         23.4286         81.7936 
        1.19038         76.4761         23.1564         81.6926 
        1.19652         76.1223         22.8887          80.925 
        1.20267         75.5201         22.6253         80.7622 
        1.20881         74.9792         22.3661         80.1605 
        1.21495         74.7081         22.1115         79.8206 
        1.22108          74.266         21.8609         79.3529 
         1.2272         73.7391         21.6148         79.0372 
        1.23334         73.2965         21.3719         78.5583 
        1.23949         72.9079         21.1323          78.027 
        1.24562         72.3033          20.897         77.6539 
        1.25174         71.8968         20.6657         77.3835 
        1.25789         71.9799         20.4372         76.8925 
        1.26402         71.2798         20.2127         76.4335 
        1.27014         70.8094          19.992         76.0842 
        1.27628         70.2242         19.7741         75.6971 
        1.28244         70.0122          19.559         75.3392 
        1.28858         69.5669         19.3474         74.9675 
        1.29471         69.2975         19.1394         74.6742 
        1.30084          68.707         18.9347         74.0574 
        1.30697         68.5495         18.7328         73.6672 
        1.31312         67.9119         18.5335         73.5563 
        1.31925         67.5178         18.3377         73.0947 
        1.32537         67.2165         18.1451         72.6796 
        1.33151         66.8352         17.9545         72.3874 
        1.33765         66.4556         17.7668         72.0587 
        1.34378         66.2636         17.5822         71.6472 
        1.34992         65.7593         17.4001         71.3225 
        1.35606         65.3528         17.2202         71.1084 
         1.3622         64.8907         17.0432         70.7117 
        1.36833         64.5377         16.8691         70.2764 
        1.37445         64.1398         16.6976         70.0041 
        1.38059         63.9392         16.5279         69.8512 
        1.38675         63.2789         16.3603         69.3529 
        1.39288         63.2527         16.1956         69.1602 
        1.39901         62.7649         16.0333         68.7967 
        1.40515         62.5024         15.8729         68.3908 
         1.4113         62.4048         15.7148         68.1541 
        1.41742         61.9818         15.5594         67.9739 
        1.42355         61.3935         15.4059         67.4162 
         1.4297         61.0817          15.254         67.1025 
        1.43585         60.6525         15.1042           66.93 
        1.44198         60.3562          14.957         66.6909 
        1.44809         60.0928         14.8121         66.1327 
        1.45423         59.8542         14.6686         65.8788 
        1.46036          59.494         14.5272         65.6488 
        1.46649         59.3271         14.3877         65.4071 
        1.47263         58.8613         14.2499         65.1683 
        1.47877         58.6295         14.1141         64.8213 
        1.48491         58.4166         13.9797         64.4279 
        1.49104         57.9438         13.8475         64.1409 
        1.49718         57.6657         13.7168         63.8588 
        1.50333         57.5236         13.5877         63.6916 
        1.50947         56.9942         13.4605          63.476 
         1.5156         56.7953         13.3351         63.1745 
        1.52172         56.3893         13.2113         62.8721 
        1.52787         56.1275         13.0889         62.5688 
          1.534         55.9183         12.9681         62.3528 
        1.54013          55.642         12.8491          62.037 
        1.54627         55.1834         12.7313         61.7051 
        1.55241         54.9663          12.615         61.4895 
        1.55855         54.7717         12.5003         61.2784 
        1.56467         54.5106         12.3873         60.9513 
         1.5708         54.2511         12.2755         60.7837 
        1.57695         53.9578         12.1649         60.5595 
        1.58308         53.5077         12.0559         60.1848 
        1.58922         53.2817         11.9482         60.0003 
        1.59535         53.1157         11.8418         59.8182 
         1.6015         52.9856         11.7366         59.4955 
        1.60764         52.6693         11.6328         59.2198 
        1.61376         52.2808         11.5305         59.0315 
        1.61989         51.9967         11.4293         58.6824 
        1.62604         51.7964         11.3292         58.4878 
        1.63218         51.4908         11.2303          58.341 
        1.63831         51.3906         11.1329         58.0584 
        1.64444         51.0067         11.0365         57.7602 
        1.65059         50.8125         10.9411         57.5735 
        1.65673           50.44         10.8469         57.3107 
        1.66285         50.3769         10.7542         57.0839 
        1.66898         49.8769         10.6624         56.9961 
        1.67512         49.8154         10.5716         56.7746 
        1.68127         49.5287         10.4818         56.4336 
         1.6874         49.2653         10.3932          56.121 
        1.69353         49.0802         10.3056         55.9409 
        1.69967         48.8864         10.2189         55.7616 
        1.70581         48.4008         10.1333         55.6518 
        1.71193         48.2376         10.0489         55.4703 
        1.71806         48.1113         9.96538         55.0085 
        1.72421         47.8755         9.88261         54.7601 
        1.73035         47.5727         9.80089         54.7017 
        1.73649         47.2597         9.72011         54.5655 
        1.74262         46.9894         9.64032         54.1804 
        1.74876         46.7321         9.56138         53.9573 
        1.75489         46.6155         9.48349         53.8229 
        1.76101         46.4559          9.4065         53.6041 
        1.76715         46.2171         9.33026         53.4094 
        1.77329         45.8998         9.25478         53.2161 
        1.77943         45.8819         9.18011         53.0147 
        1.78557         45.5408         9.10639         52.8175 
        1.79171         45.3651         9.03346         52.5917 
        1.79785         45.0818         8.96132         52.4187 
        1.80399         44.8924            8.89         52.3098 
        1.81012          44.714         8.81955         51.9537 
        1.81625         44.3708          8.7499         51.6425 
        1.82239          44.187          8.6809         51.5493 
        1.82853         44.0618         8.61268         51.4199 
        1.83466         43.8051         8.54527         51.2182 
        1.84078         43.5542         8.47866         51.0244 
        1.84692         43.3286         8.41265         50.9175 
        1.85306         43.1089         8.34727         50.7113 
         1.8592         42.9703         8.28269         50.4604 
        1.86533          42.774         8.21883         50.3157 
        1.87147         42.5586         8.15558         50.1313 
