# k  (h/Mpc)    P(k)  (Mpc/h)^3    P_linear(k)  (Mpc/h)^3     P_NL(k)  ShotnoiseSubtracted = false
     0.00783031         7629.63         7661.15         7655.34 
       0.013688         10029.1         10241.6         10191.6 
       0.019231         10927.9         11062.6         10977.5 
      0.0249154         10851.7         10865.6         10770.5 
      0.0312784         9885.84         9995.65         9890.58 
      0.0375637         8780.98         8940.86         8831.96 
      0.0433917         7977.34         8047.53         7928.72 
      0.0492413          7206.1         7332.81          7212.5 
      0.0555754         6684.49         6763.81         6642.81 
      0.0619321         6098.37         6339.74         6213.84 
       0.067871         5836.96         5996.77         5871.25 
      0.0738098         5517.06         5642.76         5484.46 
      0.0800417         5117.92         5226.86         5073.11 
      0.0862327          4654.2          4774.3          4656.9 
      0.0921407         4236.91         4336.89          4226.5 
      0.0982031         3876.48         3921.45         3853.75 
       0.104506         3481.87          3557.8         3525.85 
       0.110769         3223.05         3278.93          3231.2 
       0.116806         3083.86          3081.6         3034.43 
       0.122832         2901.47         2935.08         2898.51 
       0.129052         2778.16         2810.18         2775.58 
       0.135211          2696.2         2688.03         2653.97 
       0.141259         2528.01         2553.92         2537.03 
       0.147318         2350.37         2401.61          2403.3 
       0.153489         2219.78         2234.69         2218.21 
       0.159709         2111.95         2067.78         2079.88 
       0.165845         1926.39         1917.91         1973.84 
       0.171974         1870.19         1792.01         1853.45 
       0.178125         1796.85         1692.28         1785.61 
       0.184229         1669.77         1616.43         1706.12 
        0.19034         1642.39         1556.24         1647.34 
       0.196428         1596.99          1503.1          1580.5 
       0.202534            1505         1448.88         1533.73 
       0.208729         1478.07         1388.08          1464.1 
       0.214876         1421.64         1321.14         1424.14 
       0.220989         1336.13         1250.67         1368.76 
       0.227147         1304.31         1180.31         1307.68 
        0.23329         1253.51         1115.36         1264.68 
       0.239377          1232.9         1059.33         1216.31 
       0.245482         1173.24         1012.54         1162.05 
       0.251667         1130.05         973.701         1136.52 
       0.257832         1118.73         941.069         1102.41 
       0.263955         1065.14         911.603         1071.36 
       0.270079         1036.25         882.272          1041.8 
        0.27624         993.827         851.209         1009.21 
       0.282372         977.442          818.28         981.636 
        0.28843         968.393         784.513         950.988 
       0.294538         920.693         750.689         925.591 
       0.300721         895.747         718.259         899.962 
        0.30691          880.72         688.871         881.261 
       0.313033         845.265         663.301         853.297 
       0.319153         833.035         641.082         833.021 
       0.325316         820.146         621.246         820.103 
        0.33145         804.579         603.044         792.536 
       0.337538         777.409         585.483         776.928 
       0.343633         756.236         567.757         767.755 
       0.349808         739.758         549.359         752.539 
       0.355968         726.628         530.723         738.047 
       0.362074         705.254         512.408         720.505 
       0.368217         701.312         494.648         699.496 
       0.374374         689.361         478.002         686.818 
       0.380519         664.048         462.741         672.045 
       0.386598         657.333         449.007         662.376 
       0.392688         644.723         436.394         647.742 
        0.39888         627.912         424.387          638.05 
       0.405048         618.414         412.923         631.358 
       0.411186         615.431         401.706         615.288 
       0.417313         609.054         390.541         602.201 
       0.423458          591.04         379.408         593.191 
       0.429607         576.601         368.404         580.963 
       0.435692         568.116         357.818          570.98 
       0.441815         559.775         347.643         566.803 
       0.447964         548.771         337.995         556.493 
       0.454126         542.174         328.914         543.577 
       0.460267         533.992         320.433         540.948 
       0.466387          526.56         312.431         530.642 
        0.47254          518.55         304.703         524.409 
       0.478662         507.544         297.232         515.125 
       0.484765         503.137         289.946         505.085 
       0.490885         498.174         282.757         498.902 
       0.497035         489.167         275.658         493.912 
       0.503198         488.098          268.73         486.439 
       0.509342         476.429         262.062         480.852 
       0.515458         469.506         255.689         477.619 
       0.521598         462.239         249.564         469.037 
       0.527764         455.355         243.691          462.56 
       0.533884         454.106         238.121         457.493 
           0.54         447.392         232.766         451.701 
       0.546137         438.491         227.556         446.676 
       0.552299         437.991         222.455          440.51 
       0.558452         431.299         217.485         436.026 
       0.564573         426.529         212.663         432.295 
       0.570708          421.99         207.953         428.233 
       0.576825         414.504         203.385         420.566 
       0.582926         411.228         198.967         415.964 
       0.589034         406.052          194.69         411.124 
       0.595184         403.322         190.539         405.736 
       0.601379         396.401          186.51         403.644 
       0.607522         390.303         182.647         399.126 
       0.613639          388.12         178.914         395.263 
       0.619772         386.275         175.272         392.742 
       0.625918          380.69         171.712         388.621 
       0.632068         375.508         168.241         382.928 
       0.638161         371.947         164.892         379.994 
         0.6443         369.662         161.608         376.843 
       0.650464         364.323         158.404         370.776 
       0.656582          360.98         155.312         367.696 
       0.662703          358.49         152.305         366.157 
       0.668861         353.191         149.364         362.399 
       0.675024         351.089         146.502         358.714 
       0.681124         347.456         143.748         354.403 
       0.687237         344.309         141.064          351.12 
       0.693381         341.036         138.437         348.177 
       0.699536         337.328         135.874         345.749 
       0.705665         334.001         133.388         343.314 
       0.711789         332.202         130.965         339.462 
       0.717957         327.792         128.584         337.142 
        0.72409         325.104         126.275         335.101 
       0.730186         326.177         124.036         332.241 
       0.736317           320.4          121.84         328.537 
       0.742472         316.537         119.689         325.592 
       0.748622         312.929         117.594         322.632 
        0.75476         313.175         115.555         321.457 
       0.760888         309.554         113.569         317.599 
       0.767043         306.459         111.623         315.849 
       0.773185         304.774         109.728         313.497 
       0.779291         300.039         107.889         310.514 
       0.785407         299.069          106.09         308.147 
       0.791564         295.923         104.322         306.094 
       0.797719         291.817         102.595         304.155 
       0.803834         293.703         100.918         301.659 
       0.809972         290.227          99.273         299.422 
       0.816124         286.742         97.6615         296.843 
       0.822261         283.543         96.0905         294.785 
       0.828378         283.874         94.5591         292.154 
       0.834502          279.18         93.0603         290.889 
       0.840667         278.914         91.5846         288.867 
       0.846816         275.052         90.1456         286.574 
       0.852925         273.867          88.747         284.261 
       0.859047          270.88         87.3755         282.455 
       0.865192         270.791          86.029         280.733 
       0.871341         266.986         84.7104         278.523 
       0.877463         264.607         83.4257         277.133 
       0.883569         264.091         82.1714         275.344 
       0.889708         261.852         80.9368          273.16 
       0.895864         259.769         79.7247         271.699 
       0.902008         257.529         78.5404         269.228 
       0.908149         255.339         77.3811         267.016 
       0.914301         254.322         76.2437         266.153 
       0.920448         252.869         75.1304         263.542 
       0.926574         250.512         74.0436          261.64 
       0.932687         248.914         72.9809         259.593 
       0.938823         246.996         71.9355         259.119 
       0.944975         245.158         70.9085         257.884 
       0.951105         243.185         69.9054         255.813 
       0.957225         241.694         68.9237         253.842 
       0.963368         240.424         67.9578         251.574 
       0.969511         237.005         67.0105         250.335 
       0.975621         236.092         66.0867         250.039 
       0.981748         234.446          65.178         247.771 
       0.987916         233.294         64.2809         246.662 
        0.99406         231.374         63.4043         245.239 
        1.00019         230.019          62.546         243.064 
        1.00632         229.236         61.7045         241.064 
        1.01246         227.274         60.8774         239.499 
        1.01859         224.962         60.0671         238.821 
        1.02471         223.286         59.2726         237.867 
        1.03085         222.474           58.49         236.191 
        1.03698         220.542         57.7233         234.766 
        1.04314         220.096         56.9672         233.382 
        1.04929         218.569         56.2266          231.79 
        1.05541          216.82         55.5023         230.541 
        1.06154         215.487         54.7892         229.397 
        1.06769         213.252         54.0876         228.185 
        1.07382          212.93         53.4007          226.65 
        1.07993         210.994         52.7275         225.358 
        1.08607         209.169         52.0632         224.532 
        1.09222         208.313         51.4098         223.175 
        1.09836         207.003         50.7685          222.01 
        1.10449         205.026         50.1391         220.448 
        1.11063         203.878         49.5197         218.957 
        1.11677         203.134         48.9112         217.938 
         1.1229         201.286          48.314         216.901 
        1.12903         200.719         47.7264         215.744 
        1.13518         199.171         47.1482         214.461 
        1.14131         198.031         46.5801         213.124 
        1.14745         196.107         46.0217         212.045 
        1.15359         194.306         45.4724          210.79 
        1.15973         193.946          44.932         209.588 
        1.16584         193.086         44.4029         208.198 
        1.17197         191.789         43.8816         207.016 
        1.17811         189.904         43.3672          206.59 
        1.18424         188.908         42.8626         205.213 
        1.19038         187.815         42.3647         204.217 
        1.19652         186.231         41.8749         203.386 
        1.20267         185.434          41.393         202.057 
        1.20881         184.048         40.9189         201.378 
        1.21495         183.632          40.453         199.543 
        1.22108         181.992         39.9945         199.192 
         1.2272         180.673         39.5442         197.592 
        1.23334         180.055            39.1         196.889 
        1.23949          179.41         38.6615         195.947 
        1.24562         177.823         38.2311         194.662 
        1.25174         176.281          37.808         193.899 
        1.25789         175.565           37.39          192.88 
        1.26402         174.975         36.9791         191.562 
        1.27014         173.714         36.5755         191.457 
        1.27628         171.673         36.1767         190.715 
        1.28244         171.327         35.7832         188.885 
        1.28858         170.139          35.396         187.927 
        1.29471         169.108         35.0156         187.306 
        1.30084         168.075         34.6411         186.286 
        1.30697         167.316         34.2716         185.281 
        1.31312         166.084          33.907         183.976 
        1.31925         164.677         33.5489         183.229 
        1.32537         164.289         33.1964         182.515 
        1.33151         163.178         32.8477         181.554 
        1.33765         161.543         32.5043         180.733 
        1.34378          161.57         32.1666         179.572 
        1.34992         160.678         31.8334         178.832 
        1.35606         159.407         31.5043         177.704 
         1.3622         158.896         31.1805         176.918 
        1.36833          157.03         30.8621         176.021 
        1.37445         156.796         30.5483         174.956 
        1.38059         155.596         30.2379         174.475 
        1.38675         154.706         29.9311         173.431 
        1.39288         153.661         29.6299         172.547 
        1.39901         152.591          29.333         171.916 
        1.40515         152.056         29.0395         171.115 
         1.4113         151.238         28.7502         170.268 
        1.41742         149.977         28.4659         169.648 
        1.42355         149.645         28.1851         168.899 
         1.4297         148.386         27.9071         167.874 
        1.43585         147.311         27.6331         167.026 
        1.44198         146.195         27.3639         166.262 
        1.44809         145.202         27.0987         165.388 
        1.45423         144.958         26.8362          164.46 
        1.46036         143.857         26.5776         163.738 
        1.46649         142.869         26.3224         163.219 
        1.47263         142.486         26.0703         162.609 
        1.47877         141.142         25.8217         161.593 
        1.48491         140.312         25.5759          160.92 
        1.49104         138.875          25.334          160.28 
        1.49718         139.051         25.0949          158.98 
        1.50333         138.119         24.8587         158.502 
        1.50947         137.318         24.6259         157.879 
         1.5156         136.326         24.3965         157.079 
        1.52172         135.537         24.1701           156.6 
        1.52787         134.744         23.9461         155.519 
          1.534         134.244         23.7252         154.813 
        1.54013         133.342         23.5074         154.177 
        1.54627         132.315         23.2919         153.499 
        1.55241         131.593         23.0791         152.892 
        1.55855          130.93         22.8693         151.936 
        1.56467         129.882         22.6627         151.173 
         1.5708          129.39         22.4581         150.756 
        1.57695         128.744         22.2557         150.056 
        1.58308          127.89         22.0563         149.147 
        1.58922         127.512         21.8592         148.486 
        1.59535         126.864         21.6646         147.877 
         1.6015         125.537         21.4722         147.198 
        1.60764          124.79         21.2822         146.588 
        1.61376         124.157          21.095         146.067 
        1.61989         123.568           20.91         145.351 
        1.62604         122.791         20.7268         144.543 
        1.63218         122.312         20.5459         143.907 
        1.63831         121.222         20.3676         143.439 
        1.64444         120.604         20.1913         142.756 
        1.65059         119.753         20.0168         141.935 
        1.65673         119.239         19.8445          141.37 
        1.66285         118.754         19.6747         140.868 
        1.66898         117.669         19.5069         140.192 
        1.67512          117.37         19.3407         139.629 
        1.68127         116.451         19.1764         138.942 
         1.6874         115.837         19.0143         138.216 
        1.69353         114.951         18.8542         137.673 
        1.69967          114.63         18.6956         137.053 
        1.70581          114.07         18.5389         136.369 
        1.71193         113.224         18.3845         135.785 
        1.71806         112.451         18.2317         135.376 
        1.72421         111.861         18.0803         134.737 
        1.73035         111.429         17.9307         134.001 
        1.73649         110.616          17.783         133.403 
        1.74262         109.967          17.637         132.967 
        1.74876         109.271         17.4926         132.332 
        1.75489         108.754         17.3501         131.606 
        1.76101          108.03         17.2092         130.979 
        1.76715         107.315         17.0697         130.399 
        1.77329         106.833         16.9316         129.953 
        1.77943         106.094          16.795         129.483 
        1.78557         105.662         16.6601         128.855 
        1.79171         105.064         16.5267         128.331 
        1.79785          104.28         16.3947         127.856 
        1.80399         103.867         16.2643         127.263 
        1.81012         103.078         16.1354         126.677 
        1.81625         102.686         16.0079          126.12 
        1.82239         102.271         15.8817         125.574 
        1.82853         101.526         15.7569         125.048 
        1.83466         100.704         15.6336         124.465 
        1.84078         100.275         15.5117         123.934 
        1.84692         99.9521         15.3909         123.615 
        1.85306         99.3056         15.2713         123.049 
         1.8592         98.8703         15.1532         122.416 
        1.86533         98.1311         15.0364         121.977 
        1.87147         97.4839         14.9206         121.148 
        1.87761         96.9946         14.8061         120.501 
