# k  (h/Mpc)    P(k)  (Mpc/h)^3    P_linear(k)  (Mpc/h)^3     P_NL(k)  ShotnoiseSubtracted = false
     0.00783031         3795.48         3813.87         3811.96 
       0.013688         5018.66         5099.03         5079.12 
       0.019231         5462.43          5508.1         5475.07 
      0.0249154         5408.86         5410.22         5379.07 
      0.0312784         4947.39          4977.2         4948.81 
      0.0375637         4406.23         4452.06         4423.94 
      0.0433917         3995.77         4007.28         3978.54 
      0.0492413         3618.68         3651.41         3622.83 
      0.0555754         3356.33          3368.1          3338.7 
      0.0619321         3084.74         3156.94         3126.13 
       0.067871         2946.42         2986.17          2954.6 
      0.0738098         2780.04         2809.89         2769.68 
      0.0800417         2581.31         2602.79         2563.81 
      0.0862327         2348.93         2377.44         2348.12 
      0.0921407         2134.85         2159.63         2132.41 
      0.0982031          1946.2         1952.76         1937.22 
       0.104506          1749.9         1771.68         1765.73 
       0.110769         1617.26         1632.81         1622.06 
       0.116806          1541.5         1534.55         1523.89 
       0.122832         1452.09         1461.58         1453.89 
       0.129052          1394.6         1399.39         1391.88 
       0.135211         1346.36         1338.56         1331.56 
       0.141259         1267.34         1271.78         1268.92 
       0.147318         1179.49         1195.93          1199.2 
       0.153489         1109.21         1112.81          1110.1 
       0.159709         1043.93          1029.7          1035.1 
       0.165845          953.39         955.065         973.525 
       0.171974         918.318         892.369          911.35 
       0.178125         874.478         842.708         871.009 
       0.184229         820.196         804.939         833.243 
        0.19034         801.861         774.962         803.057 
       0.196428         776.734         748.501         771.057 
       0.202534         733.622         721.502         746.258 
       0.208729         717.326         691.224          713.99 
       0.214876         690.397         657.893         689.678 
       0.220989         643.324         622.801         658.482 
       0.227147          626.23         587.765         624.914 
        0.23329         599.732         555.417         600.237 
       0.239377         581.267         527.517         575.749 
       0.245482          552.16         504.216         549.134 
       0.251667         530.436         484.877         534.203 
       0.257832         524.485         468.627         517.427 
       0.263955         498.512         453.954         501.634 
       0.270079         483.427         439.348         486.269 
        0.27624         463.354          423.88         469.461 
       0.282372         451.647         407.482         454.705 
        0.28843         447.216         390.667         438.395 
       0.294538         425.594         373.823          424.86 
       0.300721         408.807         357.674         412.263 
        0.30691         401.817          343.04          399.84 
       0.313033         385.536         330.306         386.084 
       0.319153         378.818         319.242         376.987 
       0.325316         367.766         309.364         369.295 
        0.33145         358.961           300.3         357.061 
       0.337538         347.902         291.555         347.818 
       0.343633         337.527         282.728         341.345 
       0.349808         328.566         273.566         333.399 
       0.355968          320.96         264.286         326.137 
       0.362074         313.749         255.166         316.958 
       0.368217         308.192         246.322         306.418 
       0.374374         301.594         238.032          299.94 
       0.380519         289.291         230.433          292.22 
       0.386598         284.107         223.594         285.995 
       0.392688         277.605         217.313         280.523 
        0.39888         271.718         211.334         273.484 
       0.405048         266.719         205.625         269.433 
       0.411186         263.221         200.039         263.702 
       0.417313         257.377         194.479         256.134 
       0.423458         250.936         188.935         251.252 
       0.429607         246.367         183.455         246.033 
       0.435692         241.617         178.184         241.291 
       0.441815         236.229         173.117          238.46 
       0.447964          229.78         168.313         232.923 
       0.454126         225.868         163.791          227.24 
       0.460267         223.898         159.567         224.748 
       0.466387         219.444         155.582         220.071 
        0.47254         216.987         151.734         216.557 
       0.478662         210.176         148.014         212.465 
       0.484765         207.563         144.386         207.579 
       0.490885          204.04         140.806         205.089 
       0.497035         202.377          137.27         202.401 
       0.503198         198.375         133.821         198.631 
       0.509342         193.356           130.5         195.813 
       0.515458          191.58         127.326         194.049 
       0.521598         187.062         124.276         189.528 
       0.527764         185.114         121.352         185.549 
       0.533884          184.31         118.578         183.271 
           0.54         179.668         115.911         180.821 
       0.546137         175.603         113.317         178.903 
       0.552299         173.969         110.777         175.337 
       0.558452         170.889         108.302         172.577 
       0.564573         170.181         105.901         170.981 
       0.570708         165.744         103.555         168.385 
       0.576825         163.855         101.281         165.603 
       0.582926         162.161         99.0805         163.296 
       0.589034         159.859         96.9505         161.709 
       0.595184         158.275         94.8835         159.292 
       0.601379         154.375         92.8771         157.968 
       0.607522         152.415         90.9534         154.879 
       0.613639         151.086         89.0948         153.382 
       0.619772         149.012         87.2807         150.923 
       0.625918          147.66          85.508         149.935 
       0.632068          144.97         83.7795         147.311 
       0.638161         142.738         82.1118         146.284 
         0.6443         142.161         80.4768         143.976 
       0.650464          139.61         78.8811         141.551 
       0.656582         138.978         77.3414         140.723 
       0.662703          137.36         75.8439         138.536 
       0.668861         134.598         74.3793         137.275 
       0.675024         134.531         72.9542         135.424 
       0.681124         132.384          71.583         133.999 
       0.687237         129.928          70.246         132.278 
       0.693381         129.507         68.9381          130.75 
       0.699536         127.911         67.6619         129.988 
       0.705665         125.941         66.4237          128.89 
       0.711789         124.394         65.2171          126.39 
       0.717957         123.137         64.0316         125.627 
        0.72409         122.394         62.8817         125.019 
       0.730186         121.426         61.7668         123.372 
       0.736317         119.292          60.673         121.747 
       0.742472         118.146         59.6021         120.652 
       0.748622         116.404         58.5586         119.276 
        0.75476         115.679         57.5432         118.117 
       0.760888         115.127         56.5543         116.782 
       0.767043         113.164         55.5854         116.209 
       0.773185         111.986         54.6418         115.321 
       0.779291         110.781          53.726         114.131 
       0.785407         109.278         52.8302         112.667 
       0.791564         109.278         51.9495         111.663 
       0.797719         108.166         51.0895         110.879 
       0.803834         106.979         50.2545         109.527 
       0.809972         106.369         49.4354         108.731 
       0.816124         105.199         48.6329          108.04 
       0.822261         103.818         47.8506         106.733 
       0.828378          103.54          47.088           105.4 
       0.834502         101.943         46.3416         105.247 
       0.840667         101.473         45.6068         104.359 
       0.846816         100.371         44.8902          103.29 
       0.852925         99.6239         44.1937         102.523 
       0.859047         99.0464         43.5108         101.335 
       0.865192         97.5857         42.8402         100.778 
       0.871341         96.6518         42.1836         99.8029 
       0.877463         96.1574         41.5439         99.1951 
       0.883569         95.7838         40.9192         98.4937 
       0.889708         94.9391         40.3044         97.5702 
       0.895864         94.0104         39.7009         96.8814 
       0.902008         93.2242         39.1111          96.081 
       0.908149         92.3197         38.5338         95.3371 
       0.914301         91.9157         37.9674         94.8624 
       0.920448         91.3563          37.413          93.946 
       0.926574         89.7114         36.8718         92.8388 
       0.932687         89.3815         36.3426         92.5044 
       0.938823         88.6224          35.822         91.6353 
       0.944975         87.7378         35.3106         90.9166 
       0.951105         87.0137         34.8111         90.5116 
       0.957225         86.9734         34.3222         89.8819 
       0.963368         85.9866         33.8412         88.8977 
       0.969511         85.2498         33.3695         88.3619 
       0.975621         84.6843         32.9095         88.2505 
       0.981748         83.8308          32.457         87.3133 
       0.987916         83.2223         32.0103         86.8402 
        0.99406         82.7985         31.5737         86.2373 
        1.00019         81.9778         31.1463         85.6219 
        1.00632         81.4718         30.7273         85.1055 
        1.01246         80.8758         30.3154         84.3919 
        1.01859         80.4668         29.9119         83.8203 
        1.02471          79.522         29.5162         83.4238 
        1.03085         79.1468         29.1265         82.7843 
        1.03698         78.5815         28.7447         82.1689 
        1.04314         78.1371         28.3682         81.5879 
        1.04929         77.4682         27.9994         81.3182 
        1.05541         76.9719         27.6387         80.9571 
        1.06154         76.6186         27.2836          80.201 
        1.06769         75.6147         26.9342         79.7733 
        1.07382         75.3565         26.5922         79.2824 
        1.07993         74.8932         26.2569         78.6544 
        1.08607         74.2835         25.9261         78.1501 
        1.09222          73.984         25.6008         77.6618 
        1.09836         73.3557         25.2814         77.2661 
        1.10449         72.9213          24.968         76.6771 
        1.11063         72.2895         24.6596         76.1726 
        1.11677         72.2144         24.3565         75.7693 
         1.1229         71.4068         24.0591         75.4314 
        1.12903         71.2825         23.7665         74.9218 
        1.13518         71.0057         23.4786         74.4271 
        1.14131         70.2337         23.1957         74.1016 
        1.14745         69.5172         22.9176         73.6182 
        1.15359         69.0009         22.6441         73.4541 
        1.15973         68.8367          22.375         72.8509 
        1.16584         68.3912         22.1115         72.3798 
        1.17197         67.6202         21.8519         71.9255 
        1.17811         67.3836         21.5957         71.3791 
        1.18424          66.654         21.3445         71.0077 
        1.19038         66.5236         21.0965         70.9206 
        1.19652         66.2469         20.8526         70.2509 
        1.20267          65.763         20.6127         70.1157 
        1.20881         65.2953         20.3765         69.5887 
        1.21495         65.0272         20.1445         69.3171 
        1.22108         64.6875         19.9162         68.8399 
         1.2272          64.244          19.692         68.5872 
        1.23334         63.8281         19.4708         68.1805 
        1.23949         63.4761         19.2525         67.6961 
        1.24562         62.9358         19.0381         67.3647 
        1.25174         62.5932         18.8274         67.1182 
        1.25789         62.6334         18.6192         66.6743 
        1.26402         62.0609         18.4146         66.2939 
        1.27014         61.6204         18.2136         65.9763 
        1.27628         61.1164         18.0151         65.6162 
        1.28244         60.9554         17.8191         65.3774 
        1.28858          60.519         17.6263         65.0109 
        1.29471         60.3102         17.4369          64.729 
        1.30084         59.7887         17.2504         64.2334 
        1.30697         59.6045         17.0664         63.8723 
        1.31312         59.0762         16.8848         63.7427 
        1.31925         58.7241         16.7065         63.3544 
        1.32537         58.4754          16.531          63.021 
        1.33151         58.1048         16.3573         62.7486 
        1.33765         57.8316         16.1863         62.4647 
        1.34378         57.6251         16.0181         62.1082 
        1.34992         57.2025         15.8522          61.814 
        1.35606         56.8734         15.6883         61.6455 
         1.3622         56.4322         15.5271         61.3134 
        1.36833           56.14         15.3685         60.9651 
        1.37445         55.8226         15.2122         60.6705 
        1.38059         55.6058         15.0577         60.5014 
        1.38675         55.0465         14.9049         60.1458 
        1.39288         55.0242         14.7549         59.9474 
        1.39901         54.6085         14.6071         59.6403 
        1.40515         54.3732         14.4609         59.2694 
         1.4113         54.3206         14.3169         59.0442 
        1.41742         53.9401         14.1753         58.9106 
        1.42355         53.4153         14.0354         58.4104 
         1.4297         53.1383          13.897         58.1347 
        1.43585          52.764         13.7606         57.9924 
        1.44198         52.5437         13.6265         57.7505 
        1.44809         52.3116         13.4945         57.3258 
        1.45423         52.1125         13.3637         57.0692 
        1.46036         51.7975          13.235          56.847 
        1.46649         51.5947         13.1079         56.6305 
        1.47263         51.1988         12.9823         56.4306 
        1.47877         51.0325         12.8585         56.1827 
        1.48491          50.849         12.7362         55.7998 
        1.49104         50.4426         12.6157          55.593 
        1.49718         50.2105         12.4966         55.3292 
        1.50333         50.0959          12.379         55.1826 
        1.50947         49.6363         12.2631         55.0046 
         1.5156         49.4616         12.1488         54.7231 
        1.52172          49.082         12.0361         54.4374 
        1.52787         48.8725         11.9245         54.1866 
          1.534         48.6752         11.8145         54.0077 
        1.54013         48.4421         11.7061         53.7141 
        1.54627         48.0465         11.5988         53.4286 
        1.55241         47.9037         11.4928         53.2684 
        1.55855          47.685         11.3883         53.0987 
        1.56467         47.5266         11.2854         52.8226 
         1.5708         47.2598         11.1835         52.6471 
        1.57695         46.9924         11.0828          52.413 
        1.58308         46.6004         10.9835         52.1016 
        1.58922         46.3886         10.8853         51.9788 
        1.59535         46.2597         10.7884         51.8307 
         1.6015         46.1148         10.6926           51.53 
        1.60764          45.887          10.598         51.2801 
        1.61376         45.5433         10.5048         51.1248 
        1.61989         45.2832         10.4126          50.826 
        1.62604         45.1255         10.3214         50.7024 
        1.63218         44.8532         10.2313         50.5847 
        1.63831         44.7701         10.1425         50.2983 
        1.64444         44.4575         10.0548         50.0409 
        1.65059         44.2505         9.96785         49.8853 
        1.65673         43.9839         9.88205         49.6761 
        1.66285         43.8842         9.79752         49.4825 
        1.66898         43.5206         9.71395         49.3773 
        1.67512         43.4348          9.6312         49.1783 
        1.68127         43.1767         9.54934         48.9104 
         1.6874         42.9705         9.46863         48.6586 
        1.69353         42.8134         9.38891         48.4733 
        1.69967         42.6037         9.30992         48.3003 
        1.70581          42.186         9.23188         48.1978 
        1.71193         42.0321         9.15503         48.0489 
        1.71806         41.9505         9.07891         47.6849 
        1.72421         41.7769         9.00351         47.4756 
        1.73035         41.4974         8.92905         47.3911 
        1.73649         41.2235         8.85546         47.2503 
        1.74262         41.0028         8.78277         46.9686 
        1.74876         40.7728         8.71084         46.7827 
        1.75489         40.6833         8.63988         46.6504 
        1.76101         40.5569         8.56974         46.4699 
        1.76715         40.3182         8.50029         46.2956 
        1.77329         40.0803         8.43152          46.118 
        1.77943         40.0293          8.3635         45.9498 
        1.78557         39.7468         8.29633         45.7982 
        1.79171         39.5914         8.22989         45.6038 
        1.79785         39.3518         8.16417         45.4426 
        1.80399         39.2113         8.09918         45.3484 
        1.81012         39.0483           8.035         45.0585 
        1.81625         38.7503         7.97155         44.7902 
        1.82239           38.61         7.90869         44.6904 
        1.82853         38.4655         7.84654         44.5778 
        1.83466         38.2673         7.78513         44.4281 
        1.84078         38.0457         7.72444         44.2842 
        1.84692         37.8842          7.6643          44.178 
        1.85306         37.6655         7.60474         43.9778 
         1.8592         37.5471          7.5459         43.7519 
        1.86533         37.3542         7.48773         43.6276 
        1.87147         37.1899          7.4301           43.48 
        1.87761         37.0015         7.37306         43.2953 
