# k  (h/Mpc)    Pcb(k)  (Mpc/h)^3    Pcb_linear(k) (Mpc/h)^3    Pcb_NL(k) (Mpc/h)^3   ShotnoiseSubtracted = false
     0.00783031         1123.91         1130.44         1129.79 
       0.013688          1495.4         1511.63         1506.65 
       0.019231         1625.11         1633.04         1625.16 
      0.0249154         1603.35         1604.11         1598.13 
      0.0312784         1472.17         1475.77         1472.24 
      0.0375637         1314.71          1320.1         1317.25 
      0.0433917         1189.01         1188.23         1186.12 
      0.0492413         1079.86         1082.72         1080.82 
      0.0555754         999.947         998.716         996.502 
      0.0619321         926.902         936.111         933.719 
       0.067871         882.003         885.476         882.677 
      0.0738098         830.902         833.209         829.479 
      0.0800417         771.268         771.801         768.254 
      0.0862327         702.803         704.979         702.423 
      0.0921407         638.193         640.393         638.248 
      0.0982031         579.613          579.05         578.095 
       0.104506         522.696         525.355         525.366 
       0.110769         482.302         484.177         483.704 
       0.116806         456.829          455.04          454.46 
       0.122832         432.141         433.404         433.066 
       0.129052         415.094         414.962         414.562 
       0.135211         398.621         396.925         396.559 
       0.141259         376.817         377.123         377.117 
       0.147318         352.172         354.631         355.309 
       0.153489         329.533         329.984          330.08 
       0.159709         306.878         305.338         306.253 
       0.165845           281.8         283.207         285.472 
       0.171974         267.696         264.616         266.847 
       0.178125         253.202          249.89         253.039 
       0.184229         239.947          238.69         241.919 
        0.19034         233.014         229.801         232.954 
       0.196428         224.871         221.955          224.43 
       0.202534         214.127         213.949         216.619 
       0.208729         207.354         204.971         207.534 
       0.214876         198.961         195.087         198.613 
       0.220989         185.745         184.681         188.571 
       0.227147         178.742         174.291         178.242 
        0.23329         169.889         164.699         169.506 
       0.239377         162.454         156.426         161.705 
       0.245482         154.742         149.516         154.394 
       0.251667         148.231         143.782         149.128 
       0.257832         145.114         138.963         144.246 
       0.263955         139.095         134.612         139.693 
       0.270079         134.704         130.281         135.201 
        0.27624         129.171         125.694         130.398 
       0.282372         124.796         120.832         125.804 
        0.28843         121.867         115.846         120.925 
       0.294538         116.398         110.851         116.263 
       0.300721         110.936         106.062         111.907 
        0.30691         107.993         101.723         107.699 
       0.313033         103.749         97.9472         103.826 
       0.319153         101.725         94.6657         100.891 
       0.325316         97.3046         91.7366         98.1819 
        0.33145         94.4971         89.0491         95.1553 
       0.337538         92.0363         86.4557         92.4132 
       0.343633         89.5276          83.838         89.8711 
       0.349808         86.6795         81.1217         87.3148 
       0.355968         83.8765         78.3696         85.0591 
       0.362074         81.9524         75.6651         82.2099 
       0.368217         79.4259         73.0427         79.2331 
       0.374374         77.6817         70.5843         77.1499 
       0.380519         74.3812         68.3312         74.7879 
       0.386598         72.2884         66.3029         72.8757 
       0.392688         70.2831         64.4404         71.0904 
        0.39888         68.9345         62.6675         69.1541 
       0.405048         67.3338         60.9745         67.3766 
       0.411186         65.5983         59.3184         66.1198 
       0.417313         63.8508         57.6695          64.157 
       0.423458         62.0171         56.0254         62.6382 
       0.429607         60.9291         54.4007         60.9134 
       0.435692         59.7232         52.8375         59.5236 
       0.441815         57.5339         51.3349         58.3291 
       0.447964         55.8382         49.9103         56.7251 
       0.454126         54.8705         48.5696         55.2939 
       0.460267         54.2944         47.3169         54.2104 
       0.466387          52.751         46.1354         52.8614 
        0.47254         51.9492         44.9942         51.8077 
       0.478662         50.4225         43.8911         50.6287 
       0.484765         49.3857         42.8151          49.504 
       0.490885          48.036         41.7536         48.7169 
       0.497035         47.1896         40.7053         47.7277 
       0.503198         46.1069         39.6822         46.4302 
       0.509342         44.9267         38.6976         45.5843 
       0.515458         44.3469         37.7565          44.887 
       0.521598          43.317          36.852         43.6309 
       0.527764         42.7591         35.9849         42.6446 
       0.533884         41.6805         35.1624         41.8611 
           0.54          40.874         34.3716          41.039 
       0.546137         39.6922         33.6023         40.4041 
       0.552299         39.0615          32.849         39.4361 
       0.558452         38.2924         32.1151         38.6809 
       0.564573         37.8713         31.4031         38.1899 
       0.570708         36.9087         30.7076         37.4472 
       0.576825         36.3734         30.0331         36.7427 
       0.582926         35.7204         29.3807          36.139 
       0.589034         35.0569         28.7491         35.5708 
       0.595184          34.593         28.1361         34.7358 
       0.601379         33.6698         27.5412         34.3153 
       0.607522         33.1797         26.9707         33.6188 
       0.613639         32.5681         26.4195         33.0356 
       0.619772         32.0821         25.8816         32.5583 
       0.625918         31.4162          25.356         32.0292 
       0.632068         31.1487         24.8434         31.4118 
       0.638161         30.5013         24.3489         30.8919 
         0.6443          30.017         23.8641         30.3387 
       0.650464         29.2771         23.3909         29.9755 
       0.656582          29.105         22.9343         29.4872 
       0.662703         28.7492         22.4903         28.9737 
       0.668861         27.9939         22.0559          28.614 
       0.675024         27.6401         21.6334         28.0612 
       0.681124         27.4777         21.2267         27.6452 
       0.687237         26.9323         20.8303         27.1477 
       0.693381         26.3275         20.4425         26.7515 
       0.699536         26.2206          20.064         26.3842 
       0.705665         25.7331         19.6968         26.1147 
       0.711789         25.2543         19.3391         25.6417 
       0.717957         24.7507         18.9875         25.2493 
        0.72409         24.5532         18.6465         24.9421 
       0.730186         24.3942         18.3159         24.5332 
       0.736317         23.8948         17.9916         24.1818 
       0.742472          23.596          17.674         23.9887 
       0.748622         23.2255         17.3646         23.5688 
        0.75476         22.6535         17.0635         23.2112 
       0.760888         22.5444         16.7702          22.936 
       0.767043         22.1516         16.4829         22.6836 
       0.773185         21.9142         16.2031         22.3788 
       0.779291         21.7544         15.9316         22.1066 
       0.785407         21.3481         15.6659         21.7835 
       0.791564         21.1605         15.4048         21.5152 
       0.797719         20.7315         15.1497          21.182 
       0.803834         20.6165         14.9022         20.8982 
       0.809972         20.2328         14.6593         20.7458 
       0.816124         20.0098         14.4213         20.4032 
       0.822261         19.7806         14.1893          20.135 
       0.828378         19.5308         13.9632         19.9021 
       0.834502         19.3351         13.7418         19.7059 
       0.840667         19.1417         13.5239         19.4211 
       0.846816         18.7415         13.3114         19.2276 
       0.852925          18.631         13.1049         19.0807 
       0.859047         18.4018         12.9024         18.7815 
       0.865192         18.1509         12.7036         18.5584 
       0.871341         17.8958         12.5088         18.3871 
       0.877463         17.7258         12.3191         18.1347 
       0.883569         17.5951         12.1339         17.9693 
       0.889708         17.3076         11.9516         17.7435 
       0.895864         17.0998         11.7726         17.5195 
       0.902008          16.882         11.5977         17.3588 
       0.908149         16.6716         11.4266         17.1681 
       0.914301         16.5822         11.2586         17.0261 
       0.920448          16.327         11.0942          16.759 
       0.926574         16.2281         10.9337         16.6001 
       0.932687         15.9862         10.7768         16.3495 
       0.938823         15.7829         10.6224         16.2435 
       0.944975         15.6461         10.4708         16.0509 
       0.951105         15.4508         10.3227         15.8399 
       0.957225         15.3608         10.1777         15.7734 
       0.963368          15.152         10.0351         15.5596 
       0.969511         14.9878         9.89518         15.4299 
       0.975621         14.8284         9.75876         15.2188 
       0.981748         14.6193         9.62458         15.0908 
       0.987916         14.5112         9.49212         14.9491 
        0.99406          14.403         9.36267          14.801 
        1.00019         14.2601         9.23592         14.6838 
        1.00632         14.1223         9.11166         14.5282 
        1.01246         13.9735         8.98953         14.4287 
        1.01859         13.8043         8.86987         14.2408 
        1.02471         13.6306         8.75255         14.0665 
        1.03085         13.5887         8.63698         13.9557 
        1.03698         13.4424         8.52377         13.8422 
        1.04314         13.2921         8.41213         13.6897 
        1.04929          13.104         8.30277         13.5785 
        1.05541         13.0427         8.19581         13.4668 
        1.06154         12.9234          8.0905         13.3314 
        1.06769         12.8528          7.9869         13.2246 
        1.07382         12.6296         7.88548         13.1068 
        1.07993         12.5112         7.78606         12.9858 
        1.08607         12.4549         7.68797         12.8424 
        1.09222         12.2874         7.59149         12.7297 
        1.09836         12.2664         7.49679         12.6038 
        1.10449         12.0398         7.40384         12.4983 
        1.11063         12.0059         7.31239         12.4002 
        1.11677         11.9056         7.22252         12.2904 
         1.1229         11.7991         7.13434         12.1977 
        1.12903         11.7151         7.04758         12.1255 
        1.13518         11.5302          6.9622         12.0142 
        1.14131         11.4574          6.8783          11.885 
        1.14745         11.3101         6.79584         11.7521 
        1.15359          11.234         6.71473         11.6814 
        1.15973         11.1296         6.63493         11.5891 
        1.16584         11.0451          6.5568         11.5299 
        1.17197         10.9429         6.47982         11.4103 
        1.17811         10.8423         6.40386         11.3029 
        1.18424         10.7615         6.32935         11.2208 
        1.19038         10.6899         6.25583         11.1273 
        1.19652         10.6073         6.18351         11.0539 
        1.20267         10.5138         6.11235         10.9308 
        1.20881         10.4098         6.04233         10.8864 
        1.21495         10.3218         5.97353         10.7918 
        1.22108         10.2665         5.90583         10.7107 
         1.2272         10.1602         5.83935         10.5987 
        1.23334         10.1323         5.77374         10.5351 
        1.23949         10.0128           5.709         10.4693 
        1.24562         9.92868         5.64544         10.3749 
        1.25174         9.86978         5.58296         10.2939 
        1.25789         9.73333         5.52123         10.2153 
        1.26402         9.70201         5.46056         10.1176 
        1.27014         9.64066         5.40096         10.0602 
        1.27628          9.5188         5.34207         10.0031 
        1.28244         9.49975         5.28396         9.93308 
        1.28858          9.4327          5.2268         9.84559 
        1.29471          9.2976         5.17062         9.77456 
        1.30084         9.23289         5.11532          9.7222 
        1.30697         9.20202         5.06076         9.63878 
        1.31312         9.11304         5.00692         9.57989 
        1.31925         9.04763         4.95404         9.52263 
        1.32537         8.99173         4.90199         9.45531 
        1.33151         8.91329          4.8505         9.38338 
        1.33765          8.8419         4.79979         9.30091 
        1.34378         8.82082         4.74992         9.25728 
        1.34992          8.7327         4.70072          9.1876 
        1.35606         8.66755         4.65212         9.09799 
         1.3622         8.59933         4.60431         9.04719 
        1.36833         8.53656         4.55728         9.01948 
        1.37445         8.46716         4.51094         8.94266 
        1.38059         8.42192         4.46511          8.8745 
        1.38675         8.35022         4.41982         8.81863 
        1.39288         8.29207         4.37533         8.76319 
        1.39901         8.22127         4.33149         8.71258 
        1.40515         8.17224         4.28815         8.65117 
         1.4113         8.11116         4.24543         8.59096 
        1.41742         8.06424         4.20346         8.53947 
        1.42355         7.99664         4.16198         8.47204 
         1.4297         7.96095         4.12094         8.43275 
        1.43585         7.90702         4.08048         8.38902 
        1.44198         7.84559         4.04072         8.31012 
        1.44809         7.80714         4.00157         8.28226 
        1.45423         7.74067         3.96279         8.21819 
        1.46036         7.69827         3.92461         8.16597 
        1.46649         7.63788         3.88692         8.12541 
        1.47263         7.60155          3.8497         8.07725 
        1.47877         7.54455         3.81299         8.02063 
        1.48491          7.5058          3.7767         7.97128 
        1.49104         7.43973         3.74097         7.91905 
        1.49718         7.41065         3.70567         7.87533 
        1.50333          7.3543         3.67078         7.83492 
        1.50947         7.28324         3.63642         7.78803 
         1.5156         7.27283         3.60254         7.73985 
        1.52172         7.22482          3.5691         7.69294 
        1.52787         7.17599         3.53603         7.63688 
          1.534         7.12812         3.50341         7.59062 
        1.54013         7.08516         3.47124         7.55146 
        1.54627         7.04138         3.43942         7.51355 
        1.55241         6.98359           3.408         7.46898 
        1.55855         6.96427         3.37702         7.41242 
        1.56467         6.90914         3.34651         7.38605 
         1.5708         6.86944         3.31629         7.34982 
        1.57695         6.80718         3.28641         7.29766 
        1.58308         6.76646         3.25697           7.264 
        1.58922         6.74333         3.22787         7.22645 
        1.59535         6.69996         3.19913         7.17868 
         1.6015         6.64556         3.17072         7.13277 
        1.60764         6.62216         3.14266         7.10154 
        1.61376         6.58638         3.11502         7.07338 
        1.61989         6.52055          3.0877         7.03123 
        1.62604         6.49644         3.06064         6.98716 
        1.63218         6.46136         3.03393         6.95276 
        1.63831         6.43649          3.0076          6.9181 
        1.64444         6.38153         2.98158         6.87127 
        1.65059          6.3523          2.9558         6.83761 
        1.65673         6.31856         2.93036         6.80294 
        1.66285          6.2813         2.90529         6.76682 
        1.66898         6.23607         2.88051         6.73418 
        1.67512         6.19826         2.85598         6.69991 
        1.68127         6.15935          2.8317           6.668 
         1.6874          6.1433         2.80777         6.63313 
        1.69353         6.08509         2.78413         6.58952 
        1.69967         6.06477          2.7607         6.55329 
        1.70581          6.0235         2.73756         6.52925 
        1.71193          5.9979         2.71478         6.50562 
        1.71806         5.96656          2.6922         6.46668 
        1.72421         5.92506         2.66984         6.42933 
        1.73035         5.89118         2.64776         6.39507 
        1.73649         5.86257         2.62594          6.3607 
        1.74262         5.82892         2.60439         6.32833 
        1.74876         5.80569         2.58306           6.304 
        1.75489         5.77321         2.56202         6.27373 
        1.76101         5.73153         2.54122         6.23185 
        1.76715         5.71886         2.52062         6.19806 
        1.77329         5.68299         2.50023         6.17518 
        1.77943         5.64115         2.48006         6.15012 
        1.78557         5.61828         2.46014         6.11555 
        1.79171         5.59877         2.44044          6.0826 
        1.79785         5.55869         2.42095         6.05323 
        1.80399         5.51734         2.40168         6.02551 
        1.81012         5.49774         2.38265         6.00446 
        1.81625         5.47134         2.36383         5.97755 
        1.82239          5.4416         2.34519         5.94636 
        1.82853         5.40994         2.32676         5.92672 
        1.83466          5.3713         2.30855         5.90496 
        1.84078         5.34886         2.29056         5.87092 
        1.84692         5.32465         2.27272         5.82832 
        1.85306         5.29701         2.25506         5.80031 
         1.8592         5.28018         2.23761         5.78338 
        1.86533         5.24572         2.22036         5.75892 
        1.87147         5.21941         2.20328         5.73353 
