# k  (h/Mpc)    P(k)  (Mpc/h)^3    P_linear(k)  (Mpc/h)^3     P_NL(k)  ShotnoiseSubtracted = false
     0.00783031         13472.2           13519         13501.8 
       0.013688         17582.5         18064.3         17948.6 
       0.019231         19174.2         19509.5         19309.7 
      0.0249154         19093.2         19160.7         18909.5 
      0.0312784         17307.1         17625.9         17317.9 
      0.0375637         15325.3         15765.5         15441.8 
      0.0433917         13941.1           14190         13828.7 
      0.0492413           12561         12929.6         12561.7 
      0.0555754         11637.7         11926.2           11561 
      0.0619321         10539.4         11178.4         10801.6 
       0.067871         10097.3         10573.6         10202.7 
      0.0738098         9568.79         9949.35         9483.77 
      0.0800417         8856.67         9215.99         8766.41 
      0.0862327         8056.64         8418.02         8072.66 
      0.0921407         7353.72         7646.77         7325.34 
      0.0982031         6757.37         6914.24         6710.44 
       0.104506         6070.95         6273.06         6171.53 
       0.110769         5631.36         5781.35         5645.81 
       0.116806         5399.45         5433.42         5298.59 
       0.122832         5090.54         5175.07         5068.11 
       0.129052         4846.52         4954.85          4857.5 
       0.135211         4727.53         4739.46         4638.28 
       0.141259         4417.47         4503.01         4455.15 
       0.147318         4120.83         4234.45         4226.72 
       0.153489         3908.52         3940.14         3895.29 
       0.159709         3762.51         3645.85         3675.98 
       0.165845         3441.37          3381.6         3521.22 
       0.171974         3347.65         3159.61         3323.67 
       0.178125         3249.72         2983.77         3226.73 
       0.184229         3002.62         2850.04         3076.52 
        0.19034         2971.17          2743.9         2978.49 
       0.196428         2900.23         2650.21         2865.69 
       0.202534         2747.29         2554.61         2788.69 
       0.208729         2693.36         2447.41         2659.37 
       0.214876         2589.32         2329.39         2594.54 
       0.220989         2473.24         2205.14         2513.78 
       0.227147         2409.66         2081.09         2425.26 
        0.23329         2318.59         1966.55          2352.1 
       0.239377         2307.76         1867.77         2265.38 
       0.245482         2209.51         1785.27         2174.65 
       0.251667         2130.71         1716.79         2133.06 
       0.257832         2100.63         1659.26         2075.36 
       0.263955         2017.49          1607.3         2025.92 
       0.270079         1978.76         1555.59         1974.56 
        0.27624         1896.77         1500.82         1919.23 
       0.282372         1882.88         1442.76         1885.86 
        0.28843         1846.64         1383.22         1843.24 
       0.294538         1771.86         1323.59         1792.03 
       0.300721         1744.97         1266.41         1740.41 
        0.30691         1701.66         1214.59         1718.93 
       0.313033         1645.13         1169.51         1671.66 
       0.319153          1631.5         1130.33         1628.37 
       0.325316          1612.5         1095.36         1610.96 
        0.33145         1582.04         1063.26         1559.06 
       0.337538         1536.72          1032.3         1539.33 
       0.343633         1504.56         1001.05         1522.59 
       0.349808         1482.87         968.608         1497.54 
       0.355968         1451.32          935.75         1474.19 
       0.362074         1417.14         903.457          1445.1 
       0.368217         1413.02         872.143         1411.66 
       0.374374         1390.56         842.793         1389.15 
       0.380519         1348.62         815.887         1366.06 
       0.386598         1346.65         791.671         1347.45 
       0.392688         1312.08         769.432         1322.78 
        0.39888         1290.73         748.262         1307.59 
       0.405048         1267.46         728.048         1289.52 
       0.411186         1259.45         708.272         1266.21 
       0.417313         1260.06         688.586         1251.96 
       0.423458         1222.22         668.956         1229.47 
       0.429607         1191.95         649.554         1209.03 
       0.435692         1184.41          630.89         1187.46 
       0.441815         1162.72         612.949         1186.46 
       0.447964         1153.64         595.939         1170.68 
       0.454126         1138.03         579.928         1140.33 
       0.460267         1126.22         564.974         1140.68 
       0.466387         1109.91         550.865         1119.32 
        0.47254         1089.18          537.24         1106.62 
       0.478662         1079.28         524.067         1094.68 
       0.484765         1069.91         511.221         1083.06 
       0.490885         1057.18         498.546         1063.49 
       0.497035         1040.19         486.029         1055.35 
       0.503198         1039.26         473.814         1044.44 
       0.509342         1020.64         462.056         1026.29 
       0.515458         1000.75          450.82         1021.58 
       0.521598         1002.35          440.02         1013.58 
       0.527764         978.101         429.666         1003.59 
       0.533884         968.892         419.845         993.044 
           0.54         961.933         410.403         983.701 
       0.546137         952.441         401.218          972.85 
       0.552299         943.812         392.223         959.596 
       0.558452         936.362         383.461          952.77 
       0.564573         930.099         374.959         943.345 
       0.570708         920.216         366.654         933.135 
       0.576825         902.527         358.601         921.833 
       0.582926         900.392         350.811         915.634 
       0.589034         891.632         343.269         902.544 
       0.595184         880.428          335.95         896.372 
       0.601379         866.844         328.846         889.512 
       0.607522          857.43         322.035         877.154 
       0.613639          856.14         315.455         874.124 
       0.619772         846.563         309.031         871.633 
       0.625918         838.452         302.755         861.674 
       0.632068         831.503         296.635         856.484 
       0.638161         819.747          290.73         841.122 
         0.6443         813.616         284.941         837.668 
       0.650464         808.244         279.291         827.814 
       0.656582          802.36          273.84         822.128 
       0.662703         790.508         268.538         816.243 
       0.668861         783.636         263.352         813.016 
       0.675024         778.725         258.306         809.356 
       0.681124         766.373         253.451         795.531 
       0.687237         766.938         248.717          790.19 
       0.693381         752.835         244.087         782.513 
       0.699536           754.7         239.568         777.309 
       0.705665         744.618         235.184         770.241 
       0.711789         741.685         230.912         763.623 
       0.717957         733.447         226.714         762.268 
        0.72409         727.088         222.643         756.035 
       0.730186         723.448         218.695         748.471 
       0.736317          715.55         214.823             742 
       0.742472         706.363         211.031         737.232 
       0.748622         703.972         207.336         730.998 
        0.75476         695.779         203.741         731.105 
       0.760888          692.12          200.24         723.323 
       0.767043         689.489         196.809         714.006 
       0.773185         684.575         193.468         710.161 
       0.779291         676.573         190.226         703.927 
       0.785407         671.289         187.054         699.732 
       0.791564         666.754         183.936         698.967 
       0.797719         656.925         180.891         691.692 
       0.803834         657.352         177.934         687.375 
       0.809972         649.231         175.034         684.459 
       0.816124         644.729         172.193         675.682 
       0.822261         640.646         169.423         671.575 
       0.828378         638.035         166.723          667.56 
       0.834502         628.004          164.08         665.717 
       0.840667          626.49         161.478         661.106 
       0.846816         621.861         158.941         656.054 
       0.852925         618.154         156.475         651.744 
       0.859047         612.584         154.057         645.247 
       0.865192         608.793         151.683         641.849 
       0.871341         602.274         149.358          638.64 
       0.877463         601.221         147.093         635.014 
       0.883569         594.504         144.881         629.779 
       0.889708         588.054         142.704         624.498 
       0.895864         582.709         140.567          621.11 
       0.902008         581.705         138.479         617.751 
       0.908149         576.172         136.435         612.118 
       0.914301          573.86          134.43         607.739 
       0.920448         566.795         132.467          605.75 
       0.926574         564.181         130.551         601.241 
       0.932687         562.004         128.677         597.552 
       0.938823         555.388         126.834         595.091 
       0.944975         551.697         125.023         591.258 
       0.951105         548.091         123.254         585.457 
       0.957225         540.603         121.523         584.505 
       0.963368         541.567          119.82         580.256 
       0.969511         534.032          118.15         576.189 
       0.975621         531.976         116.521         572.434 
       0.981748         528.224         114.919         568.223 
       0.987916         525.276         113.337           567.4 
        0.99406         520.167         111.792         562.818 
        1.00019         515.513         110.278         556.973 
        1.00632         512.554         108.795         554.105 
        1.01246         509.165         107.337         551.319 
        1.01859         504.683         105.908          546.88 
        1.02471         502.971         104.507         544.936 
        1.03085         498.215         103.127         543.843 
        1.03698         496.749         101.775         540.759 
        1.04314         490.871         100.442         537.092 
        1.04929         489.788         99.1364         532.332 
        1.05541         483.032         97.8593         528.505 
        1.06154         481.719         96.6019         525.225 
        1.06769         477.433         95.3649         521.597 
        1.07382         472.911         94.1539         519.145 
        1.07993         472.846         92.9668         516.331 
        1.08607         468.684         91.7956         512.797 
        1.09222         464.741         90.6436         509.299 
        1.09836         460.817         89.5129         508.162 
        1.10449          456.74         88.4031         505.415 
        1.11063         455.097         87.3111         500.422 
        1.11677         450.462         86.2381         499.284 
         1.1229         448.243         85.1852         495.685 
        1.12903         444.112         84.1492         492.715 
        1.13518         442.663         83.1298         489.712 
        1.14131         439.891          82.128         487.052 
        1.14745         434.957         81.1434         483.902 
        1.15359         432.224          80.175         482.334 
        1.15973         429.852         79.2221         479.139 
        1.16584         427.817         78.2892         476.798 
        1.17197          424.59         77.3701         473.789 
        1.17811         419.486         76.4631         470.925 
        1.18424         418.094         75.5735         469.034 
        1.19038         415.665         74.6956         466.127 
        1.19652         411.116         73.8321         463.161 
        1.20267         409.818         72.9824         460.478 
        1.20881         407.657         72.1464         457.538 
        1.21495         402.217         71.3249         455.133 
        1.22108         402.091         70.5165         452.623 
         1.2272         396.536         69.7227         449.986 
        1.23334         395.589         68.9394         446.911 
        1.23949         391.762         68.1664         444.835 
        1.24562         391.619         67.4075         442.783 
        1.25174         387.595         66.6614         440.585 
        1.25789          384.48         65.9244         438.214 
        1.26402         382.146            65.2          436.17 
        1.27014         380.043         64.4883         432.378 
        1.27628         376.315         63.7852         431.496 
        1.28244         373.915         63.0913         429.743 
        1.28858         372.223         62.4088         426.697 
        1.29471         370.454          61.738         424.149 
        1.30084         367.877         61.0777         421.412 
        1.30697         364.049         60.4262         419.621 
        1.31312         361.963         59.7834         417.878 
        1.31925         359.449          59.152         415.005 
        1.32537         357.635         58.5305         412.396 
        1.33151         354.242         57.9157         411.113 
        1.33765         351.609         57.3103         409.128 
        1.34378         349.256         56.7147         405.851 
        1.34992         346.571         56.1273         403.281 
        1.35606         344.167         55.5471         401.569 
         1.3622          342.68         54.9761         400.064 
        1.36833         341.334         54.4146         398.264 
        1.37445         339.106         53.8614         395.497 
        1.38059         335.194         53.3142         394.034 
        1.38675         333.683         52.7733         392.602 
        1.39288         331.813         52.2422         389.392 
        1.39901         329.097         51.7187         386.962 
        1.40515         327.415         51.2012         384.595 
         1.4113         324.982         50.6911         382.565 
        1.41742         321.913         50.1899         381.236 
        1.42355         321.158         49.6947         379.079 
         1.4297         318.991         49.2047         376.765 
        1.43585         314.706         48.7215         375.772 
        1.44198         314.399         48.2468         373.432 
        1.44809         312.365         47.7793         371.814 
        1.45423         309.562         47.3164         368.633 
        1.46036          308.25         46.8605          367.15 
        1.46649         306.213         46.4104         365.574 
        1.47263         302.965          45.966         362.911 
        1.47877          302.03         45.5277         361.135 
        1.48491          299.12         45.0944         359.061 
        1.49104         296.788         44.6677         357.048 
        1.49718         295.163         44.2463         356.688 
        1.50333         293.218         43.8297         354.837 
        1.50947         292.197         43.4194         352.538 
         1.5156         288.724         43.0149         350.578 
        1.52172         287.284         42.6156         348.507 
        1.52787         285.179         42.2207         346.819 
          1.534         284.434         41.8312          345.34 
        1.54013         281.814         41.4471         343.569 
        1.54627         279.841         41.0672         341.904 
        1.55241         278.416          40.692         340.615 
        1.55855         276.161         40.3221         339.192 
        1.56467         274.385         39.9578         336.557 
         1.5708         272.831         39.5971         334.452 
        1.57695         271.266         39.2402         332.994 
        1.58308         270.041         38.8887         331.103 
        1.58922         267.712         38.5412         329.675 
        1.59535         265.044         38.1982           328.6 
         1.6015         264.016         37.8588         327.218 
        1.60764         262.302         37.5238         325.122 
        1.61376          260.29         37.1938         323.161 
        1.61989         258.812         36.8676         321.838 
        1.62604         256.786         36.5445         319.962 
        1.63218         255.156         36.2256         318.497 
        1.63831         253.886         35.9112         317.331 
        1.64444         251.866         35.6005         315.178 
        1.65059         250.897         35.2927         313.775 
        1.65673         248.695          34.989         312.616 
        1.66285         247.246         34.6896          310.82 
        1.66898         245.766         34.3938         308.645 
        1.67512         243.458         34.1008          307.73 
        1.68127         242.202         33.8109         306.304 
         1.6874         240.581         33.5252          304.54 
        1.69353         239.876         33.2429         303.509 
        1.69967         237.984         32.9632          301.73 
        1.70581         235.787         32.6869         300.174 
        1.71193         234.837         32.4148         299.011 
        1.71806         232.619         32.1453         297.346 
        1.72421         231.504         31.8783         295.791 
        1.73035         229.543         31.6147         294.152 
        1.73649         228.008         31.3541         292.581 
        1.74262         226.993         31.0968         291.736 
        1.74876         225.273         30.8421         290.233 
        1.75489         224.114         30.5909         288.657 
        1.76101         222.811         30.3425         287.665 
        1.76715          220.98         30.0966         286.412 
        1.77329         218.956         29.8531         285.113 
        1.77943          217.83         29.6123         283.719 
        1.78557         216.788         29.3744         282.085 
        1.79171         215.653         29.1392         280.757 
        1.79785         213.879         28.9065         279.478 
        1.80399         212.744         28.6764         277.956 
        1.81012          211.15         28.4492         277.065 
        1.81625         209.754         28.2245         275.844 
        1.82239         208.259         28.0019         274.115 
        1.82853         207.463         27.7819             273 
        1.83466         205.779         27.5644         271.756 
        1.84078          204.39         27.3496         270.354 
        1.84692         203.315         27.1367          269.45 
        1.85306         201.628         26.9258          268.14 
         1.8592         200.756         26.7174         266.647 
        1.86533         198.804         26.5115         265.676 
        1.87147         198.222         26.3074         264.501 
        1.87761         196.636         26.1055          263.27 
