# k  (h/Mpc)    P(k)  (Mpc/h)^3    P_linear(k)  (Mpc/h)^3     P_NL(k)  ShotnoiseSubtracted = false
     0.00783031         9128.34         9164.25         9156.11 
       0.013688         11975.8         12250.3         12185.6 
       0.019231         13052.8         13231.8         13121.4 
      0.0249154         12972.6           12996         12867.4 
      0.0312784         11801.6         11955.4         11807.8 
      0.0375637         10473.4         10693.8         10539.8 
      0.0433917         9519.17         9625.28         9455.73 
      0.0492413         8592.19          8770.4         8598.25 
      0.0555754         7968.56         8089.83          7917.4 
      0.0619321         7253.74         7582.61         7403.64 
       0.067871         6945.77         7172.39         6994.78 
      0.0738098         6569.36         6748.98         6525.34 
      0.0800417          6090.9         6251.53          6034.5 
      0.0862327         5538.87         5710.25          5544.1 
      0.0921407         5045.63         5187.09         5031.03 
      0.0982031         4621.97          4690.2         4593.28 
       0.104506         4151.17         4255.27         4208.31 
       0.110769         3844.69         3921.73         3854.01 
       0.116806         3681.59         3685.71         3618.72 
       0.122832         3464.83         3510.46         3458.04 
       0.129052         3312.87         3361.08         3311.94 
       0.135211         3220.06         3214.98         3165.86 
       0.141259         3015.76         3054.59         3029.93 
       0.147318          2805.1         2872.41          2871.9 
       0.153489         2652.73         2672.77         2648.97 
       0.159709         2532.62         2473.14         2488.38 
       0.165845         2310.84         2293.89         2368.06 
       0.171974         2246.45          2143.3         2226.61 
       0.178125         2164.75         2024.03         2150.23 
       0.184229         2007.04         1933.31         2053.25 
        0.19034         1977.87         1861.31         1983.95 
       0.196428         1925.32         1797.76         1904.31 
       0.202534         1815.62         1732.91         1849.58 
       0.208729         1783.53         1660.19         1764.44 
       0.214876         1714.76         1580.13         1718.75 
       0.220989         1618.51         1495.85         1655.62 
       0.227147         1579.48          1411.7         1585.93 
        0.23329         1518.86            1334         1535.86 
       0.239377          1500.1         1266.99         1477.79 
       0.245482         1429.49         1211.03         1413.45 
       0.251667         1377.53         1164.58         1383.98 
       0.257832         1362.47         1125.55         1343.27 
       0.263955         1299.93         1090.31         1306.85 
       0.270079         1267.13         1055.23         1271.98 
        0.27624         1215.34         1018.08         1233.61 
       0.282372         1198.56         978.692         1202.66 
        0.28843         1184.87         938.305         1167.92 
       0.294538         1128.29          897.85         1136.88 
       0.300721         1101.93         859.063          1104.9 
        0.30691         1081.61         823.913         1085.18 
       0.313033         1039.35         793.331            1052 
       0.319153         1026.17         766.757         1026.41 
       0.325316         1012.59         743.032          1011.9 
        0.33145         993.847         721.262         978.152 
       0.337538         960.885         700.258         961.109 
       0.343633         936.589         679.057         950.479 
       0.349808         917.837         657.052         932.479 
       0.355968         901.589         634.763         915.555 
       0.362074         874.933         612.858         894.898 
       0.368217         871.478         591.615         870.156 
       0.374374         858.082         571.706         855.224 
       0.380519         827.732         553.454         837.786 
       0.386598         821.231         537.028         826.834 
       0.392688         804.738         521.942         808.205 
        0.39888          784.74         507.582         797.975 
       0.405048          772.57          493.87          789.22 
       0.411186         769.479         480.455         770.138 
       0.417313         764.757           467.1          756.04 
       0.423458         741.179         453.785         745.052 
       0.429607         721.919         440.623         729.688 
       0.435692         713.962         427.963           717.5 
       0.441815         702.601         415.793         713.271 
       0.447964         691.354         404.254         701.103 
       0.454126          682.98         393.392         684.672 
       0.460267         673.097         383.249         682.544 
       0.466387           664.1         373.678           669.6 
        0.47254          652.75         364.435         662.313 
       0.478662         641.798           355.5         651.566 
       0.484765         636.447         346.785         640.414 
       0.490885         629.688         338.187         631.565 
       0.497035         618.364         329.696          625.71 
       0.503198         617.573          321.41         616.918 
       0.509342         604.759         313.434         609.117 
       0.515458         594.258         305.813         605.581 
       0.521598         587.854         298.487         596.384 
       0.527764         577.291         291.463         588.995 
       0.533884         574.706         284.801         582.422 
           0.54         567.808         278.396         575.227 
       0.546137         558.172         272.165         568.535 
       0.552299         556.937         266.064         561.145 
       0.558452         549.341         260.119         556.211 
       0.564573         542.992         254.352         551.478 
       0.570708         538.779         248.719         546.759 
       0.576825         528.513         243.256         537.536 
       0.582926         525.492         237.972         531.991 
       0.589034         518.682         232.856         524.863 
       0.595184         514.467         227.891         519.712 
       0.601379         506.319         223.072         516.092 
       0.607522         498.761         218.452         510.303 
       0.613639         496.816         213.988          506.46 
       0.619772         494.384         209.631         504.774 
       0.625918          486.32         205.373         498.396 
       0.632068         481.855         201.222         492.568 
       0.638161         476.871         197.216         486.948 
         0.6443         473.089         193.289         484.141 
       0.650464         467.582         189.457         476.338 
       0.656582         463.416         185.759         472.395 
       0.662703         459.461         182.162         470.979 
       0.668861         453.845         178.644         466.882 
       0.675024         450.278         175.221          462.69 
       0.681124         445.504         171.928         455.891 
       0.687237         442.487         168.717         452.127 
       0.693381         437.387         165.576         448.633 
       0.699536          433.84          162.51         445.806 
       0.705665         429.567         159.536         441.873 
       0.711789         428.445         156.638         437.973 
       0.717957         421.869         153.791         435.444 
        0.72409         418.325         151.029         432.085 
       0.730186          419.81         148.351         428.629 
       0.736317         412.377         145.724         424.001 
       0.742472           407.9         143.152         420.226 
       0.748622         404.174         140.646         416.871 
        0.75476         402.692         138.207         416.323 
       0.760888         399.062         135.832         411.266 
       0.767043         395.952         133.505         408.473 
       0.773185         393.963         131.239         405.311 
       0.779291         387.851         129.039         401.658 
       0.785407         386.487         126.888         399.275 
       0.791564         382.641         124.772         396.619 
       0.797719         377.204         122.707         393.448 
       0.803834         379.963         120.701         391.127 
       0.809972         374.239         118.734         388.286 
       0.816124         370.286         116.806          383.78 
       0.822261         366.707         114.927         381.815 
       0.828378         366.227         113.096         378.989 
       0.834502         360.601         111.303         377.226 
       0.840667         360.478         109.538          374.41 
       0.846816         354.936         107.817         372.011 
       0.852925         354.589         106.144         369.174 
       0.859047         350.932         104.504         366.626 
       0.865192         350.385         102.894         364.326 
       0.871341          345.35         101.316         361.892 
       0.877463          342.12           99.78         359.661 
       0.883569         340.549         98.2798         357.562 
       0.889708         337.735         96.8031         354.474 
       0.895864         335.358         95.3535         352.476 
       0.902008         333.213         93.9369         349.998 
       0.908149         330.565         92.5504         346.895 
       0.914301         328.713           91.19         345.368 
       0.920448         326.531         89.8585          342.08 
       0.926574         324.346         88.5587         340.222 
       0.932687         321.761         87.2877         337.387 
       0.938823          318.89         86.0373         337.025 
       0.944975         317.315         84.8089         334.947 
       0.951105         314.665         83.6092         332.283 
       0.957225         311.358         82.4351         330.128 
       0.963368         311.153         81.2798         327.574 
       0.969511         305.754         80.1469         325.521 
       0.975621         305.713         79.0419         324.624 
       0.981748          303.49         77.9551         322.225 
       0.987916          301.75         76.8822         320.727 
        0.99406         299.031         75.8337         318.845 
        1.00019         296.773         74.8071         315.803 
        1.00632          296.43         73.8007         313.698 
        1.01246         293.982         72.8115         311.781 
        1.01859         290.249         71.8422          310.24 
        1.02471         288.236          70.892         308.989 
        1.03085         287.829          69.956         307.256 
        1.03698         285.263          69.039         305.718 
        1.04314         284.763         68.1347          303.45 
        1.04929         282.344         67.2489         301.203 
        1.05541         279.505         66.3827           299.5 
        1.06154         277.929         65.5297         297.844 
        1.06769         275.154         64.6906         296.257 
        1.07382         275.168         63.8691         294.198 
        1.07993         271.986         63.0638         292.875 
        1.08607         269.848         62.2693         291.219 
        1.09222          268.72         61.4879         289.309 
        1.09836         267.369         60.7209         288.487 
        1.10449         265.013          59.968         286.437 
        1.11063         262.819         59.2273         284.643 
        1.11677         261.639         58.4994         282.941 
         1.1229         259.653         57.7852         281.775 
        1.12903         258.744         57.0824         280.361 
        1.13518         256.613         56.3909         278.476 
        1.14131         255.782         55.7113         277.047 
        1.14745         252.346         55.0435         275.463 
        1.15359         250.421         54.3865         273.865 
        1.15973          249.87         53.7402         272.153 
        1.16584         248.853         53.1073         270.001 
        1.17197         246.751         52.4839         269.032 
        1.17811          244.57         51.8686         268.085 
        1.18424         243.147         51.2651         266.632 
        1.19038         241.753         50.6696         265.154 
        1.19652         239.195         50.0838         264.114 
        1.20267          238.81         49.5074         261.849 
        1.20881         236.742         48.9403          261.19 
        1.21495         236.092         48.3831         258.982 
        1.22108         234.188         47.8347         257.901 
         1.2272         232.006         47.2962         255.772 
        1.23334           231.1         46.7649         254.906 
        1.23949         230.277         46.2405         254.365 
        1.24562         228.445         45.7257         252.439 
        1.25174         226.723         45.2196         251.575 
        1.25789          224.88         44.7197         250.053 
        1.26402         224.592         44.2283         248.408 
        1.27014         223.164         43.7455         247.684 
        1.27628         220.536         43.2685         246.738 
        1.28244         219.917         42.7979         244.936 
        1.28858          218.35         42.3349         243.572 
        1.29471         217.243         41.8798         242.138 
        1.30084         215.768         41.4319         240.951 
        1.30697         214.016           40.99         239.962 
        1.31312         212.742         40.5539         238.238 
        1.31925         211.376         40.1256          236.84 
        1.32537         210.738          39.704         236.113 
        1.33151          208.96          39.287         234.945 
        1.33765         207.271         38.8763          233.47 
        1.34378          206.37         38.4723           232.3 
        1.34992         205.192         38.0739         230.977 
        1.35606         203.924         37.6802         229.547 
         1.3622         202.908         37.2929         228.547 
        1.36833         200.706         36.9121         227.565 
        1.37445         200.478         36.5367         225.938 
        1.38059         198.751         36.1655         225.297 
        1.38675         197.482         35.7987         224.106 
        1.39288         196.321         35.4384         222.323 
        1.39901         195.126         35.0832         221.797 
        1.40515         194.068         34.7322         220.928 
         1.4113         192.675         34.3862         219.483 
        1.41742         191.038         34.0462         218.422 
        1.42355         191.317         33.7103         217.815 
         1.4297          189.27         33.3779         216.457 
        1.43585         188.085         33.0501         215.302 
        1.44198         186.278         32.7281         214.185 
        1.44809         185.326          32.411         213.039 
        1.45423         184.751          32.097         211.954 
        1.46036         183.408         31.7877         210.923 
        1.46649         182.221         31.4824         210.238 
        1.47263         181.454          31.181         209.589 
        1.47877           180.2         30.8836         208.176 
        1.48491         178.504         30.5897         207.083 
        1.49104          176.81         30.3003         206.323 
        1.49718          176.46         30.0144         204.823 
        1.50333         175.425         29.7318         203.978 
        1.50947         174.412         29.4534          203.16 
         1.5156         173.261         29.1791         202.047 
        1.52172         172.221         28.9082         201.053 
        1.52787         171.374         28.6403         200.105 
          1.534         170.249         28.3761         199.012 
        1.54013         169.293         28.1156         198.183 
        1.54627         168.271         27.8579           197.4 
        1.55241         167.192         27.6034         196.337 
        1.55855         166.368         27.3524         195.189 
        1.56467         164.879         27.1053         194.246 
         1.5708         163.883         26.8606         193.725 
        1.57695         163.192         26.6185         192.788 
        1.58308         162.078         26.3801         191.542 
        1.58922         161.288         26.1443          190.73 
        1.59535         160.123         25.9116          189.84 
         1.6015         158.669         25.6815         188.825 
        1.60764         158.006         25.4542         187.909 
        1.61376          156.95         25.2304         187.225 
        1.61989         156.171          25.009         186.528 
        1.62604         155.016         24.7899         185.551 
        1.63218         154.364         24.5735         184.598 
        1.63831         153.257         24.3603         183.696 
        1.64444         152.254         24.1495         182.696 
        1.65059         151.392         23.9407          182.09 
        1.65673         150.497         23.7347         181.179 
        1.66285         149.983         23.5316           180.2 
        1.66898         148.605         23.3309         179.547 
        1.67512         147.946         23.1322         178.735 
        1.68127         146.778         22.9356         177.921 
         1.6874         146.074         22.7417         177.244 
        1.69353         145.248         22.5502          176.55 
        1.69967         144.216         22.3605         175.448 
        1.70581         143.701         22.1731         174.563 
        1.71193         142.392         21.9885         173.849 
        1.71806         141.534         21.8057         172.745 
        1.72421         140.929         21.6246         172.081 
        1.73035         140.003         21.4458         171.426 
        1.73649          138.84          21.269          170.56 
        1.74262         138.373         21.0944         169.973 
        1.74876         137.367         20.9217         169.147 
        1.75489         136.617         20.7512         168.209 
        1.76101         135.814         20.5828         167.435 
        1.76715         134.682          20.416         166.673 
        1.77329         134.322         20.2508         165.872 
        1.77943         133.044         20.0874         165.109 
        1.78557         132.599         19.9261          164.46 
        1.79171         131.772         19.7665         163.889 
        1.79785          130.72         19.6087         163.192 
        1.80399         130.174         19.4526         162.262 
        1.81012         128.985         19.2984         161.457 
        1.81625         128.659          19.146         160.871 
        1.82239         127.771         18.9951         160.276 
        1.82853         127.263         18.8458         159.479 
        1.83466         126.166         18.6983         158.615 
        1.84078         125.449         18.5525         157.894 
        1.84692         125.144         18.4081           157.4 
        1.85306         123.995          18.265         156.683 
         1.8592         123.373         18.1237         155.948 
        1.86533         122.368          17.984         155.456 
        1.87147         121.925         17.8456         154.588 
        1.87761         120.984         17.7086         153.746 
