# k  (h/Mpc)    Pcb(k)  (Mpc/h)^3    Pcb_linear(k) (Mpc/h)^3    Pcb_NL(k) (Mpc/h)^3   ShotnoiseSubtracted = false
     0.00783031         12517.9         12562.6         12547.7 
       0.013688         16356.8         16788.6         16685.5 
       0.019231         17835.9         18132.4         17954.7 
      0.0249154         17753.3         17808.5         17588.3 
      0.0312784         16105.7         16382.2         16115.4 
      0.0375637         14268.4         14653.1           14373 
      0.0433917         12977.6         13188.9         12876.9 
      0.0492413         11697.2         12017.4         11699.9 
      0.0555754         10840.4         11084.8           10769 
      0.0619321         9827.97         10389.8         10063.5 
       0.067871         9415.25         9827.67         9505.96 
      0.0738098         8918.14         9247.48          8843.4 
      0.0800417         8257.86         8565.86          8175.1 
      0.0862327         7511.08         7824.18          7524.1 
      0.0921407         6852.58         7107.34         6827.35 
      0.0982031         6292.34         6426.49         6249.54 
       0.104506         5652.36         5830.55         5742.63 
       0.110769         5241.32         5373.53         5254.26 
       0.116806         5024.33         5050.14         4931.58 
       0.122832         4734.49         4810.01         4716.19 
       0.129052         4512.14         4605.32         4519.28 
       0.135211         4398.04         4405.13         4316.48 
       0.141259         4111.41         4185.36         4142.33 
       0.147318         3832.03         3935.74         3929.43 
       0.153489         3632.47          3662.2          3621.6 
       0.159709         3490.62         3388.67         3414.34 
       0.165845         3190.26         3143.06         3266.06 
       0.171974         3103.87         2936.73         3079.98 
       0.178125          3008.4          2773.3         2986.99 
       0.184229         2780.87            2649         2848.78 
        0.19034         2749.46         2550.35         2756.86 
       0.196428         2682.15         2463.26         2650.64 
       0.202534         2537.52         2374.41         2578.47 
       0.208729         2489.39         2274.77         2458.57 
       0.214876         2392.83         2165.08         2398.41 
       0.220989         2279.59         2049.59         2320.79 
       0.227147         2221.74         1934.29         2235.45 
        0.23329         2137.64         1827.83         2167.81 
       0.239377         2124.85         1736.02         2087.35 
       0.245482            2032         1659.33            2002 
       0.251667         1959.28         1595.69         1963.23 
       0.257832         1933.08         1542.21          1908.9 
       0.263955         1853.73         1493.93         1861.88 
       0.270079         1815.61         1445.86         1814.34 
        0.27624         1740.57         1394.95         1762.82 
       0.282372         1725.48         1340.99         1728.81 
        0.28843         1695.65         1285.65          1687.4 
       0.294538         1623.57         1230.22         1641.17 
       0.300721         1596.26         1177.08         1593.83 
        0.30691         1559.16         1128.91         1572.58 
       0.313033         1504.81         1087.01         1528.34 
       0.319153         1491.03          1050.6         1489.27 
       0.325316         1473.75         1018.09         1472.29 
        0.33145         1446.14         988.263         1424.42 
       0.337538         1403.04         959.482         1405.01 
       0.343633         1372.49         930.431         1389.84 
       0.349808         1350.89         900.285         1366.16 
       0.355968         1323.65         869.742         1344.07 
       0.362074         1289.73         839.728         1316.82 
       0.368217         1286.18         810.624         1285.06 
       0.374374         1266.63         783.342         1264.48 
       0.380519         1226.67         758.336          1242.1 
       0.386598         1223.19         735.826         1225.86 
       0.392688         1193.13         715.156         1201.51 
        0.39888         1170.96          695.48         1187.91 
       0.405048         1150.72         676.692         1172.28 
       0.411186         1144.56         658.312         1149.45 
       0.417313         1144.31         640.013         1134.96 
       0.423458          1109.1         621.767         1115.76 
       0.429607         1080.59         603.736         1095.84 
       0.435692         1073.52         586.388         1076.88 
       0.441815         1054.08         569.712         1074.72 
       0.447964         1044.07         553.901         1059.37 
       0.454126         1029.92         539.023          1032.4 
       0.460267         1018.81          525.12         1032.19 
       0.466387         1004.33         512.008         1012.79 
        0.47254         985.447         499.343         1001.57 
       0.478662          975.48           487.1         989.669 
       0.484765          967.06         475.159         977.864 
       0.490885         955.588         463.379         960.882 
       0.497035         940.145         451.744         953.087 
       0.503198         938.733         440.391         942.592 
       0.509342         922.295         429.463         926.905 
       0.515458         904.054         419.019         922.669 
       0.521598         903.224         408.981         914.428 
       0.527764         882.356         399.358         904.845 
       0.533884         874.667         390.229         894.978 
           0.54         867.766         381.454          885.96 
       0.546137         858.241         372.916          875.75 
       0.552299         851.735         364.556         863.762 
       0.558452         843.959         356.411          857.59 
       0.564573         836.979         348.509         849.557 
       0.570708         829.366         340.791         841.003 
       0.576825         812.878         333.305         829.916 
       0.582926         810.924         326.064         823.666 
       0.589034         802.135         319.056         811.428 
       0.595184         792.787         312.252         806.023 
       0.601379         780.502          305.65         799.753 
       0.607522         771.168         299.319         788.977 
       0.613639         770.076         293.202         786.064 
       0.619772         762.912         287.233         784.146 
       0.625918         753.364         281.399         774.506 
       0.632068         747.989          275.71         769.481 
       0.638161         737.792         270.222         755.919 
         0.6443         732.018         264.842         753.115 
       0.650464          726.63          259.59         742.962 
       0.656582         721.038         254.523         737.983 
       0.662703         711.145         249.595          733.41 
       0.668861         704.928         244.775         729.987 
       0.675024         700.124         240.085         725.861 
       0.681124          689.38         235.573         713.654 
       0.687237          689.26         231.173         708.484 
       0.693381          677.38         226.869         702.157 
       0.699536         677.609         222.669         697.449 
       0.705665         669.425         218.594         691.023 
       0.711789          667.24         214.623         685.049 
       0.717957         658.691         210.722         683.534 
        0.72409         653.074         206.938         677.571 
       0.730186         650.756         203.269         671.462 
       0.736317         642.823         199.669         665.227 
       0.742472          634.86         196.145         660.439 
       0.748622         632.317         192.711         655.218 
        0.75476         625.621         189.369         655.593 
       0.760888         622.238         186.115         647.783 
       0.767043         619.635         182.926         640.319 
       0.773185         615.355         179.821         636.809 
       0.779291         607.807         176.807         631.268 
       0.785407         603.427         173.859         627.628 
       0.791564         599.228         170.961         626.108 
       0.797719         590.704         168.131         619.475 
       0.803834         591.623         165.383         616.096 
       0.809972         583.806         162.687         613.196 
       0.816124         579.207         160.046         604.636 
       0.822261         575.814         157.472         601.502 
       0.828378         573.016         154.962         597.824 
       0.834502         564.322         152.506         596.126 
       0.840667          563.31         150.088         591.717 
       0.846816         557.952         147.729         587.251 
       0.852925          555.88         145.437         583.609 
       0.859047         550.795          143.19         578.057 
       0.865192         547.483         140.983         574.545 
       0.871341         540.812         138.822          571.89 
       0.877463         539.419         136.717         568.326 
       0.883569         533.553         134.661          564.05 
       0.889708         528.294         132.638         559.339 
       0.895864         523.517         130.652         556.493 
       0.902008         522.547         128.711         553.344 
       0.908149          517.89         126.811         548.366 
       0.914301         515.793         124.947         544.446 
       0.920448         509.316         123.123         541.954 
       0.926574         507.299         121.342         537.982 
       0.932687         505.343           119.6         534.823 
       0.938823         498.897         117.887         533.171 
       0.944975         496.093         116.204         529.114 
       0.951105         492.689          114.56           524.1 
       0.957225         485.693         112.951         523.203 
       0.963368         486.836         111.368          519.56 
       0.969511         479.117         109.816         515.844 
       0.975621         478.372         108.302         512.487 
       0.981748         475.045         106.813         508.743 
       0.987916         472.127         105.343         507.967 
        0.99406         467.637         103.906         503.989 
        1.00019          463.15         102.499         498.458 
        1.00632         461.648          101.12          496.06 
        1.01246         458.158         99.7651         493.252 
        1.01859         453.615          98.437         489.446 
        1.02471         451.704         97.1351         488.012 
        1.03085         448.701         95.8525         486.625 
        1.03698         446.417          94.596         483.794 
        1.04314         442.436          93.357         480.553 
        1.04929         440.668         92.1434         476.459 
        1.05541         434.386         90.9564         473.208 
        1.06154         433.449         89.7877         470.352 
        1.06769         429.253         88.6379         467.096 
        1.07382         426.291         87.5123         464.848 
        1.07993         425.088          86.409         462.438 
        1.08607         421.607         85.3204         458.994 
        1.09222         418.032         84.2496         456.072 
        1.09836         415.344         83.1987         454.997 
        1.10449         411.919         82.1672         452.065 
        1.11063         409.633         81.1522         448.081 
        1.11677         405.313         80.1549         446.856 
         1.1229         404.049         79.1763         443.933 
        1.12903         400.566         78.2134         441.459 
        1.13518         398.397         77.2659         438.695 
        1.14131         396.583         76.3347         436.085 
        1.14745         391.625         75.4196         433.607 
        1.15359          389.03         74.5195         431.896 
        1.15973         387.265         73.6339         429.154 
        1.16584         385.392         72.7667         426.915 
        1.17197         382.389         71.9125         424.345 
        1.17811         378.143         71.0695         422.037 
        1.18424         376.618         70.2426         420.456 
        1.19038         374.544         69.4266         417.793 
        1.19652         370.374          68.624         415.389 
        1.20267         369.472         67.8343         412.483 
        1.20881         367.577         67.0572         410.299 
        1.21495         363.011         66.2937         407.804 
        1.22108         362.174         65.5424         405.512 
         1.2272         357.094         64.8045         402.981 
        1.23334         356.289         64.0765         400.419 
        1.23949         353.618          63.358         398.929 
        1.24562         353.165         62.6526         397.042 
        1.25174         349.194         61.9591         394.869 
        1.25789          346.54         61.2741         392.825 
        1.26402         344.777         60.6008         391.074 
        1.27014         343.029         59.9393         387.699 
        1.27628         339.592         59.2858         386.982 
        1.28244         337.422         58.6409         385.481 
        1.28858          335.88         58.0065         382.617 
        1.29471         334.094          57.383         379.877 
        1.30084         332.048         56.7693         377.943 
        1.30697         328.547         56.1638         376.476 
        1.31312         326.506         55.5663         374.782 
        1.31925           324.7         54.9795         372.112 
        1.32537         322.872         54.4018         369.594 
        1.33151         319.904         53.8304         368.439 
        1.33765         317.514         53.2676         366.624 
        1.34378         315.226         52.7141         364.137 
        1.34992         312.805         52.1682         361.683 
        1.35606          310.97         51.6288         359.998 
         1.3622         309.503         51.0982         358.598 
        1.36833         308.143         50.5763         357.217 
        1.37445         306.286          50.062         354.398 
        1.38059         302.819         49.5534         353.414 
        1.38675          301.38         49.0507         352.174 
        1.39288         300.144          48.557         348.827 
        1.39901         297.222         48.0705         346.949 
        1.40515         295.749         47.5895          344.95 
         1.4113          293.41         47.1154         343.009 
        1.41742         290.647         46.6496         341.808 
        1.42355         290.517         46.1892         339.727 
         1.4297          287.94         45.7338         337.913 
        1.43585         284.565         45.2847         337.169 
        1.44198         283.836         44.8435         334.683 
        1.44809         282.287          44.409         333.574 
        1.45423         279.974         43.9787         330.663 
        1.46036         278.547         43.5549         329.223 
        1.46649         276.932         43.1367         327.965 
        1.47263         273.951         42.7236         325.757 
        1.47877         272.839         42.3162         323.943 
        1.48491         270.549         41.9135         322.221 
        1.49104         268.581         41.5169         320.429 
        1.49718         267.139         41.1252          319.75 
        1.50333         264.831          40.738         318.447 
        1.50947         264.173         40.3566         316.588 
         1.5156         261.503         39.9807         314.571 
        1.52172         259.948         39.6096         312.523 
        1.52787           258.1         39.2425         311.241 
          1.534         257.554         38.8805         310.015 
        1.54013         254.948         38.5235         308.298 
        1.54627         253.584         38.1704         306.764 
        1.55241         251.809         37.8217           305.6 
        1.55855         250.447         37.4778         304.249 
        1.56467         248.592         37.1392         301.983 
         1.5708         247.195         36.8039         300.177 
        1.57695         245.643         36.4723         299.016 
        1.58308          244.41         36.1455         297.356 
        1.58922         242.305         35.8225         295.818 
        1.59535         240.235         35.5037         294.897 
         1.6015         239.142         35.1883         293.491 
        1.60764         237.555         34.8769         291.505 
        1.61376         235.446         34.5702         290.003 
        1.61989         234.091          34.267         288.783 
        1.62604         232.319         33.9667         287.253 
        1.63218         230.975         33.6703         286.019 
        1.63831         230.249         33.3781         284.891 
        1.64444         228.009         33.0892         283.051 
        1.65059         227.279         32.8032         281.747 
        1.65673         225.128         32.5209          280.63 
        1.66285         224.029         32.2427         279.057 
        1.66898         222.648         31.9676         277.217 
        1.67512         220.682         31.6953         276.305 
        1.68127         219.678         31.4259         274.915 
         1.6874         218.071         31.1603         273.382 
        1.69353         216.984          30.898          272.62 
        1.69967         215.503          30.638         270.979 
        1.70581         214.031         30.3812         269.565 
        1.71193         212.676         30.1283         268.536 
        1.71806         210.772         29.8778         266.919 
        1.72421         209.863         29.6296         265.716 
        1.73035         208.034         29.3846         264.344 
        1.73649         206.508         29.1424         262.814 
        1.74262         205.717         28.9032         262.198 
        1.74876         204.356         28.6665         260.895 
        1.75489         203.202          28.433         259.366 
        1.76101         202.113         28.2022         258.391 
        1.76715          200.39         27.9736         257.344 
        1.77329         198.518         27.7473         256.138 
        1.77943         197.573         27.5234         254.802 
        1.78557         196.634         27.3024         253.407 
        1.79171         195.791         27.0837         252.291 
        1.79785         194.236         26.8675         251.161 
        1.80399         192.915         26.6536          249.79 
        1.81012         191.659         26.4424         249.027 
        1.81625         190.249         26.2336          247.93 
        1.82239         189.034         26.0267         246.312 
        1.82853         188.298         25.8222         245.263 
        1.83466         186.652         25.6201         244.109 
        1.84078         185.557         25.4204         242.853 
        1.84692         184.602         25.2225         242.118 
        1.85306         183.015         25.0264         240.916 
         1.8592         182.214         24.8328         239.568 
        1.86533         180.456         24.6414         238.889 
        1.87147         179.727         24.4517         237.982 
