# k  (h/Mpc)    P(k)  (Mpc/h)^3    P_linear(k)  (Mpc/h)^3     P_NL(k)  ShotnoiseSubtracted = false
     0.00783031         1280.33         1287.65         1286.93 
       0.013688         1702.64         1721.82         1716.09 
       0.019231         1850.58         1860.09         1850.97 
      0.0249154          1826.4         1827.12          1820.1 
      0.0312784         1676.48         1680.94         1676.59 
      0.0375637         1496.84         1503.62            1500 
      0.0433917         1354.08         1353.41         1350.57 
      0.0492413         1229.49         1233.23         1230.63 
      0.0555754         1138.73         1137.56         1134.59 
      0.0619321         1054.78         1066.25         1063.07 
       0.067871         1004.07         1008.57         1004.94 
      0.0738098         946.012         949.038         944.235 
      0.0800417         878.193         879.093         874.513 
      0.0862327         800.122         802.982         799.663 
      0.0921407         726.591         729.418         726.582 
      0.0982031         660.102         659.546         658.234 
       0.104506         595.088         598.387         598.312 
       0.110769          549.17         551.485         550.784 
       0.116806          520.47         518.297         517.488 
       0.122832         492.134         493.654         493.172 
       0.129052         472.776         472.648         472.104 
       0.135211         454.198         452.103         451.614 
       0.141259         429.207         429.548         429.529 
       0.147318         400.966          403.93         404.786 
       0.153489          375.35         375.857         375.947 
       0.159709         349.813         347.784         348.928 
       0.165845         321.035         322.577         325.459 
       0.171974         305.358         301.401         304.247 
       0.178125         288.937         284.628         288.663 
       0.184229         273.609         271.872         276.006 
        0.19034         265.856         261.747          265.79 
       0.196428         256.627          252.81          255.99 
       0.202534         244.166         243.691         247.127 
       0.208729          236.65         233.464         236.754 
       0.214876         227.174         222.206         226.738 
       0.220989         211.958         210.354         215.355 
       0.227147         204.227          198.52         203.606 
        0.23329         194.243         187.595          193.78 
       0.239377         185.916         178.172         184.955 
       0.245482         177.028         170.301         176.571 
       0.251667         169.598         163.769         170.645 
       0.257832          166.21         158.281         165.075 
       0.263955         159.167         153.325         159.869 
       0.270079          154.16         148.392         154.735 
        0.27624         147.806         143.167         149.237 
       0.282372         142.886         137.629         144.034 
        0.28843         139.749          131.95         138.484 
       0.294538         133.449         126.261         133.228 
       0.300721         127.215         120.806         128.331 
        0.30691         123.977         115.863         123.565 
       0.313033         119.091         111.563         119.135 
       0.319153         116.826         107.826         115.834 
       0.325316         111.812         104.489         112.783 
        0.33145           108.6         101.428         109.285 
       0.337538         105.755         98.4743         106.147 
       0.343633         102.863         95.4929         103.284 
       0.349808         99.6296         92.3985         100.391 
       0.355968         96.4692         89.2641         97.8599 
       0.362074         94.3263         86.1836         94.6137 
       0.368217         91.4902         83.1964         91.1893 
       0.374374         89.5043         80.3967         88.8523 
       0.380519         85.6777           77.83         86.1576 
       0.386598         83.3278           75.52         83.9813 
       0.392688         81.0381         73.3985         81.9737 
        0.39888         79.5201         71.3791         79.7344 
       0.405048          77.698         69.4508         77.7375 
       0.411186         75.7491         67.5644         76.3239 
       0.417313         73.7366         65.6864         74.0406 
       0.423458         71.6732         63.8139         72.3262 
       0.429607         70.4419         61.9631         70.3639 
       0.435692         69.0876         60.1826         68.7923 
       0.441815         66.5621         58.4712           67.47 
       0.447964         64.6216         56.8486         65.6229 
       0.454126          63.502         55.3212         63.9762 
       0.460267         62.8921         53.8947         62.7693 
       0.466387         61.1334         52.5488         61.2238 
        0.47254         60.2509         51.2491         60.0363 
       0.478662         58.4455         49.9925         58.6881 
       0.484765           57.28          48.767          57.382 
       0.490885         55.7295         47.5579         56.5034 
       0.497035         54.8462         46.3639         55.3911 
       0.503198         53.5554         45.1986         53.9083 
       0.509342         52.2069          44.077         52.9545 
       0.515458          51.563         43.0052         52.1873 
       0.521598         50.3609          41.975         50.7279 
       0.527764         49.7351         40.9872         49.5742 
       0.533884         48.5689         40.0504         48.6901 
           0.54         47.6066         39.1497         47.7632 
       0.546137          46.235         38.2735          47.056 
       0.552299          45.516         37.4155         45.9417 
       0.558452         44.6315         36.5796         45.0674 
       0.564573         44.1974         35.7685         44.5117 
       0.570708         43.0335         34.9764         43.6678 
       0.576825         42.4571         34.2081         42.8674 
       0.582926         41.7334          33.465         42.1739 
       0.589034         40.9589         32.7456         41.5319 
       0.595184         40.4195         32.0474         40.5932 
       0.601379         39.3438         31.3698         40.1053 
       0.607522         38.7955           30.72         39.2873 
       0.613639         38.1304         30.0923         38.6322 
       0.619772          37.548         29.4795         38.0739 
       0.625918         36.7855         28.8808         37.5045 
       0.632068         36.4929          28.297         36.7778 
       0.638161         35.7361         27.7337         36.1917 
         0.6443         35.2019         27.1815         35.5505 
       0.650464         34.3385         26.6425         35.1289 
       0.656582         34.1452         26.1225         34.5841 
       0.662703          33.748         25.6167         33.9825 
       0.668861         32.8754          25.122         33.5749 
       0.675024         32.4895         24.6407           32.94 
       0.681124         32.2702         24.1775         32.4622 
       0.687237         31.6439          23.726         31.8993 
       0.693381         30.9774         23.2842         31.4492 
       0.699536         30.8568         22.8532         31.0433 
       0.705665         30.2872          22.435         30.7189 
       0.711789         29.7405         22.0275         30.1594 
       0.717957         29.1594          21.627         29.7345 
        0.72409         28.9281         21.2386         29.3862 
       0.730186         28.7603         20.8621         28.9151 
       0.736317         28.1848         20.4927         28.5109 
       0.742472         27.8373         20.1309         28.2824 
       0.748622         27.3989         19.7785         27.7927 
        0.75476         26.7354         19.4355          27.397 
       0.760888         26.6276         19.1015         27.0821 
       0.767043         26.1831         18.7743         26.7936 
       0.773185         25.9228         18.4556         26.4364 
       0.779291         25.7065         18.1463         26.1319 
       0.785407         25.2444         17.8437         25.7595 
       0.791564         25.0541         17.5462         25.4483 
       0.797719         24.5452         17.2558         25.0775 
       0.803834         24.4222         16.9738         24.7418 
       0.809972         23.9724         16.6971         24.5621 
       0.816124         23.7165          16.426         24.1726 
       0.822261         23.4546         16.1618         23.8559 
       0.828378         23.1806         15.9042         23.5873 
       0.834502         22.9555         15.6521         23.3849 
       0.840667         22.7244         15.4039          23.041 
       0.846816         22.2451         15.1619         22.8188 
       0.852925         22.1492         14.9267         22.6713 
       0.859047         21.8781          14.696         22.2998 
       0.865192         21.5843         14.4695         22.0483 
       0.871341         21.2935         14.2477         21.8567 
       0.877463         21.0992         14.0317         21.5682 
       0.883569         20.9629         13.8207         21.3795 
       0.889708         20.6202         13.6131         21.1087 
       0.895864         20.3754         13.4092         20.8549 
       0.902008         20.1224           13.21         20.6697 
       0.908149         19.8833          13.015         20.4553 
       0.914301         19.7893         12.8237         20.2999 
       0.920448         19.4829         12.6365         19.9871 
       0.926574         19.3538         12.4537         19.7936 
       0.932687         19.0882         12.2749         19.5166 
       0.938823         18.8566         12.0991         19.3836 
       0.944975          18.692         11.9264         19.1661 
       0.951105         18.4788         11.7576         18.9163 
       0.957225         18.3759         11.5925          18.843 
       0.963368         18.1124         11.4301         18.5924 
       0.969511         17.9275         11.2707         18.4452 
       0.975621         17.7483         11.1154         18.2102 
       0.981748         17.5147         10.9625         18.0693 
       0.987916         17.3927         10.8116          17.887 
        0.99406         17.2482         10.6642         17.7182 
        1.00019         17.0871         10.5198         17.5793 
        1.00632          16.927         10.3783         17.4087 
        1.01246         16.7712         10.2392         17.3006 
        1.01859         16.5634         10.1029          17.081 
        1.02471         16.3706         9.96928         16.8807 
        1.03085         16.3198         9.83764         16.7541 
        1.03698         16.1514         9.70869         16.6175 
        1.04314         15.9652         9.58152         16.4366 
        1.04929          15.754         9.45696         16.3128 
        1.05541         15.6931         9.33514         16.1859 
        1.06154         15.5547         9.21519         16.0208 
        1.06769         15.4544         9.09719         15.8936 
        1.07382         15.1986         8.98166         15.7636 
        1.07993         15.0671         8.86843         15.6242 
        1.08607         15.0022          8.7567         15.4591 
        1.09222         14.8073          8.6468         15.3332 
        1.09836         14.7735         8.53895         15.1828 
        1.10449         14.5301         8.43308         15.0589 
        1.11063         14.4843          8.3289         14.9522 
        1.11677         14.3751         8.22655         14.8142 
         1.1229         14.2441         8.12611         14.7087 
        1.12903         14.1471         8.02729         14.6303 
        1.13518         13.9312         7.93004         14.4943 
        1.14131         13.8583         7.83447         14.3495 
        1.14745         13.6738         7.74055         14.1976 
        1.15359         13.5825         7.64817          14.111 
        1.15973         13.4609         7.55728         14.0032 
        1.16584         13.3605         7.46828         13.9384 
        1.17197         13.2422         7.38061         13.8049 
        1.17811         13.1263         7.29409         13.6738 
        1.18424         13.0364         7.20922         13.5826 
        1.19038         12.9577         7.12547         13.4698 
        1.19652         12.8512          7.0431         13.3774 
        1.20267         12.7449         6.96204         13.2446 
        1.20881         12.6194          6.8823         13.1982 
        1.21495         12.5144         6.80393         13.0816 
        1.22108          12.465         6.72682         12.9864 
         1.2272         12.3438         6.65109         12.8567 
        1.23334         12.2956         6.57637         12.7862 
        1.23949         12.1634         6.50263         12.7021 
        1.24562         12.0604         6.43023         12.5884 
        1.25174          11.992         6.35906         12.5043 
        1.25789         11.8374         6.28876         12.4102 
        1.26402         11.8068         6.21965         12.2962 
        1.27014         11.7354         6.15176         12.2281 
        1.27628         11.5839         6.08469          12.156 
        1.28244          11.571          6.0185          12.084 
        1.28858         11.4801         5.95339         11.9768 
        1.29471         11.3186          5.8894          11.895 
        1.30084         11.2499         5.82642         11.8393 
        1.30697         11.2243         5.76427         11.7363 
        1.31312         11.1074         5.70295          11.667 
        1.31925         11.0379         5.64272         11.6053 
        1.32537         10.9687         5.58343         11.5263 
        1.33151         10.8789         5.52478         11.4372 
        1.33765         10.7925         5.46703         11.3428 
        1.34378         10.7732         5.41022         11.2914 
        1.34992         10.6636         5.35418         11.2112 
        1.35606         10.5817         5.29883          11.109 
         1.3622         10.5007         5.24437         11.0467 
        1.36833         10.4395          5.1908         11.0148 
        1.37445         10.3634         5.13802         10.9228 
        1.38059         10.3092         5.08582         10.8405 
        1.38675          10.223         5.03423         10.7838 
        1.39288         10.1395         4.98356         10.7108 
        1.39901         10.0722         4.93362         10.6531 
        1.40515         10.0077         4.88426         10.5849 
         1.4113         9.93265          4.8356         10.5128 
        1.41742         9.88541         4.78779         10.4493 
        1.42355         9.79774         4.74055         10.3757 
         1.4297         9.76026         4.69381         10.3275 
        1.43585         9.69776         4.64772         10.2746 
        1.44198         9.62734         4.60243         10.1851 
        1.44809         9.57861         4.55784         10.1495 
        1.45423         9.49542         4.51368         10.0788 
        1.46036         9.44969         4.47018         10.0147 
        1.46649         9.38239         4.42726         9.96386 
        1.47263         9.33453         4.38486         9.91044 
        1.47877         9.26784         4.34305         9.84714 
        1.48491         9.22388         4.30171         9.78381 
        1.49104         9.14073         4.26101         9.72692 
        1.49718         9.11263         4.22081         9.67377 
        1.50333         9.04391         4.18107         9.62541 
        1.50947         8.96184         4.14193         9.57263 
         1.5156         8.95105         4.10334         9.51568 
        1.52172         8.89269         4.06526         9.45731 
        1.52787         8.83392         4.02758         9.39163 
          1.534         8.78026         3.99043         9.33861 
        1.54013         8.73199         3.95379         9.29076 
        1.54627         8.67788         3.91755         9.24586 
        1.55241         8.60569         3.88176         9.19724 
        1.55855         8.58983         3.84647         9.13415 
        1.56467          8.5186         3.81172         9.09751 
         1.5708          8.4768          3.7773         9.05843 
        1.57695          8.4045         3.74327         8.99955 
        1.58308         8.35241         3.70973         8.95373 
        1.58922         8.32212         3.67658         8.91153 
        1.59535            8.27         3.64386         8.85434 
         1.6015         8.20562         3.61149         8.80013 
        1.60764         8.18137         3.57953         8.76329 
        1.61376         8.14418         3.54805         8.72899 
        1.61989         8.05969         3.51693         8.68213 
        1.62604         8.03661         3.48611         8.63013 
        1.63218         7.99285         3.45569         8.58758 
        1.63831         7.95719          3.4257          8.5475 
        1.64444         7.88935         3.39606         8.49402 
        1.65059         7.85344          3.3667         8.45106 
        1.65673         7.82321         3.33772         8.41075 
        1.66285         7.77836         3.30917         8.37067 
        1.66898         7.72224         3.28094         8.33223 
        1.67512         7.67728         3.25299         8.29258 
        1.68127         7.63113         3.22535         8.25044 
         1.6874         7.60894         3.19809         8.20667 
        1.69353         7.54819         3.17116         8.16243 
        1.69967         7.51934         3.14448         8.11919 
        1.70581         7.46327         3.11812         8.08706 
        1.71193         7.44643         3.09217         8.05843 
        1.71806          7.4074         3.06645         8.01529 
        1.72421         7.35086         3.04099         7.97332 
        1.73035         7.31297         3.01584         7.93086 
        1.73649         7.28027         2.99098         7.88753 
        1.74262         7.23292         2.96643         7.85306 
        1.74876         7.21592         2.94214         7.82299 
        1.75489         7.17244         2.91817         7.78414 
        1.76101         7.12062         2.89448         7.73623 
        1.76715         7.10704         2.87102         7.69927 
        1.77329         7.06862          2.8478          7.6706 
        1.77943         7.01256         2.82482         7.63865 
        1.78557         6.99405         2.80213         7.59934 
        1.79171         6.96612         2.77969         7.56027 
        1.79785          6.9191          2.7575         7.52394 
        1.80399         6.86236         2.73555         7.49142 
        1.81012         6.84622         2.71387         7.46879 
        1.81625         6.81035         2.69244         7.43856 
        1.82239          6.7741         2.67121         7.39946 
        1.82853         6.73672         2.65022         7.37075 
        1.83466         6.69215         2.62947         7.34558 
        1.84078         6.66836         2.60897          7.3103 
        1.84692         6.63881         2.58866         7.25938 
        1.85306         6.60631         2.56854         7.22597 
         1.8592         6.58652         2.54867         7.20718 
        1.86533         6.54823         2.52902         7.17622 
        1.87147         6.50852         2.50956         7.14174 
        1.87761         6.49441          2.4903         7.11043 
