# k  (h/Mpc)    Pcb(k)  (Mpc/h)^3    Pcb_linear(k) (Mpc/h)^3    Pcb_NL(k) (Mpc/h)^3   ShotnoiseSubtracted = false
     0.00783031         6605.65         6634.01         6629.53 
       0.013688         8695.94         8868.81         8827.98 
       0.019231         9472.97         9579.85         9510.75 
      0.0249154         9400.67         9409.35         9334.83 
      0.0312784         8572.82         8656.08         8576.55 
      0.0375637          7619.8         7742.69         7660.79 
      0.0433917         6919.75          6969.1         6880.63 
      0.0492413          6254.6         6350.16         6260.84 
      0.0555754         5802.35         5857.42         5767.24 
      0.0619321         5302.93         5490.19         5396.18 
       0.067871         5073.58         5193.18         5099.05 
      0.0738098         4793.26         4886.62         4767.72 
      0.0800417         4447.93         4526.45         4410.94 
      0.0862327         4045.28         4134.53         4046.56 
      0.0921407         3680.87         3755.74         3673.05 
      0.0982031         3364.66         3395.97         3345.88 
       0.104506         3022.55         3081.06         3058.09 
       0.110769         2796.75         2839.55         2804.14 
       0.116806         2673.96         2668.67         2633.69 
       0.122832         2515.82         2541.78         2514.95 
       0.129052          2411.2         2433.62         2408.05 
       0.135211         2337.15         2327.83         2302.98 
       0.141259         2193.43          2211.7         2199.62 
       0.147318         2039.12         2079.79         2082.62 
       0.153489         1923.85         1935.24          1923.4 
       0.159709         1825.48          1790.7         1800.93 
       0.165845         1665.04         1660.91         1705.36 
       0.171974         1614.17         1551.88         1599.89 
       0.178125         1547.32         1465.52         1538.37 
       0.184229         1440.83         1399.83         1470.51 
        0.19034         1415.06          1347.7         1419.08 
       0.196428         1374.75         1301.68         1361.33 
       0.202534         1295.49         1254.73         1320.18 
       0.208729          1271.6         1202.08         1260.98 
       0.214876         1223.44         1144.11         1224.85 
       0.220989         1146.56         1083.08         1175.21 
       0.227147         1119.13         1022.15         1120.64 
        0.23329         1074.94         965.899         1082.34 
       0.239377         1053.54         917.379         1040.48 
       0.245482          1001.7         876.856         993.372 
       0.251667         964.365         843.224         970.507 
       0.257832         955.127         814.966         941.009 
       0.263955         908.214          789.45         913.853 
       0.270079         882.576          764.05         887.929 
        0.27624         846.302         737.149         859.336 
       0.282372         830.568         708.632         834.696 
        0.28843         823.689          679.39         807.364 
       0.294538         782.722         650.098         785.398 
       0.300721         759.123         622.014         763.692 
        0.30691         746.938         596.563         746.028 
       0.313033         716.547         574.422          721.78 
       0.319153         705.348         555.177         704.852 
       0.325316          692.67         537.999         693.188 
        0.33145         679.019         522.238         669.814 
       0.337538         656.116         507.029         655.449 
       0.343633         637.398         491.677         647.004 
       0.349808         622.743         475.747         633.729 
       0.355968         611.287         459.607          621.01 
       0.362074         594.008         443.746         605.648 
       0.368217         589.389         428.366         587.402 
       0.374374          578.49         413.949         576.284 
       0.380519         556.699         400.735         563.389 
       0.386598         550.147         388.841           554.4 
       0.392688          539.52         377.918         542.636 
        0.39888         525.448          367.52          533.19 
       0.405048         517.436         357.591         527.497 
       0.411186         514.383         347.879         514.064 
       0.417313         507.265         338.209         501.999 
       0.423458         492.875         328.567         494.054 
       0.429607         481.632         319.038         484.073 
       0.435692         473.342         309.871         475.494 
       0.441815         466.487         301.059         471.581 
       0.447964          456.11         292.704         462.524 
       0.454126          450.27         284.842         451.707 
       0.460267         443.828         277.495         448.876 
       0.466387         437.174         270.566         440.272 
        0.47254          431.18         263.873          434.61 
       0.478662         420.659         257.404          426.71 
       0.484765         416.719         251.093         417.778 
       0.490885         412.536         244.868         412.952 
       0.497035          405.65          238.72         408.569 
       0.503198         403.658         232.721         402.156 
       0.509342         393.287         226.946         397.526 
       0.515458          388.51         221.427         394.626 
       0.521598         381.299         216.122         386.943 
       0.527764         376.339         211.037          381.02 
       0.533884         375.693         206.213         376.862 
           0.54          369.07         201.576          372.09 
       0.546137         361.226         197.064         368.102 
       0.552299         360.528         192.646         362.515 
       0.558452         354.755         188.342          358.39 
       0.564573         351.318         184.166         355.323 
       0.570708         346.344         180.088         351.484 
       0.576825         340.662         176.132         345.102 
       0.582926         337.468         172.306          341.21 
       0.589034         333.385         168.602         337.667 
       0.595184         331.299         165.007         332.603 
       0.601379          325.11         161.518         331.298 
       0.607522         320.112         158.173         327.153 
       0.613639         317.961          154.94         323.719 
       0.619772         316.052         151.785         320.656 
       0.625918         312.243         148.703         317.871 
       0.632068         306.822         145.697         312.755 
       0.638161         303.844         142.797         310.951 
         0.6443         302.455         139.953          307.76 
       0.650464         297.539         137.178         302.778 
       0.656582         295.079         134.501         300.423 
       0.662703         292.992         131.896         298.392 
       0.668861         288.142         129.349         295.266 
       0.675024         287.144         126.871         291.937 
       0.681124         283.721         124.486         289.142 
       0.687237         280.742         122.161         286.071 
       0.693381         278.456         119.887         283.494 
       0.699536         275.097         117.667         281.341 
       0.705665         272.164         115.514          279.75 
       0.711789         270.036         113.416         275.882 
       0.717957         266.922         111.354         273.885 
        0.72409         264.959         109.354         272.613 
       0.730186         265.162         107.416         270.049 
       0.736317          260.69         105.513         266.965 
       0.742472         257.357         103.651         264.634 
       0.748622         254.044         101.836         261.982 
        0.75476         254.697          100.07         260.446 
       0.760888         251.728         98.3507         257.367 
       0.767043         248.693         96.6657         256.064 
       0.773185         246.837         95.0248         254.391 
       0.779291         243.487         93.4322         251.936 
       0.785407          242.24         91.8744         249.512 
       0.791564         240.054         90.3428          247.94 
       0.797719         236.955         88.8471         246.482 
       0.803834         237.607         87.3951          243.96 
       0.809972         235.685         85.9706         242.249 
       0.816124         232.667          84.575         240.591 
       0.822261         230.026         83.2145         238.596 
       0.828378         230.336         81.8884         236.079 
       0.834502         226.262         80.5903         235.259 
       0.840667         225.914         79.3124         233.861 
       0.846816         223.365         78.0662         231.525 
       0.852925         221.712          76.855         229.684 
       0.859047          219.36         75.6673         228.176 
       0.865192         218.938         74.5012         226.851 
       0.871341         216.026         73.3593         224.854 
       0.877463          214.42         72.2468         223.913 
       0.883569         214.102         71.1606         222.223 
       0.889708         212.394         70.0914         220.711 
       0.895864         210.382         69.0417         219.521 
       0.902008         208.546         68.0161         217.253 
       0.908149         206.398         67.0121         215.579 
       0.914301         206.181         66.0271         214.913 
       0.920448         204.844         65.0631         213.032 
       0.926574         202.393         64.1219         210.993 
       0.932687         201.505         63.2016         209.499 
       0.938823         199.968         62.2963         208.868 
       0.944975         197.999         61.4068         207.883 
       0.951105         196.668         60.5382         206.155 
       0.957225         196.085          59.688         204.716 
       0.963368         194.216         58.8515         202.662 
       0.969511          192.05         58.0312          201.76 
       0.975621         191.027         57.2311         201.874 
       0.981748         189.507         56.4443         199.684 
       0.987916         188.569         55.6674         198.909 
        0.99406         187.358         54.9082         197.582 
        1.00019         186.036         54.1649          195.88 
        1.00632         185.321         53.4362         194.408 
        1.01246         183.684           52.72         193.023 
        1.01859         182.132         52.0182         192.495 
        1.02471         180.828         51.3302         191.805 
        1.03085         179.814         50.6524         190.395 
        1.03698         178.398         49.9884         188.934 
        1.04314         177.691         49.3337         188.094 
        1.04929         176.817         48.6923           187.1 
        1.05541         175.526         48.0651          186.05 
        1.06154         174.491         47.4475          185.16 
        1.06769         172.685         46.8399         184.093 
        1.07382         171.945         46.2451         182.942 
        1.07993         170.948         45.6621         181.792 
        1.08607         169.383         45.0868         181.061 
        1.09222         168.751          44.521         179.963 
        1.09836         167.248         43.9656         178.786 
        1.10449         165.989         43.4205         177.663 
        1.11063          165.03         42.8842         176.369 
        1.11677         164.302         42.3572         175.673 
         1.1229         162.916           41.84           174.9 
        1.12903          162.44         41.3312         173.783 
        1.13518         161.243         40.8305         172.884 
        1.14131         160.304         40.3384         171.717 
        1.14745         158.919         39.8548         170.891 
        1.15359         157.469         39.3792         169.868 
        1.15973         156.963         38.9112         169.176 
        1.16584         156.122         38.4529         168.145 
        1.17197         155.241         38.0015         167.081 
        1.17811         153.917          37.556         166.594 
        1.18424         153.027         37.1191         165.569 
        1.19038         152.501         36.6879         164.857 
        1.19652         151.107         36.2638          163.86 
        1.20267         150.262         35.8464         162.996 
        1.20881           149.3         35.4358         162.383 
        1.21495         148.927         35.0323         161.013 
        1.22108         147.557         34.6353         160.654 
         1.2272         146.558         34.2454         159.593 
        1.23334         146.094         33.8606         158.938 
        1.23949         145.462          33.481         157.896 
        1.24562         144.092         33.1082         157.205 
        1.25174         142.852         32.7418         156.386 
        1.25789         142.715         32.3798         155.687 
        1.26402         141.821          32.024         154.739 
        1.27014         140.913         31.6744         154.638 
        1.27628         139.337         31.3291         154.021 
        1.28244          139.15         30.9883         152.419 
        1.28858         138.005          30.653         151.666 
        1.29471         137.171         30.3235         151.305 
        1.30084         136.463         29.9993         150.362 
        1.30697         136.145         29.6793         149.564 
        1.31312         135.019         29.3635         148.746 
        1.31925         133.983         29.0534         148.071 
        1.32537         133.402         28.7481         147.364 
        1.33151          132.92         28.4462         146.696 
        1.33765         131.477         28.1488         146.103 
        1.34378          131.57         27.8563         145.164 
        1.34992         130.778         27.5678         144.609 
        1.35606          129.73         27.2828         143.743 
         1.3622         129.356         27.0024         143.167 
        1.36833         127.947         26.7266         142.329 
        1.37445         127.485         26.4548         141.506 
        1.38059         126.848         26.1861         141.176 
        1.38675         125.896         25.9204         140.236 
        1.39288         125.355         25.6595         139.795 
        1.39901         124.151         25.4024         139.112 
        1.40515         124.029         25.1483         138.437 
         1.4113         123.268         24.8977         137.914 
        1.41742         122.354         24.6516         137.331 
        1.42355         121.794         24.4083          136.43 
         1.4297         121.029         24.1676         135.765 
        1.43585           120.1         23.9303         135.224 
        1.44198         119.448         23.6971         134.709 
        1.44809         118.664         23.4675         133.854 
        1.45423         118.151         23.2402          133.12 
        1.46036         117.222         23.0162         132.612 
        1.46649         116.657         22.7952         132.229 
        1.47263         116.277         22.5769         131.681 
        1.47877         115.454         22.3616         130.753 
        1.48491         114.625         22.1488         130.443 
        1.49104         113.636         21.9393         129.753 
        1.49718         113.625         21.7323         128.864 
        1.50333         112.887         21.5276         128.493 
        1.50947         112.417         21.3261         127.962 
         1.5156         111.677         21.1274         127.359 
        1.52172         110.942         20.9313         126.948 
        1.52787         110.153         20.7373          126.09 
          1.534          109.93         20.5461         125.614 
        1.54013         109.257         20.3574         125.028 
        1.54627         108.315         20.1708         124.472 
        1.55241         107.742         19.9865         124.081 
        1.55855         107.291         19.8048         123.247 
        1.56467         106.309         19.6259         122.656 
         1.5708          106.08         19.4487         122.282 
        1.57695         105.561         19.2734         121.752 
        1.58308          104.92         19.1008         121.184 
        1.58922         104.517         18.9301         120.646 
        1.59535         103.925         18.7616         120.115 
         1.6015         103.392         18.5949          119.54 
        1.60764         102.664         18.4304         119.138 
        1.61376         101.976         18.2683         118.795 
        1.61989         101.308         18.1081         118.096 
        1.62604         100.889         17.9494         117.452 
        1.63218         100.509         17.7928         116.995 
        1.63831         99.7472         17.6383         116.666 
        1.64444         99.2711         17.4857          116.16 
        1.65059         98.6833         17.3346          115.34 
        1.65673         97.9175         17.1854          114.97 
        1.66285         97.4294         17.0384         114.654 
        1.66898         96.8054          16.893         113.964 
        1.67512         96.6484         16.7491         113.643 
        1.68127         95.9538         16.6068         113.128 
         1.6874         95.4089         16.4664         112.398 
        1.69353         94.8254         16.3278         111.908 
        1.69967         94.5447         16.1904          111.61 
        1.70581         93.9639         16.0547         111.093 
        1.71193         93.3576          15.921         110.549 
        1.71806         92.6302         15.7887         110.424 
        1.72421         92.2933         15.6575         109.829 
        1.73035         92.0455          15.528         109.186 
        1.73649         91.3395         15.4001         108.835 
        1.74262         90.5782         15.2737         108.413 
        1.74876         90.3292         15.1486         107.896 
        1.75489         89.5837         15.0252         107.411 
        1.76101         89.1353         14.9032         106.948 
        1.76715         88.8559         14.7824         106.358 
        1.77329         88.1434         14.6628         105.994 
        1.77943         87.8425         14.5445         105.626 
        1.78557         87.4888         14.4277          104.98 
        1.79171         86.8309         14.3122         104.565 
        1.79785         86.3549         14.1979         104.283 
        1.80399         85.8803         14.0849          103.82 
        1.81012         85.3315         13.9733         103.413 
        1.81625         85.1278         13.8629         102.968 
        1.82239         84.8138         13.7536         102.504 
        1.82853         84.0418         13.6455          102.21 
        1.83466         83.5717         13.5387         101.734 
        1.84078         83.1827         13.4332         101.199 
        1.84692         82.8193         13.3286          101.04 
        1.85306         82.3792          13.225          100.63 
         1.8592          81.943         13.1227         100.044 
        1.86533         81.3529         13.0215         99.6883 
        1.87147         80.9262         12.9213          99.114 
