# k  (h/Mpc)    P(k)  (Mpc/h)^3    P_linear(k)  (Mpc/h)^3     P_NL(k)  ShotnoiseSubtracted = false
     0.00783031         12085.3         12128.9         12114.9 
       0.013688         15798.2         16209.6         16111.5 
       0.019231         17226.1         17507.3         17338.4 
      0.0249154         17143.8         17194.6         16986.5 
      0.0312784         15557.2         15817.5         15566.4 
      0.0375637         13784.9         14148.1         13884.6 
      0.0433917         12537.1         12734.3         12441.1 
      0.0492413         11301.6         11603.2         11304.8 
      0.0555754         10474.8         10702.8         10405.8 
      0.0619321         9500.13         10031.7          9724.7 
       0.067871         9100.94         9488.98         9186.13 
      0.0738098         8619.02         8928.79         8548.31 
      0.0800417         7982.03         8270.66         7902.55 
      0.0862327         7259.95         7554.55         7271.91 
      0.0921407         6622.39         6862.41         6598.46 
      0.0982031         6079.46         6205.03         6038.44 
       0.104506         5460.92         5629.62         5546.96 
       0.110769         5063.18         5188.35         5075.58 
       0.116806         4853.16          4876.1         4764.03 
       0.122832         4572.46         4644.25         4555.65 
       0.129052         4359.22         4446.62         4365.16 
       0.135211         4247.85         4253.33         4169.65 
       0.141259         3971.67         4041.13         4000.22 
       0.147318         3700.76         3800.12         3794.41 
       0.153489         3507.27            3536         3497.31 
       0.159709          3368.2         3271.89         3295.99 
       0.165845         3077.65         3034.74         3151.29 
       0.171974         2994.36         2835.52         2970.82 
       0.178125         2900.63         2677.72            2880 
       0.184229         2681.78         2557.71         2747.05 
        0.19034         2650.69         2462.46            2658 
       0.196428         2585.23         2378.38         2555.05 
       0.202534         2444.82         2292.58         2485.13 
       0.208729         2398.96         2196.38         2369.53 
       0.214876         2305.84         2090.47         2311.41 
       0.220989         2194.67         1978.96         2235.58 
       0.227147         2139.25         1867.63         2152.16 
        0.23329         2058.23         1764.84         2086.91 
       0.239377         2044.83         1676.19         2009.29 
       0.245482          1954.7         1602.15         1926.55 
       0.251667         1884.66          1540.7         1889.05 
       0.257832         1859.97         1489.07         1836.37 
       0.263955         1782.65         1442.44         1790.63 
       0.270079         1745.13         1396.03         1744.77 
        0.27624          1673.1         1346.88         1694.98 
       0.282372         1657.76         1294.78         1661.17 
        0.28843         1630.19         1241.35         1620.57 
       0.294538         1559.84         1187.83         1576.38 
       0.300721         1532.63         1136.51         1530.93 
        0.30691         1497.87         1090.01         1509.95 
       0.313033         1444.85         1049.55         1467.12 
       0.319153         1431.15         1014.39          1429.8 
       0.325316         1414.52         983.006         1413.12 
        0.33145         1388.09         954.205         1367.03 
       0.337538         1346.17         926.418         1347.93 
       0.343633         1316.43         898.369          1333.4 
       0.349808         1295.11         869.258         1310.41 
       0.355968         1269.47          839.77         1288.96 
       0.362074         1236.13          810.79         1262.56 
       0.368217         1232.72         782.688         1231.66 
       0.374374         1214.21         756.349         1211.88 
       0.380519         1175.33         732.202         1190.01 
       0.386598          1171.4          710.47         1174.63 
       0.392688         1143.13         690.512         1150.74 
        0.39888         1121.01         671.513         1137.73 
       0.405048          1101.9         653.373         1123.03 
       0.411186         1096.33         635.625          1100.6 
       0.417313         1095.69         617.958         1086.16 
       0.423458         1061.78         600.342          1068.2 
       0.429607          1034.2          582.93         1048.67 
       0.435692         1027.26          566.18          1030.7 
       0.441815         1008.79         550.079          1028.2 
       0.447964         998.586         534.814         1013.18 
       0.454126         985.115         520.445         987.567 
       0.460267         974.224         507.025         987.163 
       0.466387           960.5         494.363         968.584 
        0.47254         942.447         482.136         957.946 
       0.478662         932.495         470.314         946.163 
       0.484765         924.482         458.785         934.416 
       0.490885         913.543          447.41         918.459 
       0.497035         898.701         436.177          910.88 
       0.503198         897.227         425.215         900.594 
       0.509342         881.526         414.663         885.906 
       0.515458         864.113          404.58         881.834 
       0.521598         862.497         394.888         873.517 
       0.527764         842.936         385.595         864.188 
       0.533884         835.869         376.782         854.683 
           0.54         829.016         368.309         845.845 
       0.546137         819.501         360.065         835.987 
       0.552299         813.777         351.993         824.581 
       0.558452         805.985         344.129         818.646 
       0.564573         798.875         336.499         811.116 
       0.570708         792.007         329.047         803.164 
       0.576825         776.168         321.819         792.253 
       0.582926         774.189         314.828         786.031 
       0.589034         765.526          308.06         774.286 
       0.595184         756.871         301.492         769.123 
       0.601379         745.161         295.117         763.111 
       0.607522         735.963         289.004         752.977 
       0.613639         734.852         283.099         750.054 
       0.619772         728.496         277.334         748.314 
       0.625918         718.687         271.702         738.909 
       0.632068         713.781         266.209         733.901 
       0.638161         704.217          260.91         721.192 
         0.6443         698.596         255.715         718.542 
       0.650464         693.237         250.645          708.49 
       0.656582         687.845         245.752         703.702 
       0.662703         678.711         240.994         699.622 
       0.668861         672.688          236.34         696.136 
       0.675024         667.956         231.812         691.905 
       0.681124         657.927         227.455         680.368 
       0.687237         657.502         223.207         675.329 
       0.693381         646.463         219.051         669.486 
       0.699536         646.142         214.996         665.011 
       0.705665         638.627         211.061         658.849 
       0.711789          636.72         207.227         653.174 
       0.717957         628.155          203.46         651.546 
        0.72409         622.828         199.806         645.815 
       0.730186         621.053         196.264         640.171 
       0.736317         613.131         192.788         634.086 
       0.742472         605.686         189.385         629.357 
       0.748622          603.04          186.07         624.463 
        0.75476         596.923         182.843         624.854 
       0.760888         593.628         179.701         617.232 
       0.767043         590.992         176.622         610.458 
       0.773185         586.986         173.624         607.022 
       0.779291         579.656         170.714         601.752 
       0.785407          575.61         167.868         598.337 
       0.791564         571.539          165.07         596.569 
       0.797719         563.483         162.337         590.271 
       0.803834         564.607         159.684         587.188 
       0.809972         556.958         157.081          584.28 
       0.816124         552.392         154.531          575.99 
       0.822261         549.135         152.045         573.167 
       0.828378         546.384         149.622         569.616 
       0.834502         538.175          147.25         567.924 
       0.840667         537.384         144.915         563.664 
       0.846816         531.773         142.638         559.469 
       0.852925         530.195         140.425         556.023 
       0.859047          525.35         138.255         550.882 
       0.865192         522.261         136.125         547.417 
       0.871341         515.665         134.038         544.882 
       0.877463          514.05         132.006         541.396 
       0.883569         508.616         130.021         537.472 
       0.889708         503.744         128.067         532.996 
       0.895864         499.318         126.149         530.306 
       0.902008         498.224         124.275         527.252 
       0.908149         493.903         122.441         522.493 
       0.914301         491.847         120.641          518.83 
       0.920448         485.812          118.88         516.183 
       0.926574          483.86          117.16         512.474 
       0.932687         481.841         115.479         509.427 
       0.938823         475.688         113.824         508.036 
       0.944975         473.221         112.199         504.039 
       0.951105         469.891         110.612         499.334 
       0.957225          463.13         109.059         498.385 
       0.963368         464.277          107.53          494.95 
       0.969511          456.66         106.032          491.37 
       0.975621         456.315          104.57         488.283 
       0.981748          453.09         103.132          484.73 
       0.987916         450.212         101.713         483.886 
        0.99406             446         100.325          480.18 
        1.00019         441.633         98.9673          474.86 
        1.00632         440.569         97.6358          472.62 
        1.01246         437.108         96.3271         469.861 
        1.01859          432.56         95.0448         466.286 
        1.02471         430.582         93.7877          464.97 
        1.03085         428.159         92.5493         463.525 
        1.03698         425.646         91.3362         460.831 
        1.04314          422.37         90.1399         457.713 
        1.04929         420.294         88.9681         453.893 
        1.05541         414.339          87.822          450.86 
        1.06154         413.459         86.6935         448.175 
        1.06769         409.382         85.5834         445.093 
        1.07382         406.955         84.4966         442.887 
        1.07993         405.338         83.4313         440.658 
        1.08607         402.117         82.3802         437.307 
        1.09222         398.786         81.3463         434.583 
        1.09836         396.411         80.3317         433.533 
        1.10449         393.285         79.3357          430.63 
        1.11063         390.726         78.3556         427.019 
        1.11677         386.634         77.3927         425.704 
         1.1229         385.601         76.4478         423.071 
        1.12903           382.4         75.5181         420.747 
        1.13518         380.055         74.6032         418.068 
        1.14131          378.53         73.7042         415.599 
        1.14745         373.601         72.8206         413.283 
        1.15359         371.117         71.9515         411.525 
        1.15973         369.578         71.0964         408.996 
        1.16584         367.736         70.2592          406.72 
        1.17197         364.823         69.4343         404.379 
        1.17811         360.925         68.6204         402.294 
        1.18424         359.331          67.822         400.765 
        1.19038         357.381         67.0341         398.253 
        1.19652         353.396         66.2592         396.004 
        1.20267         352.637         65.4967         393.083 
        1.20881         350.716         64.7464         391.166 
        1.21495         346.694         64.0092         388.693 
        1.22108         345.568         63.2837          386.45 
         1.2272         340.783         62.5713          383.99 
        1.23334         339.987         61.8683         381.651 
        1.23949         337.679         61.1746         380.346 
        1.24562         336.991         60.4936         378.511 
        1.25174          333.25          59.824         376.409 
        1.25789         330.772         59.1626         374.473 
        1.26402         329.275         58.5125         372.791 
        1.27014         327.563         57.8738         369.665 
        1.27628         324.237         57.2428         368.954 
        1.28244         322.261         56.6201         367.509 
        1.28858         320.668         56.0076         364.784 
        1.29471         318.958         55.4056         362.022 
        1.30084         317.053          54.813         360.322 
        1.30697         313.721         54.2284         358.989 
        1.31312         311.687         53.6515         357.294 
        1.31925         310.116         53.0848         354.723 
        1.32537         308.333         52.5271         352.349 
        1.33151         305.527         51.9754         351.217 
        1.33765         303.264          51.432         349.452 
        1.34378         301.088         50.8976         347.247 
        1.34992         298.715         50.3704         344.856 
        1.35606         297.131         49.8497         343.195 
         1.3622         295.648         49.3373          341.84 
        1.36833         294.186         48.8334         340.595 
        1.37445         292.484         48.3369         337.799 
        1.38059         289.291         47.8458         336.931 
        1.38675         287.838         47.3604         335.759 
        1.39288         286.736         46.8837         332.434 
        1.39901         283.867         46.4139         330.802 
        1.40515         282.467         45.9495         328.962 
         1.4113         280.216         45.4917          327.03 
        1.41742         277.591          45.042         325.845 
        1.42355         277.657         44.5975         323.891 
         1.4297         275.009         44.1578         322.225 
        1.43585         271.952         43.7242         321.481 
        1.44198         271.107         43.2982         319.054 
        1.44809         269.686         42.8786         318.061 
        1.45423         267.554         42.4632         315.288 
        1.46036         266.104          42.054         313.876 
        1.46649         264.663         41.6502         312.754 
        1.47263          261.86         41.2513         310.762 
        1.47877         260.672         40.8579         308.924 
        1.48491         258.549         40.4691         307.312 
        1.49104         256.729         40.0862         305.658 
        1.49718         255.317          39.708         304.846 
        1.50333         253.025         39.3341         303.683 
        1.50947         252.408         38.9659         302.004 
         1.5156         250.037         38.6029         300.024 
        1.52172         248.473         38.2446         298.004 
        1.52787         246.725         37.8901         296.862 
          1.534         246.222         37.5406         295.685 
        1.54013          243.73          37.196          294.01 
        1.54627         242.523          36.855         292.566 
        1.55241         240.706         36.5183         291.432 
        1.55855         239.571         36.1863         290.086 
        1.56467         237.717         35.8594         288.028 
         1.5708         236.354         35.5356          286.35 
        1.57695         234.853         35.2154         285.247 
        1.58308         233.582         34.8999         283.708 
        1.58922         231.635         34.5881         282.178 
        1.59535         229.706         34.2802         281.262 
         1.6015         228.657         33.9757         279.861 
        1.60764         227.147          33.675         277.971 
        1.61376         225.079         33.3789         276.626 
        1.61989         223.738         33.0861         275.455 
        1.62604         222.112         32.7962         274.044 
        1.63218         220.863           32.51         272.887 
        1.63831         220.267         32.2278         271.779 
        1.64444         218.062          31.949         270.065 
        1.65059         217.329         31.6728         268.832 
        1.65673         215.262         31.4002         267.716 
        1.66285         214.259         31.1316         266.208 
        1.66898         212.945          30.866         264.518 
        1.67512         211.077         30.6031         263.596 
        1.68127         210.153          30.343          262.27 
         1.6874         208.621         30.0865         260.868 
        1.69353         207.483         29.8332         260.153 
        1.69967         206.069         29.5822         258.577 
        1.70581         204.844         29.3342         257.215 
        1.71193         203.392         29.0901         256.213 
        1.71806         201.705         28.8482         254.657 
        1.72421           200.8         28.6086         253.569 
        1.73035         199.062          28.372         252.295 
        1.73649         197.619         28.1382         250.809 
        1.74262         196.837         27.9072         250.223 
        1.74876         195.597         27.6787         249.013 
        1.75489         194.452         27.4532         247.551 
        1.76101         193.328         27.2303         246.577 
        1.76715         191.761         27.0096          245.58 
        1.77329          190.03         26.7911         244.407 
        1.77943         189.106          26.575          243.11 
        1.78557         188.232         26.3615         241.817 
        1.79171         187.346         26.1504         240.771 
        1.79785         185.922         25.9416         239.694 
        1.80399          184.64         25.7351           238.4 
        1.81012         183.447         25.5312         237.655 
        1.81625          182.14         25.3295         236.618 
        1.82239         180.923         25.1298         235.107 
        1.82853         180.222         24.9323         234.079 
        1.83466         178.649         24.7372         232.954 
        1.84078         177.656         24.5444         231.763 
        1.84692         176.701         24.3533         231.066 
        1.85306         175.222          24.164         229.914 
         1.8592         174.463         23.9771          228.64 
        1.86533         172.773         23.7922         228.036 
        1.87147         172.045         23.6091         227.203 
        1.87761             171         23.4279         226.003 
