# k  (h/Mpc)    Pcb(k)  (Mpc/h)^3    Pcb_linear(k) (Mpc/h)^3    Pcb_NL(k) (Mpc/h)^3   ShotnoiseSubtracted = false
     0.00783031         10323.6         10362.9         10352.6 
       0.013688         13524.9         13851.6         13774.4 
       0.019231         14743.9         14961.2         14828.8 
      0.0249154         14661.6         14694.4         14536.4 
      0.0312784         13324.9         13517.7         13332.3 
      0.0375637           11818         12091.1         11897.2 
      0.0433917         10744.2           10883         10668.4 
      0.0492413         9692.83         9916.35         9698.21 
      0.0555754         8987.43         9146.84         8928.91 
      0.0619321         8168.92         8573.34         8347.51 
       0.067871         7823.88         8109.52            7886 
      0.0738098         7403.53         7630.77         7349.62 
      0.0800417         6861.34         7068.33         6795.74 
      0.0862327         6239.79         6456.32         6247.33 
      0.0921407         5687.04         5864.81         5668.86 
      0.0982031         5213.95         5302.99         5180.41 
       0.104506         4682.91         4811.24         4751.11 
       0.110769         4338.96         4434.11         4349.37 
       0.116806         4156.75         4167.26         4083.28 
       0.122832         3913.42         3969.12          3903.1 
       0.129052         3737.64         3800.21         3738.75 
       0.135211          3636.7         3635.02         3572.93 
       0.141259         3403.54         3453.67         3422.59 
       0.147318         3167.52         3247.69         3245.21 
       0.153489         2998.13         3021.97         2992.21 
       0.159709         2869.23         2796.26         2814.48 
       0.165845         2619.09         2593.59         2683.48 
       0.171974         2547.53         2423.33         2525.74 
       0.178125         2460.07         2288.47            2443 
       0.184229         2277.81          2185.9         2331.75 
        0.19034          2247.5          2104.5         2254.26 
       0.196428         2189.45         2032.64         2164.82 
       0.202534         2066.54         1959.32         2103.86 
       0.208729         2029.56         1877.09         2006.35 
       0.214876         1950.91         1786.58         1955.84 
       0.220989         1847.46         1691.28         1887.03 
       0.227147         1802.13         1596.14         1811.14 
        0.23329         1733.46         1508.29         1755.14 
       0.239377         1716.47         1432.53         1689.21 
       0.245482         1637.58         1369.25         1617.15 
       0.251667         1578.41         1316.73         1584.47 
       0.257832         1559.93          1272.6         1538.71 
       0.263955         1490.84         1232.76         1498.25 
       0.270079          1455.6          1193.1         1459.07 
        0.27624         1395.98         1151.09         1416.08 
       0.282372         1379.29         1106.56         1383.21 
        0.28843         1360.89          1060.9         1345.71 
       0.294538         1298.04         1015.15          1309.7 
       0.300721         1270.88           971.3         1272.37 
        0.30691         1245.52         931.558            1252 
       0.313033         1198.38         896.984         1214.84 
       0.319153         1184.76         866.933         1184.75 
       0.325316         1170.22         840.108         1169.18 
        0.33145          1148.6         815.496         1130.48 
       0.337538         1111.62         791.746         1112.43 
       0.343633         1084.99         767.774         1100.38 
       0.349808         1064.82         742.898         1080.26 
       0.355968          1045.4         717.695         1061.45 
       0.362074         1015.33         692.928          1038.4 
       0.368217         1012.01         668.912         1010.97 
       0.374374         997.055         646.399         994.177 
       0.380519         962.946         625.765         974.734 
       0.386598         957.043          607.19         962.361 
       0.392688         936.486         590.134         941.069 
        0.39888          914.88         573.897         930.012 
       0.405048         900.231         558.394          919.18 
       0.411186         896.658         543.227          898.36 
       0.417313          893.43         528.127         883.805 
       0.423458         865.544          513.07         870.635 
       0.429607         842.588         498.192         853.159 
       0.435692         835.223         483.876         838.958 
       0.441815         821.135         470.116         835.071 
       0.447964         809.997         457.069         821.544 
       0.454126         799.711         444.792         801.783 
       0.460267         789.171          433.32         800.211 
       0.466387         778.557         422.499         785.101 
        0.47254          764.46         412.049         776.685 
       0.478662         753.854         401.946         765.255 
       0.484765         747.556         392.092         753.601 
       0.490885         739.097         382.372         742.171 
       0.497035         726.388         372.771         735.591 
       0.503198         725.257         363.402         726.034 
       0.509342         711.588         354.385         715.811 
       0.515458         698.237         345.767         712.121 
       0.521598         693.204         337.484         702.997 
       0.527764         679.271         329.543          694.79 
       0.533884         675.196          322.01         686.999 
           0.54         668.211         314.769         678.942 
       0.546137          658.41         307.723         670.895 
       0.552299         655.865         300.825         662.088 
       0.558452         647.957         294.104          656.81 
       0.564573         640.831         287.583         651.157 
       0.570708         636.222         281.214         645.499 
       0.576825         623.701         275.037         635.357 
       0.582926         621.001         269.062         629.287 
       0.589034         613.166         263.279         620.224 
       0.595184         607.436         257.665         615.335 
       0.601379         598.079         252.217         610.618 
       0.607522         589.596         246.993         603.319 
       0.613639         587.965         241.945         599.806 
       0.619772         584.494         237.019         598.431 
       0.625918         574.893         232.205         590.493 
       0.632068         570.801         227.511         584.923 
       0.638161           564.2         222.983         576.628 
         0.6443         559.419         218.542         574.062 
       0.650464         553.956         214.209         565.024 
       0.656582         549.329         210.028         560.675 
       0.662703         543.628         205.961         558.625 
       0.668861         537.848         201.984         554.625 
       0.675024         533.584         198.114         550.138 
       0.681124         527.021          194.39         541.513 
       0.687237         524.785          190.76         537.193 
       0.693381         517.573         187.208         533.068 
       0.699536          514.84         183.742         529.674 
       0.705665         509.639          180.38         524.725 
       0.711789         508.615         177.103         520.355 
       0.717957         500.639         173.884         517.971 
        0.72409         496.459         170.761           513.6 
       0.730186         497.249         167.734         509.508 
       0.736317         489.169         164.763         504.175 
       0.742472         483.855         161.855         499.883 
       0.748622          480.41         159.021         496.078 
        0.75476         477.146         156.264         496.022 
       0.760888         473.779         153.579         489.863 
       0.767043         470.716         150.947         485.865 
       0.773185         467.992         148.385         482.434 
       0.779291         461.386         145.898         478.225 
       0.785407         459.018         143.466         475.601 
       0.791564         455.137         141.074         472.896 
       0.797719         448.725         138.738         468.485 
       0.803834         451.175         136.471         466.161 
       0.809972         444.335         134.247         463.114 
       0.816124         440.003         132.067         456.852 
       0.822261         436.581         129.943         454.852 
       0.828378         435.022         127.872          451.76 
       0.834502         428.462         125.845         449.883 
       0.840667         428.372          123.85         446.487 
       0.846816          422.16         121.903         443.547 
       0.852925         421.967         120.012         440.513 
       0.859047         417.956         118.158         437.154 
       0.865192         416.336         116.337         434.273 
       0.871341         410.503         114.553         431.804 
       0.877463         407.385         112.816          428.94 
       0.883569         404.472          111.12         426.338 
       0.889708         401.021          109.45         422.714 
       0.895864          398.12         107.811         420.419 
       0.902008         396.273          106.21         417.775 
       0.908149         393.073         104.642         413.958 
       0.914301         391.016         103.104         411.684 
       0.920448         387.625         101.599         408.342 
       0.926574         385.499         100.129         405.983 
       0.932687         382.744         98.6918         402.929 
       0.938823         378.719         97.2781         402.416 
       0.944975         377.137         95.8892         399.411 
       0.951105         374.135         94.5328         396.029 
       0.957225         369.147         93.2052          394.28 
       0.963368         369.695          91.899         391.488 
       0.969511          363.13         90.6181         388.706 
       0.975621         363.631         89.3687         387.116 
       0.981748         360.765           88.14         384.376 
       0.987916          358.41         86.9269         382.954 
        0.99406         355.237         85.7414         380.473 
        1.00019         351.931         84.5807          376.49 
        1.00632         351.939         83.4427         374.508 
        1.01246         348.863         82.3243         372.191 
        1.01859         344.436         81.2284         369.758 
        1.02471         342.371         80.1541         368.522 
        1.03085         341.801         79.0957         366.902 
        1.03698         338.849         78.0589         364.951 
        1.04314         337.933         77.0365         362.223 
        1.04929         335.117          76.035         359.508 
        1.05541         331.022         75.0556          357.34 
        1.06154         329.798         74.0912         355.306 
        1.06769          326.42         73.1424         353.171 
        1.07382         325.887         72.2136         350.949 
        1.07993         322.767         71.3031          349.44 
        1.08607           320.4         70.4048         346.929 
        1.09222         318.578         69.5213         344.731 
        1.09836         317.012         68.6541         343.894 
        1.10449         314.704         67.8029         341.464 
        1.11063         311.534         66.9653         339.219 
        1.11677         309.347         66.1424         337.388 
         1.1229         308.006         65.3349         335.937 
        1.12903          306.32         64.5403         334.158 
        1.13518         303.704         63.7584         331.875 
        1.14131         302.999           62.99         330.208 
        1.14745         298.566         62.2349         328.271 
        1.15359         296.648         61.4921         326.462 
        1.15973          295.71         60.7613         324.592 
        1.16584          294.28         60.0458          322.08 
        1.17197         291.782         59.3409         320.903 
        1.17811          289.16         58.6452         319.589 
        1.18424         287.485         57.9629         318.096 
        1.19038         286.038         57.2896         316.256 
        1.19652         282.729         56.6273         314.708 
        1.20267         282.583         55.9756          311.94 
        1.20881         280.179         55.3344          311.07 
        1.21495         278.841         54.7044         308.722 
        1.22108         276.804         54.0844         306.887 
         1.2272          273.68         53.4755         304.644 
        1.23334         272.728         52.8747         303.349 
        1.23949          271.63         52.2818         302.734 
        1.24562         269.704         51.6998         300.797 
        1.25174         267.599         51.1275         299.479 
        1.25789         265.345         50.5623         297.771 
        1.26402         264.983         50.0067         296.107 
        1.27014         263.333         49.4608         294.497 
        1.27628          260.34         48.9216         293.563 
        1.28244         259.504         48.3894         291.956 
        1.28858         257.605         47.8659         290.091 
        1.29471         256.398         47.3514         287.841 
        1.30084          254.72          46.845         286.603 
        1.30697         252.087         46.3453         285.656 
        1.31312         250.592         45.8523         283.858 
        1.31925          249.29         45.3681         281.854 
        1.32537         248.266         44.8914         280.655 
        1.33151         246.045         44.4199          279.48 
        1.33765         244.401         43.9555         277.719 
        1.34378          242.76         43.4987         276.454 
        1.34992         241.074         43.0482         274.548 
        1.35606         239.963         42.6032         272.999 
         1.3622         238.411         42.1653         271.832 
        1.36833         236.365         41.7346          270.89 
        1.37445          235.69         41.3103          268.65 
        1.38059          233.66         40.8906         267.946 
        1.38675          232.07         40.4758         266.793 
        1.39288         230.893         40.0684         264.156 
        1.39901         229.099         39.6669         263.489 
        1.40515         227.987           39.27          262.35 
         1.4113         226.109         38.8787          260.52 
        1.41742         224.214         38.4944         259.292 
        1.42355         224.682         38.1145         258.258 
         1.4297         222.177         37.7387         256.902 
        1.43585         220.521         37.3681         255.798 
        1.44198         218.833          37.004          254.17 
        1.44809         217.839         36.6455         253.059 
        1.45423         216.684         36.2904          251.35 
        1.46036         215.185         35.9408          250.13 
        1.46649         214.091         35.5956         249.427 
        1.47263         212.718         35.2548          248.48 
        1.47877         211.292         34.9185         246.668 
        1.48491         209.314         34.5862         245.375 
        1.49104         207.701          34.259         244.385 
        1.49718         206.638         33.9358         243.006 
        1.50333         205.193         33.6163         242.074 
        1.50947         204.462         33.3015         241.068 
         1.5156         203.042         32.9913         239.551 
        1.52172         201.672         32.6851         237.948 
        1.52787          200.48         32.3822         237.128 
          1.534         199.535         32.0835         235.923 
        1.54013         198.125         31.7889         234.746 
        1.54627         197.026         31.4975         233.802 
        1.55241         195.676         31.2097         232.589 
        1.55855         194.937          30.926         231.254 
        1.56467         193.124         30.6466         230.107 
         1.5708         191.742         30.3699         229.139 
        1.57695         190.895         30.0962         228.087 
        1.58308         189.466         29.8266         226.914 
        1.58922         188.453         29.5601          225.77 
        1.59535         186.695          29.297         224.721 
         1.6015         185.781         29.0367         223.436 
        1.60764         184.896         28.7798         222.198 
        1.61376         183.216         28.5267         221.386 
        1.61989         182.211         28.2765         220.514 
        1.62604         180.859         28.0287         219.455 
        1.63218          180.15         27.7841          218.44 
        1.63831         179.268          27.543         217.356 
        1.64444         177.786         27.3046          216.11 
        1.65059         176.997         27.0686         215.334 
        1.65673         175.449         26.8356         214.241 
        1.66285         174.696         26.6061         212.984 
        1.66898         173.525         26.3791         212.022 
        1.67512         172.399         26.1544         211.091 
        1.68127         171.254         25.9321         210.188 
         1.6874         170.303         25.7129         209.401 
        1.69353         169.469         25.4964         208.599 
        1.69967         168.053         25.2819         207.288 
        1.70581         167.498           25.07         206.204 
        1.71193           165.9         24.8613         205.309 
        1.71806         164.897         24.6546         203.987 
        1.72421         164.157         24.4498         203.267 
        1.73035         162.946         24.2477          202.44 
        1.73649         161.707         24.0478         201.275 
        1.74262         160.995         23.8504         200.668 
        1.74876         160.062         23.6551         199.794 
        1.75489         159.036         23.4624         198.712 
        1.76101         157.779         23.2719         197.788 
        1.76715         156.859         23.0833         196.873 
        1.77329         156.076         22.8966         195.833 
        1.77943          154.76         22.7118           194.8 
        1.78557         154.266         22.5294         193.946 
        1.79171         153.219          22.349         193.229 
        1.79785         152.237         22.1705         192.399 
        1.80399         151.212         21.9941         191.339 
        1.81012         149.899         21.8198         190.499 
        1.81625         149.619         21.6475         189.794 
        1.82239         148.179         21.4768         188.979 
        1.82853         147.647          21.308         188.054 
        1.83466         146.452         21.1412         187.014 
        1.84078         145.817         20.9764         186.076 
        1.84692         145.168         20.8131         185.473 
        1.85306         143.764         20.6514         184.603 
         1.8592         143.249         20.4916         183.694 
        1.86533         141.855         20.3336          183.19 
        1.87147         141.408         20.1771         182.441 
