# k  (h/Mpc)    P(k)  (Mpc/h)^3    P_linear(k)  (Mpc/h)^3     P_NL(k)  ShotnoiseSubtracted = false
     0.00783031         10258.5         10297.5         10287.3 
       0.013688         13439.6         13764.3         13687.5 
       0.019231         14650.9         14866.8         14735.3 
      0.0249154         14569.1         14601.7         14444.7 
      0.0312784         13240.9         13432.4         13248.3 
      0.0375637         11743.4         12014.9         11822.2 
      0.0433917         10676.5         10814.3         10601.1 
      0.0492413         9631.71         9853.82         9637.05 
      0.0555754         8930.76         9089.16          8872.6 
      0.0619321          8117.4         8519.27         8294.88 
       0.067871         7774.54         8058.38         7836.27 
      0.0738098         7356.85         7582.65         7303.27 
      0.0800417         6818.07         7023.76         6752.89 
      0.0862327         6200.44         6415.61         6207.94 
      0.0921407         5651.18         5827.83         5633.12 
      0.0982031         5181.07         5269.55         5147.75 
       0.104506         4653.39          4780.9         4721.15 
       0.110769          4311.6         4406.15         4321.95 
       0.116806         4130.54         4140.98         4057.53 
       0.122832         3888.74         3944.09         3878.48 
       0.129052         3714.07         3776.25         3715.18 
       0.135211         3613.77          3612.1          3550.4 
       0.141259         3382.08         3431.89            3401 
       0.147318         3147.55         3227.22         3224.75 
       0.153489         2979.22         3002.92         2973.34 
       0.159709         2851.14         2778.63         2796.73 
       0.165845         2602.58         2577.23         2666.56 
       0.171974         2531.46         2408.05         2509.81 
       0.178125         2444.55         2274.04         2427.59 
       0.184229         2263.44         2172.12         2317.05 
        0.19034         2233.33         2091.22         2240.05 
       0.196428         2175.64         2019.82         2151.18 
       0.202534         2053.51         1946.96         2090.59 
       0.208729         2016.76         1865.26          1993.7 
       0.214876         1938.61         1775.31         1943.51 
       0.220989         1835.81         1680.62         1875.13 
       0.227147         1790.76         1586.07         1799.71 
        0.23329         1722.53         1498.78         1744.07 
       0.239377         1705.64         1423.49         1678.56 
       0.245482         1627.25         1360.62         1606.95 
       0.251667         1568.46         1308.43         1574.48 
       0.257832         1550.09         1264.58         1529.01 
       0.263955         1481.44         1224.98          1488.8 
       0.270079         1446.43         1185.57         1449.86 
        0.27624         1387.18         1143.83         1407.15 
       0.282372         1370.59         1099.58         1374.49 
        0.28843         1352.31          1054.2         1337.22 
       0.294538         1289.86         1008.75         1301.44 
       0.300721         1262.87         965.175         1264.35 
        0.30691         1237.67         925.684          1244.1 
       0.313033         1190.83         891.324         1207.17 
       0.319153         1177.29         861.467         1177.28 
       0.325316         1162.84         834.811          1161.8 
        0.33145         1141.36         810.353         1123.35 
       0.337538         1104.61         786.755         1105.42 
       0.343633         1078.15         762.934         1093.45 
       0.349808         1058.11         738.212         1073.44 
       0.355968         1038.81          713.17         1054.75 
       0.362074         1008.93         688.558         1031.86 
       0.368217         1005.63         664.692         1004.59 
       0.374374         990.767         642.324          987.91 
       0.380519         956.874         621.817         968.585 
       0.386598         951.008         603.362         956.293 
       0.392688         930.581         586.412         935.134 
        0.39888         909.111         570.278         924.148 
       0.405048         894.554         554.873         913.384 
       0.411186         891.004         539.801         892.694 
       0.417313         887.796         524.797         878.231 
       0.423458         860.086         509.837         865.147 
       0.429607         837.274         495.049         847.778 
       0.435692         829.956         480.825         833.667 
       0.441815         815.957         467.151         829.806 
       0.447964         804.889         454.187         816.364 
       0.454126         794.668         441.984         796.723 
       0.460267         784.194         430.588         795.167 
       0.466387         773.648         419.835          780.15 
        0.47254         759.639         409.451         771.788 
       0.478662           749.1         399.411         760.429 
       0.484765         742.842          389.62          748.85 
       0.490885         734.436          379.96          737.49 
       0.497035         721.807         370.421         730.953 
       0.503198         720.684         361.111         721.456 
       0.509342         707.101          352.15         711.296 
       0.515458         693.834         343.587          707.63 
       0.521598         688.833         335.356         698.564 
       0.527764         674.987         327.464         690.409 
       0.533884         670.939          319.98         682.667 
           0.54         663.998         312.784         674.661 
       0.546137         654.258         305.783         666.665 
       0.552299         651.729         298.928         657.912 
       0.558452         643.871          292.25         652.669 
       0.564573          636.79          285.77         647.051 
       0.570708          632.21         279.441         641.429 
       0.576825         619.768         273.303          631.35 
       0.582926         617.085         267.366         625.319 
       0.589034           609.3         261.618         616.312 
       0.595184         603.606          256.04         611.455 
       0.601379         594.308         250.626         606.768 
       0.607522         585.879         245.435         599.514 
       0.613639         584.257          240.42         596.025 
       0.619772         580.808         235.524         594.657 
       0.625918         571.268         230.741         586.769 
       0.632068         567.202         226.077         581.235 
       0.638161         560.642         221.576         572.992 
         0.6443         555.891         217.164         570.442 
       0.650464         550.463         212.858         561.461 
       0.656582         545.865         208.704          557.14 
       0.662703           540.2         204.663         555.102 
       0.668861         534.457          200.71         551.127 
       0.675024          530.22         196.865         546.669 
       0.681124         523.698         193.165         538.098 
       0.687237         521.476         189.557         533.806 
       0.693381         514.309         186.027         529.706 
       0.699536         511.593         182.584         526.334 
       0.705665         506.425         179.242         521.416 
       0.711789         505.408         175.987         517.074 
       0.717957         497.482         172.787         514.705 
        0.72409         493.329         169.684         510.362 
       0.730186         494.114         166.676         506.296 
       0.736317         486.084         163.724         500.996 
       0.742472         480.804         160.834         496.731 
       0.748622         477.381         158.019          492.95 
        0.75476         474.138         155.279         492.894 
       0.760888         470.791          152.61         486.774 
       0.767043         467.748         149.996         482.801 
       0.773185         465.041         147.449         479.392 
       0.779291         458.476         144.978          475.21 
       0.785407         456.124         142.561         472.602 
       0.791564         452.267         140.184         469.914 
       0.797719         445.895         137.863         465.531 
       0.803834          448.33          135.61         463.221 
       0.809972         441.533           133.4         460.194 
       0.816124         437.228         131.234         453.971 
       0.822261         433.828         129.123         451.983 
       0.828378         432.279         127.066         448.911 
       0.834502          425.76         125.051         447.046 
       0.840667         425.671         123.069         443.672 
       0.846816         419.498         121.135          440.75 
       0.852925         419.307         119.255         437.735 
       0.859047         415.321         117.412         434.397 
       0.865192          413.71         115.603         431.534 
       0.871341         407.915         113.831         429.081 
       0.877463         404.816         112.105         426.235 
       0.883569         401.922         110.419          423.65 
       0.889708         398.492          108.76         420.048 
       0.895864         395.609         107.132         417.768 
       0.902008         393.774          105.54          415.14 
       0.908149         390.594         103.982         411.347 
       0.914301          388.55         102.454         409.088 
       0.920448          385.18         100.958         405.767 
       0.926574         383.068         99.4975         403.423 
       0.932687          380.33         98.0694         400.388 
       0.938823         376.331         96.6647         399.878 
       0.944975         374.758         95.2846         396.893 
       0.951105         371.776         93.9367         393.531 
       0.957225         366.819         92.6175         391.794 
       0.963368         367.364         91.3195         389.019 
       0.969511          360.84         90.0466         386.255 
       0.975621         361.338         88.8052         384.675 
       0.981748          358.49         87.5842         381.953 
       0.987916          356.15         86.3787         380.539 
        0.99406         352.997         85.2007         378.074 
        1.00019         349.712         84.0473         374.116 
        1.00632         349.719         82.9166         372.146 
        1.01246         346.663         81.8052         369.844 
        1.01859         342.264         80.7162         367.427 
        1.02471         340.212         79.6487         366.198 
        1.03085         339.646          78.597         364.589 
        1.03698         336.713         77.5667          362.65 
        1.04314         335.802         76.5507         359.939 
        1.04929         333.004         75.5556         357.241 
        1.05541         328.935         74.5823         355.087 
        1.06154         327.718         73.6239         353.066 
        1.06769         324.361         72.6812         350.943 
        1.07382         323.832         71.7582         348.736 
        1.07993         320.732         70.8535         347.237 
        1.08607         318.379         69.9609         344.741 
        1.09222          316.57         69.0829         342.557 
        1.09836         315.013         68.2212         341.725 
        1.10449         312.719         67.3753         339.311 
        1.11063          309.57          66.543          337.08 
        1.11677         307.396         65.7253          335.26 
         1.1229         306.064         64.9229         333.819 
        1.12903         304.389         64.1333         332.051 
        1.13518         301.788         63.3563         329.782 
        1.14131         301.088         62.5928         328.126 
        1.14745         296.683         61.8424         326.201 
        1.15359         294.778         61.1044         324.403 
        1.15973         293.846         60.3782         322.545 
        1.16584         292.424         59.6672         320.049 
        1.17197         289.942         58.9667         318.879 
        1.17811         287.337         58.2754         317.574 
        1.18424         285.672         57.5974          316.09 
        1.19038         284.235         56.9283         314.262 
        1.19652         280.946         56.2702         312.724 
        1.20267         280.801         55.6226         309.973 
        1.20881         278.412         54.9855         309.108 
        1.21495         277.082         54.3594         306.775 
        1.22108         275.058         53.7433         304.952 
         1.2272         271.954         53.1383         302.723 
        1.23334         271.008         52.5413         301.436 
        1.23949         269.917         51.9522         300.825 
        1.24562         268.004         51.3738           298.9 
        1.25174         265.912         50.8051          297.59 
        1.25789         263.672         50.2435         295.894 
        1.26402         263.312         49.6913         294.239 
        1.27014         261.673          49.149          292.64 
        1.27628         258.699         48.6131         291.712 
        1.28244         257.868         48.0843         290.115 
        1.28858          255.98         47.5641         288.261 
        1.29471         254.781         47.0528         286.026 
        1.30084         253.114         46.5496         284.796 
        1.30697         250.497         46.0531         283.855 
        1.31312         249.012         45.5632         282.068 
        1.31925         247.718          45.082         280.077 
        1.32537         246.701         44.6083         278.885 
        1.33151         244.494         44.1398         277.718 
        1.33765          242.86         43.6783         275.968 
        1.34378         241.229         43.2244         274.711 
        1.34992         239.553         42.7768         272.817 
        1.35606          238.45         42.3345         271.277 
         1.3622         236.908         41.8994         270.118 
        1.36833         234.874         41.4715         269.182 
        1.37445         234.203         41.0498         266.956 
        1.38059         232.187         40.6327         266.256 
        1.38675         230.606         40.2205         265.111 
        1.39288         229.437         39.8157          262.49 
        1.39901         227.654         39.4167         261.827 
        1.40515         226.549         39.0224         260.695 
         1.4113         224.684         38.6336         258.877 
        1.41742           222.8         38.2516         257.657 
        1.42355         223.265         37.8742         256.629 
         1.4297         220.776         37.5007         255.282 
        1.43585         219.131         37.1325         254.185 
        1.44198         217.453         36.7707         252.567 
        1.44809         216.465         36.4144         251.463 
        1.45423         215.317         36.0616         249.765 
        1.46036         213.828         35.7141         248.553 
        1.46649         212.741         35.3711         247.855 
        1.47263         211.377         35.0324         246.913 
        1.47877          209.96         34.6984         245.113 
        1.48491         207.994         34.3681         243.828 
        1.49104         206.391          34.043         242.844 
        1.49718         205.335         33.7218         241.474 
        1.50333         203.899         33.4043         240.547 
        1.50947         203.173         33.0915         239.547 
         1.5156         201.762         32.7833          238.04 
        1.52172           200.4          32.479         236.448 
        1.52787         199.216          32.178         235.632 
          1.534         198.276         31.8812         234.436 
        1.54013         196.876         31.5884         233.265 
        1.54627         195.783         31.2989         232.327 
        1.55241         194.442         31.0129         231.122 
        1.55855         193.708          30.731         229.796 
        1.56467         191.906         30.4534         228.656 
         1.5708         190.533         30.1784         227.694 
        1.57695         189.691         29.9065         226.649 
        1.58308         188.271         29.6385         225.483 
        1.58922         187.264         29.3737         224.346 
        1.59535         185.517         29.1123         223.303 
         1.6015          184.61         28.8536         222.027 
        1.60764          183.73         28.5983         220.796 
        1.61376         182.061         28.3468          219.99 
        1.61989         181.062         28.0982         219.124 
        1.62604         179.719          27.852         218.071 
        1.63218         179.014         27.6089         217.062 
        1.63831         178.138         27.3693         215.986 
        1.64444         176.665         27.1325         214.747 
        1.65059         175.881         26.8979         213.977 
        1.65673         174.343         26.6664         212.891 
        1.66285         173.594         26.4383         211.641 
        1.66898          172.43         26.2128         210.685 
        1.67512         171.312         25.9895         209.759 
        1.68127         170.175         25.7686         208.862 
         1.6874         169.229         25.5508         208.081 
        1.69353           168.4         25.3357         207.284 
        1.69967         166.993         25.1225         205.981 
        1.70581         166.442         24.9119         204.904 
        1.71193         164.854         24.7046         204.014 
        1.71806         163.857         24.4991           202.7 
        1.72421         163.122         24.2957         201.985 
        1.73035         161.918         24.0948         201.164 
        1.73649         160.687         23.8962         200.006 
        1.74262          159.98            23.7         199.403 
        1.74876         159.053         23.5059         198.534 
        1.75489         158.033         23.3144         197.459 
        1.76101         156.784         23.1252         196.541 
        1.76715          155.87         22.9377         195.632 
        1.77329         155.091         22.7522         194.598 
        1.77943         153.784         22.5686         193.572 
        1.78557         153.293         22.3874         192.723 
        1.79171         152.253         22.2081          192.01 
        1.79785         151.277         22.0307         191.186 
        1.80399         150.258         21.8554         190.133 
        1.81012         148.954         21.6822         189.298 
        1.81625         148.675          21.511         188.597 
        1.82239         147.245         21.3413         187.787 
        1.82853         146.716         21.1736         186.868 
        1.83466         145.529         21.0079         185.834 
        1.84078         144.898         20.8441         184.903 
        1.84692         144.253         20.6819         184.303 
        1.85306         142.857         20.5211         183.439 
         1.8592         142.345         20.3624         182.536 
        1.86533         140.961         20.2054         182.035 
        1.87147         140.516         20.0499         181.291 
        1.87761         139.304          19.896         180.314 
