# k  (h/Mpc)    P(k)  (Mpc/h)^3    P_linear(k)  (Mpc/h)^3     P_NL(k)  ShotnoiseSubtracted = false
     0.00783031          7988.1         8020.71         8014.37 
       0.013688         10495.3         10722.2         10668.8 
       0.019231         11436.7         11581.5         11490.7 
      0.0249154         11359.4         11375.2         11272.6 
      0.0312784         10344.8         10464.5         10349.9 
      0.0375637         9186.66         9360.24         9241.22 
      0.0433917         8346.86            8425         8294.81 
      0.0492413         7538.44         7676.74         7544.82 
      0.0555754         6992.47         7081.05         6948.51 
      0.0619321          6375.8         6637.09         6499.27 
       0.067871         6103.21         6278.03         6140.79 
      0.0738098         5769.61         5907.42         5734.41 
      0.0800417         5351.57            5472            5304 
      0.0862327         4866.59         4998.22         4869.84 
      0.0921407         4430.96          4540.3          4419.6 
      0.0982031         4055.22         4105.37         4031.09 
       0.104506         3642.32         3724.67         3689.34 
       0.110769         3372.01         3432.72         3380.43 
       0.116806         3227.09         3226.13         3174.46 
       0.122832         3036.36         3072.74         3032.56 
       0.129052         2906.35         2941.98         2904.06 
       0.135211         2821.69          2814.1         2776.63 
       0.141259         2644.89          2673.7         2655.03 
       0.147318         2459.23         2514.25         2515.47 
       0.153489         2323.36          2339.5         2321.32 
       0.159709          2212.4         2164.76         2177.56 
       0.165845         2018.11         2007.86         2067.97 
       0.171974            1960         1876.05         1942.46 
       0.178125         1884.51         1771.65         1872.48 
       0.184229         1750.17         1692.25         1788.86 
        0.19034          1722.3         1629.22         1727.54 
       0.196428         1675.15         1573.59         1657.58 
       0.202534         1578.81         1516.83         1608.88 
       0.208729         1550.73         1453.18         1535.57 
       0.214876         1491.38         1383.11         1494.24 
       0.220989         1403.07         1309.33         1436.93 
       0.227147         1369.62         1235.67         1373.68 
        0.23329         1316.48         1167.67         1329.01 
       0.239377         1296.24         1109.01         1278.34 
       0.245482         1233.89         1060.03         1221.62 
       0.251667         1188.64         1019.37         1195.16 
       0.257832         1176.49         985.205         1159.44 
       0.263955         1120.67         954.358         1127.07 
       0.270079         1090.75         923.651         1096.24 
        0.27624         1046.13         891.131         1062.26 
       0.282372         1029.58         856.658         1033.77 
        0.28843         1019.58         821.307         1002.06 
       0.294538          969.65         785.897         975.383 
       0.300721         944.301         751.946         948.299 
        0.30691         928.136         721.179         929.299 
       0.313033         890.984          694.41         900.061 
       0.319153         878.462         671.149          878.56 
       0.325316         865.445         650.383         865.226 
        0.33145         849.164         631.327         836.192 
       0.337538          820.55         612.943         820.201 
       0.343633         798.592         594.385         810.719 
       0.349808         781.517         575.124         794.828 
       0.355968         767.724         555.614         779.738 
       0.362074         744.993          536.44         761.441 
       0.368217         741.217         517.847         739.499 
       0.374374         728.931          500.42         726.283 
       0.380519         702.394         484.444         710.858 
       0.386598         695.668         470.066         700.921 
       0.392688         682.253         456.861         685.297 
        0.39888         664.579         444.291         675.505 
       0.405048         654.492         432.289         668.383 
       0.411186         651.508         420.547         651.499 
       0.417313         645.474         408.857         638.114 
       0.423458          626.15         397.202          628.69 
       0.429607         610.569         385.682         615.684 
       0.435692         602.138           374.6         605.197 
       0.441815         593.149         363.947         600.961 
       0.447964         582.019         353.847         590.202 
       0.454126         575.078          344.34         576.507 
       0.460267         566.387         335.462         573.974 
       0.466387         558.631         327.084         563.051 
        0.47254         549.855         318.994         556.597 
       0.478662         538.786         311.172         546.894 
       0.484765         534.181         303.545         536.529 
       0.490885         528.854         296.019         529.784 
       0.497035         519.209         288.586         524.587 
       0.503198         518.316         281.334         516.764 
       0.509342         506.317         274.352         510.747 
       0.515458         498.574         267.681         507.419 
       0.521598         491.401         261.268         498.604 
       0.527764         483.734          255.12         491.922 
       0.533884         482.215         249.289         486.511 
           0.54         475.456         243.683         480.363 
       0.546137         466.298         238.229         474.953 
       0.552299         465.736         232.888         468.547 
       0.558452         458.768         227.685         463.947 
       0.564573         453.573         222.637         459.985 
       0.570708         449.167         217.706          455.81 
       0.576825         441.029         212.924         447.734 
       0.582926         437.783         208.299         442.887 
       0.589034          432.21         203.821         437.537 
       0.595184         429.179         199.475         432.147 
       0.601379         421.978         195.257         429.704 
       0.607522         415.514         191.213         424.963 
       0.613639         413.357         187.306         421.042 
       0.619772         411.454         183.492         418.732 
       0.625918         405.259         179.765         414.085 
       0.632068         400.219         176.131         408.288 
       0.638161         396.384         172.625         404.818 
         0.6443         393.747         169.188         401.725 
       0.650464         388.327         165.833         395.248 
       0.656582         384.738         162.596         391.935 
       0.662703         381.997         159.448         390.508 
       0.668861         376.594         156.369         386.605 
       0.675024         374.102         153.373         382.798 
       0.681124         370.314          150.49         377.894 
       0.687237         367.115         147.679         374.523 
       0.693381         363.492          144.93         371.458 
       0.699536         359.739         142.247          368.95 
       0.705665         356.205         139.644         366.166 
       0.711789         354.571         137.107         362.331 
       0.717957          349.66         134.615         359.927 
        0.72409         346.744         132.197         357.582 
       0.730186         348.033         129.854         354.597 
       0.736317         341.798         127.554         350.676 
       0.742472         337.803         125.303         347.516 
       0.748622         334.121         123.109         344.466 
        0.75476         334.063         120.974         343.434 
       0.760888         330.353         118.895         339.302 
       0.767043         327.245         116.858         337.351 
       0.773185         325.555         114.875         334.771 
       0.779291         320.404         112.949         331.615 
       0.785407         319.453         111.066         329.267 
       0.791564         316.047         109.214         327.043 
       0.797719         311.608         107.406         324.862 
       0.803834         313.835         105.651         322.402 
       0.809972         309.774         103.929         319.993 
       0.816124         306.159         102.242         317.015 
       0.822261         302.813         100.597          314.97 
       0.828378         303.041          98.994         312.307 
       0.834502         298.142         97.4248         310.895 
       0.840667         297.899           95.88         308.666 
       0.846816         293.592         94.3734         306.393 
       0.852925         292.617         92.9092         303.922 
       0.859047         289.435         91.4735          301.97 
       0.865192         289.355         90.0638         300.122 
       0.871341         285.249         88.6833         297.842 
       0.877463         282.606         87.3384         296.262 
       0.883569         281.917         86.0253         294.427 
       0.889708         279.532         84.7328         292.007 
       0.895864         277.407         83.4638         290.417 
       0.902008         275.126         82.2239          287.94 
       0.908149         272.872         81.0103         285.523 
       0.914301         271.599         79.8195         284.542 
       0.920448         270.034         78.6541         281.713 
       0.926574         267.742         77.5163         279.859 
       0.932687         265.869         76.4037         277.605 
       0.938823         263.771         75.3093         277.172 
       0.944975         262.009         74.2341         275.793 
       0.951105         259.828          73.184         273.608 
       0.957225         257.959         72.1563          271.51 
       0.963368         256.951          71.145          269.17 
       0.969511         253.048         70.1533         267.772 
       0.975621         252.259         69.1861         267.337 
       0.981748         250.548         68.2349         265.054 
       0.987916          249.29         67.2957         263.822 
        0.99406         247.139          66.378         262.327 
        1.00019         245.663         65.4794         259.974 
        1.00632         244.925         64.5985         257.878 
        1.01246         242.863         63.7326         256.249 
        1.01859         240.235         62.8842          255.43 
        1.02471         238.427         62.0525         254.378 
        1.03085          237.72         61.2332         252.645 
        1.03698         235.636         60.4305         251.232 
        1.04314         235.226          59.639         249.631 
        1.04929          233.46         58.8637         247.854 
        1.05541          231.53         58.1054         246.516 
        1.06154         230.071         57.3588         245.255 
        1.06769         227.716         56.6243         243.989 
        1.07382         227.551         55.9052         242.307 
        1.07993          225.23         55.2004         240.997 
        1.08607         223.329          54.505         240.046 
        1.09222         222.431         53.8209         238.554 
        1.09836         221.132         53.1496         237.472 
        1.10449         218.998         52.4906         235.776 
        1.11063         217.689         51.8422         234.226 
        1.11677         216.903         51.2051         233.039 
         1.1229         214.932           50.58         231.952 
        1.12903         214.336         49.9648         230.762 
        1.13518         212.656         49.3595         229.337 
        1.14131         211.525         48.7647         227.972 
        1.14745         209.304         48.1801         226.787 
        1.15359         207.432         47.6051         225.447 
        1.15973         207.086         47.0393         224.075 
        1.16584         206.209         46.4854         222.515 
        1.17197         204.716         45.9396          221.37 
        1.17811         202.731         45.4011         220.859 
        1.18424         201.652         44.8729         219.427 
        1.19038         200.408         44.3516         218.322 
        1.19652         198.688         43.8389         217.508 
        1.20267         197.935         43.3344         215.961 
        1.20881         196.387          42.838         215.276 
        1.21495         195.938         42.3502         213.319 
        1.22108         194.234         41.8702         212.883 
         1.2272         192.757         41.3989         211.109 
        1.23334         192.056         40.9338         210.388 
        1.23949         191.376         40.4748         209.551 
        1.24562         189.742         40.0242         208.056 
        1.25174         188.159         39.5812         207.312 
        1.25789         187.161         39.1436         206.155 
        1.26402         186.672         38.7134         204.728 
        1.27014         185.353         38.2909          204.54 
        1.27628         183.154         37.8734         203.735 
        1.28244         182.722         37.4614         201.889 
        1.28858         181.523         37.0561         200.848 
        1.29471         180.447         36.6578         200.084 
        1.30084         179.282         36.2658         199.028 
        1.30697          178.34          35.879         197.987 
        1.31312         177.068         35.4973         196.546 
        1.31925         175.637         35.1224         195.702 
        1.32537         175.227         34.7533         195.003 
        1.33151         173.942         34.3883         193.969 
        1.33765         172.264         34.0288         193.006 
        1.34378         172.158         33.6752         191.809 
        1.34992         171.199         33.3264         190.975 
        1.35606         169.898         32.9819         189.758 
         1.3622         169.312         32.6429         188.916 
        1.36833         167.318         32.3095         187.982 
        1.37445         167.115          31.981         186.819 
        1.38059         165.745         31.6561         186.295 
        1.38675         164.844         31.3349         185.205 
        1.39288         163.699         31.0196         184.133 
        1.39901         162.638         30.7087         183.536 
        1.40515         161.928         30.4015         182.728 
         1.4113         161.046         30.0986         181.746 
        1.41742         159.669          29.801         181.041 
        1.42355         159.475         29.5069         180.366 
         1.4297         158.032          29.216         179.216 
        1.43585          156.93         28.9291         178.274 
        1.44198         155.614         28.6472         177.438 
        1.44809         154.618         28.3697         176.507 
        1.45423         154.391         28.0948          175.57 
        1.46036         153.204         27.8241         174.769 
        1.46649         152.131         27.5569         174.186 
        1.47263          151.67          27.293         173.571 
        1.47877           150.3         27.0327         172.508 
        1.48491         149.353         26.7755         171.707 
        1.49104         147.789         26.5221         171.052 
        1.49718         147.938         26.2719          169.66 
        1.50333         146.976         26.0245         169.092 
        1.50947         146.074         25.7809         168.428 
         1.5156         145.005         25.5407         167.572 
        1.52172         144.179         25.3037          167.02 
        1.52787         143.406         25.0692         165.937 
          1.534         142.765         24.8379         165.134 
        1.54013         141.821         24.6099          164.47 
        1.54627         140.788         24.3843         163.759 
        1.55241         139.981         24.1615         163.043 
        1.55855          139.27         23.9418         162.056 
        1.56467         138.164         23.7256         161.237 
         1.5708         137.536         23.5113         160.831 
        1.57695         136.873         23.2995         160.075 
        1.58308         135.958         23.0907         159.032 
        1.58922         135.509         22.8844         158.345 
        1.59535         134.824         22.6807         157.687 
         1.6015         133.274         22.4792         156.946 
        1.60764         132.577         22.2803         156.261 
        1.61376         131.917         22.0844         155.689 
        1.61989         131.288         21.8907         154.991 
        1.62604          130.44         21.6988         154.119 
        1.63218         129.892         21.5095         153.401 
        1.63831         128.759         21.3228          152.85 
        1.64444         128.076         21.1383         152.084 
        1.65059          127.18         20.9556         151.325 
        1.65673         126.702         20.7752         150.671 
        1.66285          126.21         20.5975         150.061 
        1.66898         124.964         20.4218         149.425 
        1.67512         124.596         20.2478         148.785 
        1.68127         123.607         20.0757         148.047 
         1.6874         122.957         19.9061         147.338 
        1.69353         122.058         19.7385         146.776 
        1.69967         121.614         19.5724         146.031 
        1.70581         121.075         19.4083         145.303 
        1.71193         120.117         19.2468         144.703 
        1.71806         119.358         19.0867         144.112 
        1.72421          118.71         18.9282          143.46 
        1.73035         118.177         18.7717          142.75 
        1.73649         117.286          18.617         142.093 
        1.74262          116.71         18.4642         141.611 
        1.74876         115.863          18.313         140.914 
        1.75489         115.379         18.1638         140.128 
        1.76101         114.633         18.0163         139.468 
        1.76715         113.753         17.8703         138.866 
        1.77329         113.343         17.7257         138.353 
        1.77943         112.428         17.5827         137.833 
        1.78557         111.982         17.4415         137.228 
        1.79171         111.391         17.3018         136.681 
        1.79785         110.513         17.1637         136.136 
        1.80399         110.127         17.0271         135.479 
        1.81012         109.258         16.8921         134.825 
        1.81625         108.809         16.7587         134.245 
        1.82239         108.315         16.6266         133.695 
        1.82853         107.633         16.4959         133.096 
        1.83466         106.686         16.3668         132.454 
        1.84078          106.19         16.2392         131.898 
        1.84692         105.892         16.1128         131.528 
        1.85306         105.164         15.9876         130.911 
         1.8592         104.703         15.8639         130.263 
        1.86533         103.888         15.7416         129.822 
        1.87147         103.245         15.6204          128.94 
        1.87761         102.732         15.5005         128.236 
