# k  (h/Mpc)    P(k)  (Mpc/h)^3    P_linear(k)  (Mpc/h)^3     P_NL(k)  ShotnoiseSubtracted = false
     0.00783031         4859.36         4881.73         4879.01 
       0.013688         6413.66         6526.54         6499.32 
       0.019231         6983.42         7049.98         7004.41 
      0.0249154         6921.46         6924.62         6878.98 
      0.0312784         6323.22         6370.34         6325.43 
      0.0375637          5626.9         5698.18         5652.77 
      0.0433917         5105.96         5128.89         5081.11 
      0.0492413         4620.33          4673.4         4625.51 
      0.0555754          4286.1         4310.78         4261.98 
      0.0619321         3929.91         4040.52         3989.49 
       0.067871         3756.63         3821.95         3770.29 
      0.0738098         3546.29         3596.33         3530.83 
      0.0800417         3292.19         3331.27         3267.67 
      0.0862327         2995.01         3042.84         2994.71 
      0.0921407         2723.23         2764.07         2719.03 
      0.0982031         2485.33         2499.29         2472.81 
       0.104506         2233.55         2267.53         2256.34 
       0.110769         2065.27          2089.8         2071.17 
       0.116806         1971.34         1964.03         1945.63 
       0.122832         1855.67         1870.65         1856.94 
       0.129052         1780.96         1791.04         1777.81 
       0.135211         1722.22         1713.19         1700.63 
       0.141259         1619.14         1627.72         1622.02 
       0.147318         1505.85         1530.65         1534.18 
       0.153489          1418.1         1424.26         1418.72 
       0.159709         1339.15         1317.88         1325.11 
       0.165845         1222.02         1222.36         1249.82 
       0.171974         1180.69         1142.12         1170.91 
       0.178125          1127.3         1078.56         1121.93 
       0.184229         1053.99         1030.22         1073.06 
        0.19034         1032.38         991.855         1034.65 
       0.196428          1001.3         957.988         992.847 
       0.202534         944.414         923.432         961.727 
       0.208729         925.277         884.681         919.529 
       0.214876         890.577         842.021          890.47 
       0.220989         831.296         797.108         851.882 
       0.227147         810.514         752.265         809.894 
        0.23329         777.395         710.864         779.888 
       0.239377         756.938         675.156         748.894 
       0.245482         719.053         645.333         714.416 
       0.251667         691.465         620.582         696.341 
       0.257832         684.591         599.784          674.75 
       0.263955         650.339         581.004         654.562 
       0.270079         631.086          562.31         635.078 
        0.27624         604.955         542.513         613.673 
       0.282372         591.383         521.526         594.995 
        0.28843         586.436         500.004         574.272 
       0.294538         557.537         478.447         557.627 
       0.300721         537.633         457.778           541.8 
        0.30691         528.992         439.047         526.994 
       0.313033          507.46         422.751         509.238 
       0.319153         498.782          408.59         497.396 
       0.325316          486.79         395.947         488.117 
        0.33145          476.16         384.347         471.735 
       0.337538         460.699         373.154         460.314 
       0.343633         446.965         361.856         452.995 
       0.349808         435.774          350.13         443.026 
       0.355968         426.721         338.253         433.625 
       0.362074         416.093          326.58          422.09 
       0.368217         410.593         315.261         408.642 
       0.374374         402.102         304.651         400.352 
       0.380519          386.26         294.925         390.657 
       0.386598         380.428         286.172         383.159 
       0.392688         372.422         278.133         375.681 
        0.39888          363.56         270.481         367.304 
       0.405048         357.488         263.174         362.745 
       0.411186         354.125         256.025         354.195 
       0.417313         347.296         248.909         344.686 
       0.423458           338.2         241.813         338.559 
       0.429607         331.474           234.8          331.83 
       0.435692         325.065         228.053         325.645 
       0.441815         319.365         221.568         322.372 
       0.447964         311.095         215.419         315.449 
       0.454126         306.346         209.631         307.874 
       0.460267         302.943         204.226          305.14 
       0.466387         297.585         199.126         299.077 
        0.47254         294.041         194.201         294.594 
       0.478662         285.509         189.439          289.15 
       0.484765         282.383         184.795         282.654 
       0.490885         278.688         180.214         279.401 
       0.497035         275.458         175.689          276.08 
       0.503198         271.756         171.274         271.421 
       0.509342         264.632         167.023         267.899 
       0.515458         262.155         162.962         265.705 
       0.521598         256.276         159.058         259.987 
       0.527764         253.443         155.315         255.137 
       0.533884         253.002         151.765         252.225 
           0.54         247.147         148.352         248.991 
       0.546137         241.725         145.032         246.406 
       0.552299         240.294          141.78         241.913 
       0.558452         236.184         138.613         238.568 
       0.564573         234.715          135.54         236.519 
       0.570708         229.697         132.538         233.262 
       0.576825         226.596         129.626         229.191 
       0.582926         224.245         126.811         226.339 
       0.589034         221.443         124.084         224.222 
       0.595184         219.756         121.439          220.75 
       0.601379         214.815         118.871         219.603 
       0.607522         211.796         116.409         215.924 
       0.613639          210.05          114.03         213.762 
       0.619772         207.894         111.708         210.687 
       0.625918         206.176         109.439          209.25 
       0.632068         201.841         107.227         205.744 
       0.638161          199.38         105.093          204.62 
         0.6443         198.747             103         201.826 
       0.650464         195.304         100.958         198.392 
       0.656582         194.229         98.9873         197.168 
       0.662703         192.292         97.0706          194.71 
       0.668861         188.656         95.1961          192.88 
       0.675024         188.629         93.3722         190.377 
       0.681124         185.727         91.6172         188.777 
       0.687237          182.93          89.906         186.418 
       0.693381         182.165         88.2321         184.474 
       0.699536         179.776         86.5987          183.19 
       0.705665         177.345         85.0139         182.097 
       0.711789         175.368         83.4697          178.85 
       0.717957         173.657         81.9524         177.604 
        0.72409         172.702         80.4806         176.948 
       0.730186         171.754         79.0537          174.88 
       0.736317         168.849         77.6538         172.725 
       0.742472         166.963         76.2831          171.25 
       0.748622         164.547         74.9476         169.397 
        0.75476         164.511         73.6481         167.847 
       0.760888         163.202         72.3824          165.93 
       0.767043         160.665         71.1423         165.168 
       0.773185         158.894         69.9346         164.135 
       0.779291         157.245         68.7625         162.487 
       0.785407         155.583         67.6161         160.495 
       0.791564         155.065         66.4888         159.383 
       0.797719         153.442         65.3881         158.339 
       0.803834         152.455         64.3195         156.346 
       0.809972         151.788         63.2711         155.317 
       0.816124         149.885          62.244         154.492 
       0.822261         148.084         61.2427          152.89 
       0.828378         147.924         60.2667         150.983 
       0.834502         145.336         59.3114         150.684 
       0.840667         144.882         58.3709         149.849 
       0.846816         143.644         57.4538         148.121 
       0.852925         142.244         56.5624         146.883 
       0.859047         141.176         55.6883         145.573 
       0.865192         139.794         54.8301         144.881 
       0.871341         138.315         53.9897         143.411 
       0.877463         137.573         53.1709         142.796 
       0.883569         137.192         52.3715         141.597 
       0.889708         136.104         51.5846         140.604 
       0.895864         134.712         50.8121         139.707 
       0.902008         133.718         50.0573         138.373 
       0.908149         132.058         49.3184         137.355 
       0.914301         132.049         48.5934         136.799 
       0.920448         131.108         47.8839         135.668 
       0.926574         129.048         47.1913         133.998 
       0.932687         128.668          46.514         133.336 
       0.938823         127.569         45.8477         132.453 
       0.944975         126.181         45.1931         131.631 
       0.951105         125.337         44.5538         130.731 
       0.957225         125.372         43.9281         130.053 
       0.963368         123.823         43.3125         128.525 
       0.969511         122.723         42.7088         127.864 
       0.975621         121.955         42.1199         128.095 
       0.981748         120.891         41.5408         126.538 
       0.987916         120.038         40.9691         126.049 
        0.99406         119.583         40.4104         125.034 
        1.00019         118.275         39.8633         124.055 
        1.00632         117.723          39.327         123.421 
        1.01246         116.796         38.7999         122.417 
        1.01859         116.221         38.2834         121.766 
        1.02471         115.132         37.7771         121.304 
        1.03085          114.27         37.2782         120.366 
        1.03698         113.614         36.7896         119.402 
        1.04314         112.852         36.3077          118.85 
        1.04929         112.348         35.8357         118.458 
        1.05541         111.572         35.3741         117.818 
        1.06154         110.887         34.9196          117.02 
        1.06769         109.728         34.4724         116.381 
        1.07382          109.01         34.0346         115.615 
        1.07993          108.61         33.6056         114.849 
        1.08607         107.611         33.1822         114.125 
        1.09222         107.325         32.7657         113.234 
        1.09836         106.176          32.357         112.702 
        1.10449         105.663         31.9559          112.08 
        1.11063         104.803         31.5611         111.173 
        1.11677         104.366         31.1733         110.625 
         1.1229         103.495         30.7927         110.399 
        1.12903         103.264         30.4182         109.509 
        1.13518         102.715         30.0497         108.952 
        1.14131         101.926         29.6875         108.311 
        1.14745         100.941         29.3316         107.727 
        1.15359         100.091         28.9816           107.3 
        1.15973         99.8832         28.6371         106.649 
        1.16584         99.1849         28.2999         106.022 
        1.17197         98.3533         27.9677         105.451 
        1.17811         97.8463         27.6398         104.681 
        1.18424         97.0108         27.3182         104.185 
        1.19038         96.9709         27.0009         103.951 
        1.19652         96.3186         26.6887         103.022 
        1.20267           95.52         26.3816         102.697 
        1.20881         94.8869         26.0794         102.042 
        1.21495         94.5405         25.7825         101.514 
        1.22108         93.8947         25.4903         101.069 
         1.2272         93.1882         25.2033         100.593 
        1.23334         92.7402         24.9201         100.016 
        1.23949           92.24         24.6407         99.3563 
        1.24562         91.4537         24.3664         98.9686 
        1.25174         90.9189         24.0967         98.5647 
        1.25789         91.0449         23.8303         98.0137 
        1.26402         90.1213         23.5684         97.4266 
        1.27014          89.617         23.3112         97.0535 
        1.27628          88.831          23.057         96.6039 
        1.28244          88.524         22.8062          95.925 
        1.28858         88.0238         22.5595         95.4885 
        1.29471          87.578          22.317          95.227 
        1.30084         86.8824         22.0783         94.4159 
        1.30697         86.8326         21.8428         93.9431 
        1.31312          85.981         21.6104         93.8053 
        1.31925         85.5312         21.3822         93.2285 
        1.32537         85.0327         21.1575         92.6668 
        1.33151         84.7445         20.9353         92.3175 
        1.33765          84.078         20.7165          91.901 
        1.34378          83.904         20.5012         91.3726 
        1.34992         83.2805         20.2889         91.0072 
        1.35606         82.7247         20.0791          90.613 
         1.3622         82.2538         19.8727         90.1471 
        1.36833         81.7004         19.6698         89.4984 
        1.37445         81.1196         19.4698         89.2158 
        1.38059         80.9149          19.272         89.0772 
        1.38675         80.1246         19.0764         88.3188 
        1.39288         80.0798         18.8845         88.1165 
        1.39901         79.3528         18.6952         87.6526 
        1.40515           79.09         18.5082         87.2274 
         1.4113         78.8007         18.3238         86.9484 
        1.41742         78.3554         18.1426         86.5608 
        1.42355         77.6801         17.9636         85.9009 
         1.4297         77.2896         17.7865         85.5332 
        1.43585         76.7715         17.6118         85.3078 
        1.44198         76.3503         17.4402         85.0532 
        1.44809         75.9635         17.2712         84.2786 
        1.45423          75.571         17.1039         84.0027 
        1.46036         75.0624         16.9391         83.7518 
        1.46649         74.9928         16.7764         83.4677 
        1.47263         74.4352         16.6158         83.1353 
        1.47877          74.094         16.4573         82.5777 
        1.48491         73.7426         16.3007         82.2387 
        1.49104         73.1476         16.1465         81.7286 
        1.49718         72.7926         15.9941         81.4021 
        1.50333         72.5476         15.8435         81.1404 
        1.50947         72.0223         15.6952         80.8352 
         1.5156         71.7206          15.549         80.5161 
        1.52172         71.2356         15.4047         80.1638 
        1.52787         70.8091         15.2619         79.7686 
          1.534         70.6051         15.1211         79.4849 
        1.54013         70.2312         14.9823         79.1168 
        1.54627         69.6463         14.8449         78.7113 
        1.55241         69.2714         14.7093         78.3839 
        1.55855         69.1018         14.5756         78.0252 
        1.56467          68.566         14.4439         77.6065 
         1.5708         68.3431         14.3135         77.4394 
        1.57695          67.979         14.1845         77.2286 
        1.58308         67.4869         14.0574         76.7898 
        1.58922         67.2022         13.9318         76.4745 
        1.59535         66.9616         13.8078          76.167 
         1.6015         66.8207         13.6852         75.7777 
        1.60764         66.3721         13.5641         75.4802 
        1.61376         65.9067         13.4448         75.2579 
        1.61989         65.4449         13.3269         74.8277 
        1.62604         65.2133         13.2101         74.4625 
        1.63218         64.9016         13.0948         74.1989 
        1.63831         64.6885         12.9812         73.9219 
        1.64444         64.2043         12.8688          73.588 
        1.65059         64.0323         12.7576         73.2823 
        1.65673         63.4469         12.6478         72.9325 
        1.66285         63.3471         12.5396         72.6549 
        1.66898         62.6835         12.4326         72.5198 
        1.67512         62.6775         12.3267         72.2712 
        1.68127         62.2589          12.222         71.8375 
         1.6874         61.8974         12.1187         71.3947 
        1.69353         61.6656         12.0166         71.1554 
        1.69967         61.4169         11.9155         70.9938 
        1.70581         60.9507         11.8156          70.837 
        1.71193         60.6654         11.7173         70.5495 
        1.71806         60.4036         11.6199         70.0369 
        1.72421          60.118         11.5233         69.6962 
        1.73035         59.7972         11.4281          69.617 
        1.73649          59.442         11.3339         69.4908 
        1.74262         59.0066         11.2408         68.9146 
        1.74876         58.7348         11.1488         68.5954 
        1.75489         58.4504          11.058         68.4474 
        1.76101         58.1764         10.9682         68.1604 
        1.76715         58.0927         10.8793         67.8552 
        1.77329          57.527         10.7913          67.615 
        1.77943         57.5117         10.7042         67.3734 
        1.78557         57.1928         10.6182         67.0692 
        1.79171         56.8438         10.5332         66.7785 
        1.79785          56.531         10.4491         66.5779 
        1.80399         56.2384         10.3659         66.4136 
        1.81012         55.9972         10.2838          65.976 
        1.81625         55.6317         10.2026         65.6145 
        1.82239         55.3853         10.1221         65.5214 
        1.82853         55.2287         10.0426          65.384 
        1.83466         54.8395         9.96398         65.0509 
        1.84078          54.541          9.8863          64.694 
        1.84692         54.2227         9.80934         64.5966 
        1.85306         53.9884          9.7331         64.3785 
         1.8592         53.8212          9.6578         64.0563 
        1.86533         53.5178         9.58334         63.8856 
        1.87147         53.2355         9.50959         63.6433 
        1.87761           52.88         9.43659         63.3186 
