# k  (h/Mpc)    P(k)  (Mpc/h)^3    P_linear(k)  (Mpc/h)^3     P_NL(k)  ShotnoiseSubtracted = false
     0.00783031         11727.4         11770.1         11756.9 
       0.013688         15336.8         15730.7         15636.9 
       0.019231         16722.3         16990.2         16828.9 
      0.0249154         16639.9         16686.9         16489.2 
      0.0312784         15104.3         15350.4         15113.2 
      0.0375637           13386         13730.4         13481.5 
      0.0433917         12173.5         12358.3         12081.7 
      0.0492413         10975.4         11260.7         10979.1 
      0.0555754         10173.3         10386.8         10106.4 
      0.0619321         9230.46         9735.55         9445.58 
       0.067871         8842.31         9208.84         8922.63 
      0.0738098         8372.73         8665.18         8305.54 
      0.0800417         7755.05         8026.49         7678.37 
      0.0862327         7053.28         7331.52         7064.29 
      0.0921407         6432.82         6659.82         6410.05 
      0.0982031         5903.92         6021.84         5864.43 
       0.104506         5303.08         5463.42         5385.44 
       0.110769         4916.21         5035.18         4928.15 
       0.116806         4711.86         4732.15         4625.84 
       0.122832         4438.62         4507.14         4423.18 
       0.129052         4233.11         4315.35         4237.96 
       0.135211         4123.82         4127.76         4048.52 
       0.141259         3856.37         3921.83         3882.83 
       0.147318         3592.37         3687.93         3682.83 
       0.153489         3403.77         3431.61         3394.65 
       0.159709         3266.68          3175.3         3198.07 
       0.165845         2984.21         2945.15         3056.08 
       0.171974         2903.44         2751.82         2880.17 
       0.178125         2810.92         2598.67         2790.96 
       0.184229         2599.43          2482.2         2662.44 
        0.19034         2568.48         2389.76         2575.73 
       0.196428         2504.49         2308.16         2475.44 
       0.202534          2367.5          2224.9         2407.34 
       0.208729         2323.57         2131.54         2295.36 
       0.214876         2233.35         2028.75         2238.87 
       0.220989         2123.63         1920.54         2164.41 
       0.227147         2070.29          1812.5         2082.45 
        0.23329         1991.81         1712.74         2019.14 
       0.239377         1977.72         1626.71         1943.89 
       0.245482          1889.8         1554.85         1863.27 
       0.251667         1821.98         1495.22         1826.79 
       0.257832         1798.61         1445.11         1775.47 
       0.263955         1722.89         1399.86         1730.75 
       0.270079         1685.77         1354.82         1686.29 
        0.27624          1616.3         1307.12          1637.9 
       0.282372         1600.63         1256.55         1604.15 
        0.28843         1575.07          1204.7         1564.14 
       0.294538          1506.1         1152.76         1521.67 
       0.300721         1478.85         1102.96         1477.84 
        0.30691         1446.13         1057.83            1457 
       0.313033          1394.2         1018.57         1415.32 
       0.319153         1380.49         984.447          1379.5 
       0.325316         1364.36         953.987         1363.02 
        0.33145         1338.95         926.036         1318.43 
       0.337538         1297.98         899.069         1299.53 
       0.343633         1268.87         871.848         1285.53 
       0.349808         1247.71         843.596         1263.11 
       0.355968         1223.45         814.979         1242.18 
       0.362074         1190.59         786.855         1216.47 
       0.368217         1187.27         759.582         1186.25 
       0.374374         1169.61          734.02         1167.11 
       0.380519         1131.61         710.586         1145.67 
       0.386598         1127.23         689.496            1131 
       0.392688         1100.58         670.127         1107.49 
        0.39888         1078.44          651.69         1094.96 
       0.405048         1060.29         634.085         1081.09 
       0.411186         1055.25         616.861         1058.93 
       0.417313         1054.15         599.715         1044.45 
       0.423458         1021.38         582.619         1027.57 
       0.429607         994.605         565.721         1008.36 
       0.435692         987.696         549.466         991.231 
       0.441815         970.098          533.84           988.4 
       0.447964         959.673         519.026         973.634 
       0.454126         946.822         505.081         949.234 
       0.460267         936.033         492.057         948.605 
       0.466387         922.978         479.769         930.741 
        0.47254         905.668         467.903         920.597 
       0.478662         895.643          456.43         908.865 
       0.484765         887.991         445.241         897.113 
       0.490885          877.52         434.202         882.083 
       0.497035          863.16         423.301         874.688 
       0.503198         861.669         412.662         864.541 
       0.509342         846.527         402.422          850.77 
       0.515458         829.876         392.636         846.815 
       0.521598         827.497          383.23         838.349 
       0.527764           809.1         374.212         829.231 
       0.533884         802.629         365.659         820.047 
           0.54         795.772         357.436          811.34 
       0.546137         786.197         349.436         801.799 
       0.552299         781.192         341.602         790.919 
       0.558452         773.355          333.97          785.16 
       0.564573         766.119         326.565         778.062 
       0.570708         759.881         319.333         770.639 
       0.576825         744.644         312.319         759.849 
       0.582926         742.575         305.534          753.62 
       0.589034         734.019         298.966         742.344 
       0.595184         725.989         292.592         737.344 
       0.601379         714.782         286.405         731.562 
       0.607522         705.681         280.473         722.012 
       0.613639         704.507         274.741         719.022 
       0.619772         698.859         269.147         717.427 
       0.625918         688.838         263.681          708.23 
       0.632068         684.288          258.35         703.166 
       0.638161         675.308         253.208         691.287 
         0.6443         669.815         248.166          688.73 
       0.650464         664.446         243.245         678.775 
       0.656582         659.224         238.497         674.113 
       0.662703         650.798         233.879         670.494 
       0.668861         644.891         229.363         666.911 
       0.675024         640.209         224.968          662.57 
       0.681124         630.863          220.74         651.633 
       0.687237           630.1         216.617          646.71 
       0.693381         619.832         212.584         641.286 
       0.699536         618.978         208.649         637.026 
       0.705665         612.035          204.83          631.09 
       0.711789         610.377          201.11         625.691 
       0.717957          601.79         197.454         623.915 
        0.72409         596.711         193.908         618.415 
       0.730186         595.483          190.47         613.157 
       0.736317          587.51         187.097         607.197 
       0.742472          580.54         183.795         602.518 
       0.748622          577.75         180.577          597.89 
        0.75476         572.183         177.446         598.262 
       0.760888         568.933         174.396         590.846 
       0.767043         566.219         171.408           584.7 
       0.773185         562.465         168.499         581.285 
       0.779291          555.31         165.675         576.247 
       0.785407         551.574         162.912          573.03 
       0.791564         547.588         160.196         571.016 
       0.797719         539.919         157.544         565.045 
       0.803834         541.285          154.97         562.202 
       0.809972          533.76         152.444         559.259 
       0.816124          529.21         149.969         551.253 
       0.822261         526.006         147.557         548.688 
       0.828378         523.354         145.205         545.234 
       0.834502         515.542         142.903         543.516 
       0.840667         514.962         140.637         539.402 
       0.846816          509.09         138.428         535.462 
       0.852925         507.941          136.28         532.157 
       0.859047         503.302         134.174         527.402 
       0.865192         500.444         132.106         523.993 
       0.871341         493.926         130.081         521.521 
       0.877463         492.019         128.109         518.114 
       0.883569         487.032         126.182         514.503 
       0.889708         482.493         124.287         510.223 
       0.895864         478.415         122.425         507.644 
       0.902008         477.158         120.607          504.67 
       0.908149         473.122         118.826         500.092 
       0.914301         471.078          117.08          496.69 
       0.920448         465.517          115.37         493.875 
       0.926574         463.568         113.701         490.426 
       0.932687         461.417          112.07         487.426 
       0.938823          455.61         110.464         486.267 
       0.944975         453.431         108.887         482.367 
       0.951105         450.151         107.347         477.937 
       0.957225         443.617         105.839         476.886 
       0.963368         444.735         104.356         473.619 
       0.969511         437.239         102.901          470.16 
       0.975621         437.228         101.483         467.359 
       0.981748         434.058         100.087         463.976 
       0.987916         431.218         98.7098         463.027 
        0.99406         427.261         97.3637         459.581 
        1.00019         423.017         96.0456         454.472 
        1.00632         422.333         94.7534          452.35 
        1.01246         418.886         93.4834         449.644 
        1.01859         414.317          92.239         446.276 
        1.02471         412.274          91.019         445.034 
        1.03085         410.364         89.8172          443.54 
        1.03698         407.653         88.6398         440.979 
        1.04314         405.018         87.4789         437.946 
        1.04929         402.647         86.3416         434.376 
        1.05541         397.027         85.2294         431.535 
        1.06154         396.159         84.1342         428.997 
        1.06769         392.183         83.0569         426.085 
        1.07382         390.231         82.0021         423.886 
        1.07993         388.227         80.9683         421.825 
        1.08607         385.232         79.9482         418.579 
        1.09222         382.166         78.9449         416.009 
        1.09836         380.017         77.9602         414.985 
        1.10449         377.169         76.9936         412.128 
        1.11063         374.326         76.0425         408.852 
        1.11677         370.512          75.108          407.42 
         1.1229         369.616          74.191         405.061 
        1.12903         366.692         73.2887         402.859 
        1.13518         364.192         72.4008         400.246 
        1.14131         362.908         71.5283         397.936 
        1.14745         358.002         70.6709         395.728 
        1.15359         355.636         69.8274         393.921 
        1.15973          354.29         68.9975         391.577 
        1.16584         352.474          68.185         389.232 
        1.17197          349.63         67.3846         387.126 
        1.17811          346.04         66.5946         385.242 
        1.18424         344.375         65.8198         383.736 
        1.19038         342.538         65.0552         381.368 
        1.19652         338.708         64.3031         379.244 
        1.20267         338.104         63.5631         376.312 
        1.20881         336.086          62.835         374.641 
        1.21495         332.642         62.1196         372.184 
        1.22108         331.225         61.4155         369.974 
         1.2272         326.744         60.7241         367.572 
        1.23334         325.935         60.0419         365.446 
        1.23949         323.939         59.3687         364.309 
        1.24562          322.96         58.7077         362.494 
        1.25174         319.528         58.0579         360.491 
        1.25789         317.157          57.416         358.631 
        1.26402         315.944         56.7851         356.985 
        1.27014          314.22         56.1653         354.126 
        1.27628         310.972         55.5529         353.388 
        1.28244         309.229         54.9486         351.967 
        1.28858         307.547         54.3542         349.388 
        1.29471         305.927         53.7699         346.621 
        1.30084         304.123         53.1949         345.101 
        1.30697          300.92         52.6275         343.889 
        1.31312         298.912         52.0676         342.172 
        1.31925         297.511         51.5177         339.689 
        1.32537           295.8         50.9764         337.495 
        1.33151         293.133          50.441         336.367 
        1.33765         291.007         49.9137         334.621 
        1.34378         288.939          49.395         332.668 
        1.34992         286.615         48.8834         330.333 
        1.35606         285.242          48.378         328.686 
         1.3622         283.722         47.8808         327.366 
        1.36833         282.128         47.3918         326.234 
        1.37445         280.588         46.9099         323.476 
        1.38059         277.679         46.4333         322.684 
        1.38675         276.192         45.9623         321.559 
        1.39288         275.137         45.4997         318.271 
        1.39901          272.37         45.0437          316.88 
        1.40515         271.031          44.593         315.188 
         1.4113         268.866         44.1488         313.247 
        1.41742         266.377         43.7123         312.061 
        1.42355         266.607          43.281         310.252 
         1.4297         263.912         42.8542         308.701 
        1.43585         261.139         42.4334         307.917 
        1.44198          260.16         42.0199         305.579 
        1.44809         258.849         41.6128         304.648 
        1.45423         256.892         41.2096         302.024 
        1.46036         255.418         40.8125         300.637 
        1.46649         254.119         40.4206         299.639 
        1.47263         251.536         40.0335         297.866 
        1.47877          250.25         39.6518         295.995 
        1.48491         248.227         39.2744         294.464 
        1.49104         246.536         38.9028          292.95 
        1.49718          245.14         38.5358         292.002 
        1.50333         242.919         38.1729          290.94 
        1.50947         242.324         37.8156          289.43 
         1.5156         240.195         37.4633         287.497 
        1.52172         238.638         37.1156         285.504 
        1.52787         236.987         36.7716         284.483 
          1.534          236.49         36.4324         283.319 
        1.54013         234.153         36.0979         281.697 
        1.54627         233.023          35.767         280.352 
        1.55241         231.226         35.4402          279.22 
        1.55855         230.247          35.118          277.86 
        1.56467         228.403         34.8008         276.018 
         1.5708          227.03         34.4866         274.466 
        1.57695         225.622         34.1758          273.39 
        1.58308         224.288         33.8696         271.967 
        1.58922         222.522          33.567         270.459 
        1.59535         220.661         33.2682          269.52 
         1.6015          219.68         32.9727          268.12 
        1.60764         218.258         32.6809         266.342 
        1.61376         216.234         32.3935         265.136 
        1.61989         214.906         32.1094         264.008 
        1.62604         213.407          31.828         262.695 
        1.63218         212.258         31.5502           261.6 
        1.63831         211.703         31.2764         260.504 
        1.64444         209.584         31.0058         258.893 
        1.65059         208.849         30.7378         257.735 
        1.65673          206.85         30.4732         256.609 
        1.66285         205.927         30.2125         255.151 
        1.66898         204.677         29.9548         253.608 
        1.67512         202.893         29.6996         252.669 
        1.68127         201.995         29.4472         251.418 
         1.6874         200.565         29.1983         250.152 
        1.69353         199.421         28.9525         249.447 
        1.69967         198.023         28.7089         247.929 
        1.70581         197.005         28.4683         246.611 
        1.71193         195.487         28.2313         245.625 
        1.71806         194.003         27.9965         244.125 
        1.72421         193.081          27.764         243.134 
        1.73035         191.442         27.5344         241.952 
        1.73649         190.094         27.3075         240.512 
        1.74262          189.28         27.0833         239.928 
        1.74876         188.144         26.8616         238.805 
        1.75489         187.018         26.6427         237.418 
        1.76101         185.816         26.4264         236.437 
        1.76715         184.421         26.2123          235.47 
        1.77329         182.862         26.0002         234.319 
        1.77943         181.901         25.7904          233.06 
        1.78557         181.099         25.5833         231.861 
        1.79171         180.125         25.3784         230.875 
        1.79785         178.856         25.1758         229.844 
        1.80399         177.621         24.9754         228.619 
        1.81012         176.437         24.7775         227.871 
        1.81625         175.294         24.5818         226.896 
        1.82239         174.018         24.3879         225.509 
        1.82853         173.354         24.1963          224.49 
        1.83466          171.86         24.0069         223.382 
        1.84078         170.969         23.8198         222.249 
        1.84692         169.975         23.6343         221.577 
        1.85306         168.583         23.4507         220.468 
         1.8592         167.904         23.2692         219.264 
        1.86533         166.245         23.0898         218.716 
        1.87147         165.562         22.9121         217.937 
        1.87761         164.553         22.7363         216.769 
