# k  (h/Mpc)    Pcb(k)  (Mpc/h)^3    Pcb_linear(k) (Mpc/h)^3    Pcb_NL(k) (Mpc/h)^3   ShotnoiseSubtracted = false
     0.00783031         6960.86         6990.35         6985.44 
       0.013688         9158.98          9345.1         9301.22 
       0.019231         9978.21         10094.3         10019.9 
      0.0249154         9904.32         9914.58         9833.35 
      0.0312784         9028.96         9120.85         9033.03 
      0.0375637         8023.42          8158.4         8067.75 
      0.0433917         7287.28         7343.27         7244.99 
      0.0492413         6585.41          6691.1         6591.76 
      0.0555754         6109.12          6171.9         6071.75 
      0.0619321         5579.92         5784.94         5680.61 
       0.067871         5339.36         5471.99         5367.68 
      0.0738098         5045.15         5148.97         5017.29 
      0.0800417         4681.19         4769.46         4641.54 
      0.0862327         4257.27         4356.51         4258.99 
      0.0921407         3874.36         3957.38         3865.69 
      0.0982031         3542.62         3578.29          3522.5 
       0.104506         3182.25         3246.47         3220.61 
       0.110769         2944.92            2992         2952.58 
       0.116806         2816.38         2811.94            2773 
       0.122832         2649.75         2678.24         2648.25 
       0.129052         2538.77         2564.27         2535.76 
       0.135211         2461.87          2452.8         2424.97 
       0.141259         2309.73         2330.43         2316.79 
       0.147318         2147.24         2191.45         2193.95 
       0.153489         2026.57         2039.14         2025.79 
       0.159709         1924.71         1886.84         1897.69 
       0.165845         1755.52         1750.08         1798.34 
       0.171974         1702.77         1635.19         1687.62 
       0.178125         1633.53          1544.2          1623.8 
       0.184229         1520.01         1474.98         1551.95 
        0.19034         1493.59         1420.05         1497.95 
       0.196428         1451.48         1371.56         1437.02 
       0.202534         1367.76         1322.09         1393.88 
       0.208729         1342.84         1266.61         1331.11 
       0.214876         1291.84         1205.53         1293.62 
       0.220989          1211.8         1141.23         1241.91 
       0.227147         1182.89         1077.03         1184.99 
        0.23329         1136.41         1017.75         1145.04 
       0.239377         1115.15         966.629         1100.93 
       0.245482         1060.57         923.931         1051.32 
       0.251667         1021.21         888.493         1027.51 
       0.257832         1011.32         858.718         996.411 
       0.263955         962.017         831.832         967.883 
       0.270079         935.191         805.069         940.686 
        0.27624         896.811         776.724         910.685 
       0.282372         880.781         746.676          884.96 
        0.28843         873.266         715.863         856.413 
       0.294538         829.918         684.999         833.293 
       0.300721         805.764         655.407         810.278 
        0.30691          792.68          628.59         792.186 
       0.313033         760.508         605.261         766.639 
       0.319153         748.907         584.983         748.587 
       0.325316         736.141         566.882         736.469 
        0.33145          721.84         550.275         711.653 
       0.337538         697.448         534.249         696.805 
       0.343633         677.829         518.073          688.12 
       0.349808         662.517         501.288         674.169 
       0.355968         650.512         484.281         660.819 
       0.362074         631.818         467.569         644.692 
       0.368217         627.431         451.364         625.475 
       0.374374         616.132         436.173         613.806 
       0.380519         593.119         422.249         600.257 
       0.386598         586.475         409.716         591.025 
       0.392688         575.216         398.206         578.289 
        0.39888         560.159          387.25         568.731 
       0.405048         551.673         376.789         562.731 
       0.411186         548.648         366.555         548.348 
       0.417313           541.7         356.366          535.88 
       0.423458         526.104         346.206         527.574 
       0.429607           513.8         336.166         516.835 
       0.435692         505.351         326.507         507.772 
       0.441815         498.061         317.222         503.749 
       0.447964         487.399         308.418          494.26 
       0.454126         481.325         300.133         482.742 
       0.460267         474.256         292.392         479.953 
       0.466387         467.346         285.091         470.778 
        0.47254         460.713         278.039         464.916 
       0.478662         449.943         271.223         456.517 
       0.484765         445.852         264.573         447.163 
       0.490885         441.449         258.014         441.921 
       0.497035         433.804         251.536         437.322 
       0.503198          432.17         245.214         430.539 
       0.509342         421.276          239.13         425.622 
       0.515458         415.825         233.314         422.594 
       0.521598          408.52         227.725         414.559 
       0.527764         402.969         222.366          408.44 
       0.533884         402.156         217.284         403.985 
           0.54         395.485         212.397          398.87 
       0.546137         387.218         207.643         394.544 
       0.552299         386.636         202.989         388.762 
       0.558452         380.532         198.454         384.501 
       0.564573         376.636         194.053         381.206 
       0.570708         371.784         189.756         377.293 
       0.576825         365.508         185.588         370.452 
       0.582926         362.243         181.556         366.318 
       0.589034         357.803         177.654         362.374 
       0.595184         355.541         173.865         357.127 
       0.601379         349.104         170.189         355.611 
       0.607522         343.723         166.664         351.369 
       0.613639         341.537         163.258          347.74 
       0.619772         339.672         159.934         344.824 
       0.625918         335.276         156.686         341.631 
       0.632068         329.878         153.518         336.261 
       0.638161         326.731         150.463         334.155 
         0.6443         325.073         147.467         330.942 
       0.650464         319.963         144.543         325.609 
       0.656582         317.182         141.721         323.003 
       0.662703         315.006         138.977         321.143 
       0.668861         309.968         136.293         317.767 
       0.675024         308.623         133.682         314.308 
       0.681124         305.143         131.169         311.054 
       0.687237         302.113          128.72         307.903 
       0.693381         299.485         126.323         305.196 
       0.699536         295.969         123.984         302.929 
       0.705665         292.935         121.715         301.094 
       0.711789         290.878         119.505         297.203 
       0.717957         287.359         117.332         295.082 
        0.72409         285.144         115.225         293.579 
       0.730186         285.657         113.182          290.92 
       0.736317         280.764         111.178         287.625 
       0.742472         277.211         109.215         285.088 
       0.748622         273.775         107.303         282.315 
        0.75476         274.382         105.443         280.877 
       0.760888         271.124         103.631         277.534 
       0.767043          268.05         101.855         276.099 
       0.773185          266.27         100.126         274.206 
       0.779291         262.438         98.4481         271.568 
       0.785407         261.301         96.8067         269.147 
       0.791564         258.769         95.1929         267.421 
       0.797719         255.324         93.6169         265.834 
       0.803834         256.406          92.087         263.295 
       0.809972         254.013          90.586         261.408 
       0.816124         250.818         89.1155         259.481 
       0.822261         247.968         87.6819         257.439 
       0.828378         248.335         86.2846         254.865 
       0.834502         244.034         84.9169         253.898 
       0.840667         243.717         83.5704         252.295 
       0.846816         240.733         82.2572         249.949 
       0.852925         239.194          80.981         247.955 
       0.859047         236.613         79.7296         246.365 
       0.865192         236.344         78.5009         244.896 
       0.871341         233.124         77.2976         242.821 
       0.877463         231.266         76.1254          241.75 
       0.883569          230.93         74.9809         240.022 
       0.889708         229.037         73.8543         238.297 
       0.895864         226.988         72.7483         237.033 
       0.902008         224.973         71.6676         234.651 
       0.908149         222.817         70.6097         232.806 
       0.914301          222.35         69.5718         232.096 
       0.920448         220.996          68.556         229.965 
       0.926574         218.536         67.5643         227.954 
       0.932687         217.438         66.5946         226.283 
       0.938823         215.797         65.6407         225.708 
       0.944975         213.832         64.7035         224.662 
       0.951105         212.296         63.7882         222.805 
       0.957225          211.45         62.8924         221.169 
       0.963368         209.718          62.011         219.036 
       0.969511         207.173         61.1467         218.042 
       0.975621         206.157         60.3036         218.026 
       0.981748         204.578         59.4745          215.79 
       0.987916         203.586         58.6559         214.913 
        0.99406         202.149          57.856         213.562 
        1.00019         200.852         57.0728         211.705 
        1.00632         200.087          56.305         210.023 
        1.01246         198.331         55.5503         208.571 
        1.01859         196.538         54.8108         208.032 
        1.02471         195.125         54.0859         207.265 
        1.03085         194.158         53.3717         205.754 
        1.03698          192.55         52.6721         204.283 
        1.04314         191.939         51.9822         203.284 
        1.04929         190.866         51.3064         202.092 
        1.05541         189.423         50.6455         200.978 
        1.06154         188.312         49.9948         200.019 
        1.06769         186.351         49.3546         198.895 
        1.07382         185.722         48.7278         197.629 
        1.07993         184.459         48.1135         196.414 
        1.08607         182.802         47.5073         195.685 
        1.09222         182.071         46.9111         194.529 
        1.09836         180.642          46.326           193.3 
        1.10449         179.113         45.7516         192.025 
        1.11063         178.122         45.1864         190.657 
        1.11677           177.4         44.6311         189.886 
         1.1229         175.849         44.0862         189.002 
        1.12903         175.333         43.5501         187.872 
        1.13518         174.029         43.0225         186.854 
        1.14131         172.995          42.504          185.61 
        1.14745         171.472         41.9945         184.707 
        1.15359         169.885         41.4933         183.603 
        1.15973         169.421         41.0001          182.76 
        1.16584         168.573         40.5173         181.627 
        1.17197         167.589         40.0417         180.484 
        1.17811          166.04         39.5723         180.065 
        1.18424         165.135         39.1118         178.895 
        1.19038         164.418         38.6575         178.092 
        1.19652         162.955         38.2106          177.15 
        1.20267         162.128         37.7709         176.158 
        1.20881         161.038         37.3382         175.522 
        1.21495         160.664         36.9131         173.977 
        1.22108         159.168         36.4947         173.647 
         1.2272          158.09         36.0839         172.412 
        1.23334         157.596         35.6785         171.739 
        1.23949         156.966         35.2784         170.683 
        1.24562         155.503         34.8857         169.815 
        1.25174         154.121         34.4995         168.997 
        1.25789         153.841         34.1181         168.214 
        1.26402          153.04         33.7432         167.139 
        1.27014         151.986         33.3749         167.076 
        1.27628          150.25          33.011         166.429 
        1.28244          150.04         32.6519         164.705 
        1.28858         148.844         32.2987          163.89 
        1.29471         147.937         31.9515          163.46 
        1.30084         147.154         31.6098         162.494 
        1.30697         146.697         31.2726         161.616 
        1.31312         145.547         30.9399         160.625 
        1.31925         144.332         30.6132         159.947 
        1.32537         143.844         30.2915         159.226 
        1.33151         143.144         29.9734         158.455 
        1.33765         141.618           29.66         157.812 
        1.34378         141.741         29.3518         156.784 
        1.34992         140.931         29.0478         156.174 
        1.35606         139.781         28.7475         155.222 
         1.3622         139.385          28.452         154.574 
        1.36833         137.796         28.1614         153.727 
        1.37445         137.439         27.8751         152.814 
        1.38059          136.62         27.5919          152.43 
        1.38675         135.673          27.312         151.464 
        1.39288          134.95         27.0371         150.896 
        1.39901         133.784         26.7662         150.212 
        1.40515          133.57         26.4984         149.474 
         1.4113         132.781         26.2344         148.855 
        1.41742         131.748          25.975          148.29 
        1.42355         131.244         25.7187         147.415 
         1.4297         130.327         25.4651         146.642 
        1.43585         129.325          25.215         145.995 
        1.44198         128.549         24.9693         145.391 
        1.44809         127.666         24.7274         144.547 
        1.45423         127.249         24.4878         143.713 
        1.46036         126.273         24.2519         143.139 
        1.46649         125.546          24.019         142.724 
        1.47263         125.202          23.789         142.142 
        1.47877         124.162         23.5621         141.177 
        1.48491         123.342         23.3379         140.764 
        1.49104         122.212         23.1171         140.104 
        1.49718         122.288          22.899         139.057 
        1.50333         121.467         22.6834         138.677 
        1.50947         120.897          22.471         138.116 
         1.5156          120.08         22.2617         137.437 
        1.52172         119.322          22.055         137.021 
        1.52787         118.514         21.8506          136.05 
          1.534         118.214         21.6491         135.507 
        1.54013         117.462         21.4503         134.907 
        1.54627         116.477         21.2537          134.31 
        1.55241         115.869         21.0595         133.866 
        1.55855         115.329         20.8681         132.973 
        1.56467         114.324         20.6795          132.33 
         1.5708         114.044         20.4928         131.922 
        1.57695         113.481         20.3082         131.328 
        1.58308         112.768         20.1262          130.67 
        1.58922         112.389         19.9464         130.081 
        1.59535         111.765         19.7688          129.53 
         1.6015         110.996         19.5932         128.928 
        1.60764         110.222         19.4199         128.463 
        1.61376         109.546         19.2491         128.063 
        1.61989         108.932         19.0802         127.337 
        1.62604         108.377          18.913         126.646 
        1.63218         107.973          18.748         126.142 
        1.63831         107.076         18.5853         125.779 
        1.64444         106.568         18.4245         125.229 
        1.65059         105.885         18.2652         124.362 
        1.65673         105.178          18.108         123.946 
        1.66285         104.692         17.9531         123.594 
        1.66898         103.949         17.7999         122.869 
        1.67512         103.731         17.6483         122.474 
        1.68127          102.97         17.4983         121.904 
         1.6874         102.415         17.3504         121.158 
        1.69353         101.688         17.2043         120.644 
        1.69967         101.448         17.0596         120.252 
        1.70581         100.857         16.9166         119.669 
        1.71193         100.175         16.7758         119.108 
        1.71806         99.4015         16.6363         118.946 
        1.72421         98.9914         16.4981         118.332 
        1.73035         98.7029         16.3617         117.618 
        1.73649         97.9592         16.2268         117.173 
        1.74262         97.2086         16.0936         116.779 
        1.74876         96.8415         15.9618         116.234 
        1.75489         96.1355         15.8318         115.655 
        1.76101         95.5989         15.7033         115.125 
        1.76715         95.1785          15.576         114.541 
        1.77329         94.5352           15.45         114.166 
        1.77943         94.1275         15.3254         113.766 
        1.78557         93.7356         15.2023         113.102 
        1.79171         93.0772         15.0805         112.649 
        1.79785         92.4977         14.9601         112.311 
        1.80399         92.0349          14.841         111.799 
        1.81012         91.3986         14.7234          111.35 
        1.81625         91.1599         14.6071          110.87 
        1.82239         90.8383          14.492         110.356 
        1.82853         90.0192         14.3781         109.984 
        1.83466         89.4627         14.2655         109.481 
        1.84078          89.072         14.1543         108.953 
        1.84692          88.714         14.0441         108.744 
        1.85306          88.193          13.935         108.287 
         1.8592         87.7496         13.8272         107.679 
        1.86533          87.138         13.7206         107.272 
        1.87147         86.6167          13.615         106.604 
