# k  (h/Mpc)    P(k)  (Mpc/h)^3    P_linear(k)  (Mpc/h)^3     P_NL(k)  ShotnoiseSubtracted = false
     0.00783031         10999.7         11040.6           11029 
       0.013688         14397.7         14756.7         14671.6 
       0.019231           15697         15938.5         15792.3 
      0.0249154         15614.7         15654.2         15477.2 
      0.0312784         14182.2         14400.5         14190.4 
      0.0375637         12573.4         12880.8         12660.6 
      0.0433917         11432.9         11593.7         11349.4 
      0.0492413         10310.8         10563.9         10315.4 
      0.0555754          9558.9         9744.15         9496.27 
      0.0619321         8680.37         9133.19          8876.6 
       0.067871         8314.66         8639.07         8385.49 
      0.0738098         7870.53         8129.06         7810.25 
      0.0800417         7292.01         7529.89         7221.03 
      0.0862327         6631.76         6877.92         6640.95 
      0.0921407         6046.35         6247.78         6025.93 
      0.0982031         5546.35         5649.27         5509.94 
       0.104506         4981.64          5125.4         5056.66 
       0.110769         4616.99         4723.65          4628.1 
       0.116806         4424.17         4439.38         4344.57 
       0.122832         4166.36         4228.29         4153.58 
       0.129052          3976.3         4048.36         3979.15 
       0.135211         3871.37         3872.38         3801.98 
       0.141259         3621.66         3679.19         3644.18 
       0.147318         3372.03         3459.76         3455.95 
       0.153489         3193.42          3219.3         3185.95 
       0.159709         3060.61         2978.85         2999.15 
       0.165845          2794.8         2762.94         2862.88 
       0.171974         2718.95         2581.57         2696.36 
       0.178125         2629.06          2437.9         2610.55 
       0.184229         2432.59         2328.64         2490.97 
        0.19034         2402.01         2241.91         2409.04 
       0.196428         2341.09         2165.36         2314.31 
       0.202534         2211.28         2087.25         2249.93 
       0.208729         2171.06         1999.66         2145.39 
       0.214876         2086.79         1903.24         2092.09 
       0.220989          1980.3         1801.72         2020.54 
       0.227147         1931.11         1700.36          1941.7 
        0.23329         1857.77         1606.78         1882.25 
       0.239377         1842.26         1526.07         1811.83 
       0.245482         1758.97         1458.66         1735.62 
       0.251667         1695.63         1402.71         1701.14 
       0.257832         1674.84          1355.7         1652.66 
       0.263955          1602.5         1313.25         1610.12 
       0.270079         1566.33            1271         1568.44 
        0.27624         1501.99         1226.25         1522.87 
       0.282372         1485.78         1178.81         1489.49 
        0.28843         1464.02         1130.17         1450.77 
       0.294538         1398.11         1081.44          1411.7 
       0.300721          1370.9         1034.72          1371.2 
        0.30691         1342.08         992.386         1350.64 
       0.313033         1292.54          955.55          1311.3 
       0.319153         1278.88         923.542         1278.47 
       0.325316         1263.66         894.966         1262.46 
        0.33145         1240.24         868.744          1220.9 
       0.337538         1201.28         843.446         1202.46 
       0.343633         1173.46         817.909          1189.5 
       0.349808         1152.78         791.405         1168.24 
       0.355968         1131.13         764.558         1148.42 
       0.362074         1099.55         738.174         1124.09 
       0.368217         1096.29         712.588          1095.3 
       0.374374         1080.15         688.608         1077.41 
       0.380519          1044.1         666.624         1056.95 
       0.386598         1038.89         646.838         1043.56 
       0.392688         1015.45         628.668         1021.07 
        0.39888         993.478         611.371         1009.38 
       0.405048         977.182         594.855         997.112 
       0.411186         973.011         578.697         975.614 
       0.417313         970.882         562.612         961.086 
       0.423458         940.566         546.574         946.242 
       0.429607         915.621         530.721         927.829 
       0.435692         908.608         515.472         912.275 
       0.441815         892.801         500.813         908.859 
       0.447964             882         486.915         894.697 
       0.454126         870.452         473.833         872.711 
       0.460267         859.802         461.615         871.612 
       0.466387         848.051         450.087         855.181 
        0.47254         832.334         438.955         845.973 
       0.478662         822.088         428.192         834.382 
       0.484765         815.154         417.695         822.672 
       0.490885         805.672         407.339         809.498 
       0.497035         792.209         397.112         802.514 
       0.503198         790.835         387.132         792.663 
       0.509342         776.595         377.525         780.729 
       0.515458          761.58         368.345         776.951 
       0.521598         757.793          359.52          768.16 
       0.527764         741.689          351.06         759.505 
       0.533884         736.449         343.036         751.021 
           0.54         729.555         335.322         742.618 
       0.546137         719.869         327.817           733.8 
       0.552299         716.197         320.468         723.998 
       0.558452         708.315         313.308         718.527 
       0.564573         701.021         306.362         712.218 
       0.570708         695.793         299.577         705.771 
       0.576825         681.903         292.996         695.285 
       0.582926         679.539         286.632         689.095 
       0.589034         671.301          280.47         678.891 
       0.595184         664.479          274.49         674.065 
       0.601379          654.26         268.686         668.787 
       0.607522         645.433          263.12         660.411 
       0.613639         644.056         257.744         657.199 
       0.619772         639.635         252.496         655.802 
       0.625918         629.585         247.367         647.155 
       0.632068         625.464         242.367         641.882 
       0.638161         617.694         237.543         631.791 
         0.6443         612.512         232.813         629.303 
       0.650464         607.119         228.196         619.726 
       0.656582         602.224         223.742         615.246 
       0.662703          595.22          219.41         612.491 
       0.668861         589.427         215.173         608.702 
       0.675024         584.915          211.05         604.227 
       0.681124         576.991         207.083         594.486 
       0.687237         575.495         203.216          589.85 
       0.693381         566.783         199.432         585.167 
       0.699536         564.932          195.74         581.352 
       0.705665         558.974         192.158         575.896 
       0.711789         557.726         188.668         571.058 
       0.717957           549.3         185.238         568.959 
        0.72409         544.699         181.911         564.005 
       0.730186         544.562         178.686         559.406 
       0.736317          536.49         175.522         553.739 
       0.742472         530.434         172.424         549.227 
       0.748622         527.321         169.405         545.065 
        0.75476         522.899         166.468         545.283 
       0.760888         519.655         163.607         538.449 
       0.767043         516.753         160.804         533.469 
       0.773185         513.509         158.074         530.047 
       0.779291         506.686         155.425         525.457 
       0.785407         503.612         152.833         522.588 
       0.791564         499.736         150.285         520.153 
       0.797719         492.753         147.797         514.937 
       0.803834         494.667         145.382         512.453 
       0.809972         487.439         143.012         509.439 
       0.816124         482.971         140.691         502.206 
       0.822261         479.725         138.428         500.024 
       0.828378         477.501         136.222         496.761 
       0.834502          470.38         134.062         494.956 
       0.840667         470.135         131.936         491.195 
       0.846816         463.941         129.863          487.78 
       0.852925         463.436         127.849          484.66 
       0.859047          459.17         125.873         480.657 
       0.865192          456.87         123.933         477.464 
       0.871341         450.646         122.033         475.029 
       0.877463         448.073         120.183         471.853 
       0.883569         444.111         118.376         468.809 
       0.889708         440.173         116.597         464.886 
       0.895864         436.763         114.851         462.468 
       0.902008          435.18         113.145         459.668 
       0.908149         431.619         111.475         455.462 
       0.914301         429.575         109.836         452.635 
       0.920448         425.106         108.233         449.514 
       0.926574         423.086         106.667          446.63 
       0.932687         420.594         105.136         443.626 
       0.938823         415.669          103.63         442.855 
       0.944975         413.907          102.15         439.322 
       0.951105         410.746         100.705         435.435 
       0.957225         404.859         99.2912         434.074 
       0.963368         405.777         97.8997         431.089 
       0.969511         398.694         96.5351         427.928 
       0.975621         399.111         95.2042         425.753 
       0.981748         396.044         93.8952         422.711 
       0.987916         393.385         92.6029         421.513 
        0.99406         389.888           91.34         418.581 
        1.00019         386.024         90.1035             414 
        1.00632         385.878         88.8913          412.02 
        1.01246         382.532         87.6998         409.481 
        1.01859         377.985         86.5324         406.553 
        1.02471          375.89         85.3879         405.362 
        1.03085         374.817         84.2604         403.808 
        1.03698         371.875         83.1559         401.546 
        1.04314           370.3         82.0667          398.66 
        1.04929          367.54         80.9999         395.566 
        1.05541         362.676         79.9565         393.085 
        1.06154         361.704         78.9291         390.819 
        1.06769         357.988         77.9184         388.289 
        1.07382          356.83         76.9289         386.073 
        1.07993         354.188          75.959          384.33 
        1.08607          351.58          75.002         381.394 
        1.09222         349.126         74.0608         379.048 
        1.09836         347.316          73.137         378.111 
        1.10449         344.895         72.2302         375.438 
        1.11063         341.655         71.3379         372.758 
        1.11677         338.609         70.4613         371.092 
         1.1229         337.679          69.601         369.246 
        1.12903         335.361         68.7545         367.263 
        1.13518         332.685         67.9216         364.802 
        1.14131         331.775         67.1031         362.845 
        1.14745         327.032         66.2986          360.78 
        1.15359         324.942         65.5074         358.928 
        1.15973         323.838         64.7288         356.887 
        1.16584         322.157         63.9666         354.413 
        1.17197         319.478         63.2156          352.81 
        1.17811         316.434         62.4746         351.262 
        1.18424         314.704         61.7477         349.772 
        1.19038         313.092         61.0304         347.688 
        1.19652         309.527         60.3249         345.826 
        1.20267         309.242         59.6306         342.935 
        1.20881         306.964         58.9476         341.718 
        1.21495         304.698         58.2764         339.318 
        1.22108         302.825         57.6159         337.221 
         1.2272         299.032         56.9673         334.924 
        1.23334          298.16         56.3273         333.235 
        1.23949         296.693         55.6957         332.401 
        1.24562         295.117         55.0756         330.559 
        1.25174         292.436          54.466         328.865 
        1.25789         290.134         53.8638         327.102 
        1.26402         289.464          53.272         325.475 
        1.27014         287.719         52.6905         323.228 
        1.27628           284.6          52.116         322.393 
        1.28244         283.382         51.5491          320.93 
        1.28858         281.533         50.9914         318.696 
        1.29471         280.135         50.4433         316.074 
        1.30084         278.437         49.9038         314.779 
        1.30697         275.463         49.3715         313.757 
        1.31312         273.661         48.8463         311.991 
        1.31925         272.398         48.3304         309.717 
        1.32537         270.986         47.8226         308.006 
        1.33151         268.559         47.3203         306.863 
        1.33765         266.745         46.8256         305.107 
        1.34378          264.88         46.3391         303.578 
        1.34992         262.793         45.8591         301.411 
        1.35606         261.673          45.385          299.81 
         1.3622         260.067         44.9185         298.561 
        1.36833         258.231         44.4598         297.587 
        1.37445         257.095         44.0077         295.023 
        1.38059         254.725         43.5606         294.303 
        1.38675         253.158         43.1187         293.203 
        1.39288         252.033         42.6847         290.142 
        1.39901         249.683          42.257          289.19 
        1.40515          248.49         41.8342         287.792 
         1.4113         246.471         41.4174         285.863 
        1.41742         244.295         41.0079         284.656 
        1.42355         244.725         40.6033         283.209 
         1.4297          242.07         40.2029         281.811 
        1.43585         239.867         39.8082         280.881 
        1.44198         238.536         39.4203         278.851 
        1.44809         237.431         39.0383         277.895 
        1.45423         235.868         38.6601          275.68 
        1.46036          234.36         38.2876         274.365 
        1.46649         233.231         37.9199          273.57 
        1.47263         231.249         37.5568         272.247 
        1.47877         229.809         37.1986         270.349 
        1.48491         227.856         36.8446         268.953 
        1.49104         226.311          36.496         267.725 
        1.49718         224.995         36.1517         266.537 
        1.50333          223.11         35.8113          265.58 
        1.50947         222.517          35.476         264.369 
         1.5156         220.765         35.1455         262.612 
        1.52172         219.282         34.8193         260.745 
        1.52787         217.845         34.4966         259.896 
          1.534         217.223         34.1784         258.714 
        1.54013         215.324         33.8646          257.28 
        1.54627         214.203         33.5542         256.157 
        1.55241         212.614         33.2476         254.982 
        1.55855          211.83         32.9454           253.6 
        1.56467         210.015         32.6477         252.171 
         1.5708         208.568          32.353         250.899 
        1.57695         207.463         32.0614         249.838 
        1.58308         206.013         31.7742         248.612 
        1.58922         204.663         31.4903         247.238 
        1.59535         202.834           31.21         246.222 
         1.6015         201.981         30.9327         244.856 
        1.60764         200.812          30.659         243.354 
        1.61376         198.903         30.3894         242.385 
        1.61989         197.694         30.1228         241.369 
        1.62604         196.347         29.8589          240.21 
        1.63218         195.428         29.5983         239.191 
        1.63831         194.764         29.3414         238.109 
        1.64444         192.956         29.0875         236.687 
        1.65059         192.224         28.8361          235.71 
        1.65673         190.386         28.5879         234.578 
        1.66285         189.559         28.3433         233.214 
        1.66898         188.413         28.1016         231.972 
        1.67512         186.899         27.8622         231.018 
        1.68127         185.902         27.6254         229.957 
         1.6874         184.727         27.3919         228.966 
        1.69353         183.722         27.1613         228.215 
        1.69967         182.295         26.9328          226.81 
        1.70581         181.573          26.707         225.602 
        1.71193         179.995         26.4847         224.641 
        1.71806         178.833         26.2645         223.243 
        1.72421         177.945         26.0463         222.419 
        1.73035         176.529         25.8309         221.423 
        1.73649         175.308         25.6181         220.102 
        1.74262          174.46         25.4078         219.505 
        1.74876         173.477         25.1997         218.542 
        1.75489         172.427         24.9944         217.322 
        1.76101         171.082         24.7915         216.342 
        1.76715         170.009         24.5906         215.403 
        1.77329         168.862         24.3916         214.298 
        1.77943         167.707         24.1948         213.141 
        1.78557         167.081         24.0005         212.129 
        1.79171          165.99         23.8083         211.271 
        1.79785         164.984         23.6182         210.336 
        1.80399         163.818         23.4302         209.222 
        1.81012         162.567         23.2445         208.436 
        1.81625         161.907          23.061         207.602 
        1.82239         160.464         22.8791         206.515 
        1.82853          159.88         22.6993         205.533 
        1.83466         158.537         22.5217         204.451 
        1.84078         157.857         22.3461         203.419 
        1.84692         156.887         22.1721         202.777 
        1.85306         155.534         21.9998         201.776 
         1.8592         155.039         21.8296         200.723 
        1.86533         153.451         21.6613         200.232 
        1.87147         152.893         21.4946          199.51 
        1.87761           151.8         21.3296         198.431 
