# k  (h/Mpc)    Pcb(k)  (Mpc/h)^3    Pcb_linear(k) (Mpc/h)^3    Pcb_NL(k) (Mpc/h)^3   ShotnoiseSubtracted = false
     0.00783031         8421.43         8455.38         8448.42 
       0.013688         11059.1         11303.1         11245.7 
       0.019231           12052         12208.9         12111.1 
      0.0249154         11973.1         11991.4         11879.7 
      0.0312784         10899.8         11031.3         10905.3 
      0.0375637         9677.38         9867.22          9736.2 
      0.0433917         8793.76         8881.32         8737.63 
      0.0492413         7940.46         8092.53         7946.82 
      0.0555754            7365         7464.57         7318.34 
      0.0619321         6711.64         6996.56          6844.6 
       0.067871         6425.41         6618.05         6466.91 
      0.0738098          6075.2         6227.36         6036.92 
      0.0800417         5634.28         5768.37         5583.46 
      0.0862327         5123.63         5268.92         5127.53 
      0.0921407         4665.78          4786.2         4653.29 
      0.0982031         4271.45         4327.71         4245.65 
       0.104506         3836.45         3926.39         3887.09 
       0.110769         3552.23         3618.63         3560.99 
       0.116806         3400.27         3400.86         3343.87 
       0.122832         3199.51         3239.15         3194.74 
       0.129052         3061.42         3101.32         3059.49 
       0.135211         2973.41         2966.51         2925.02 
       0.141259         2786.29         2818.51         2797.76 
       0.147318         2590.97         2650.41          2651.1 
       0.153489         2448.65         2466.21         2446.06 
       0.159709         2333.78            2282         2295.66 
       0.165845         2128.98          2116.6         2181.68 
       0.171974         2068.43         1977.65         2049.96 
       0.178125         1990.28          1867.6         1977.33 
       0.184229         1847.28          1783.9         1888.73 
        0.19034         1818.75         1717.46         1824.32 
       0.196428         1769.46         1658.82         1750.63 
       0.202534         1667.95         1598.98         1699.59 
       0.208729         1638.41         1531.88         1621.85 
       0.214876         1575.53         1458.01         1578.81 
       0.220989         1483.84         1380.24         1519.12 
       0.227147         1448.37         1302.59         1453.24 
        0.23329          1392.4         1230.91         1406.48 
       0.239377         1372.47         1169.07         1353.02 
       0.245482         1306.91         1117.43         1293.36 
       0.251667         1259.14         1074.57         1265.72 
       0.257832         1245.98         1038.56         1228.08 
       0.263955          1187.5         1006.04         1194.12 
       0.270079         1156.34         973.676         1161.75 
        0.27624         1109.08         939.395         1126.07 
       0.282372          1092.3         903.054         1096.49 
        0.28843          1081.1         865.788         1063.51 
       0.294538         1028.54          828.46         1035.24 
       0.300721         1002.65         792.671         1006.39 
        0.30691         985.078         760.237         986.989 
       0.313033         945.926         732.022         956.228 
       0.319153          933.06         707.497         933.244 
       0.325316           919.8         685.606         919.407 
        0.33145         902.624          665.52         888.615 
       0.337538          872.32         646.138         872.144 
       0.343633         849.416         626.575         862.242 
       0.349808          831.63         606.274          845.54 
       0.355968         816.989         585.705         829.725 
       0.362074         792.725         565.493         810.513 
       0.368217         789.063         545.894         787.464 
       0.374374         776.346         527.521         773.587 
       0.380519         748.342         510.682         757.382 
       0.386598         741.604         495.523         747.069 
       0.392688         727.165         481.604         730.304 
        0.39888         708.519         468.353         720.331 
       0.405048         697.703         455.701         712.661 
       0.411186         694.688         443.323         694.866 
       0.417313         689.024             431         681.115 
       0.423458         668.156         418.713         671.152 
       0.429607         651.246          406.57         657.251 
       0.435692         642.877         394.888         646.145 
       0.441815         633.082         383.658         641.848 
       0.447964         621.798         373.011         630.541 
       0.454126         614.391         362.991         615.894 
       0.460267         605.169         353.629         613.459 
       0.466387         596.984         344.798         601.798 
        0.47254         587.309          336.27         595.048 
       0.478662          576.16         328.025         584.883 
       0.484765         571.295         319.983         574.144 
       0.490885         565.497         312.051         566.705 
       0.497035         555.167         304.216         561.256 
       0.503198         554.377          296.57          553.03 
       0.509342             542         289.211         546.449 
       0.515458         533.302         282.178         543.014 
       0.521598          526.26         275.418         533.953 
       0.527764         517.638         268.937         527.002 
       0.533884         515.788          262.79         521.174 
           0.54         508.937          256.88         514.618 
       0.546137         499.506         251.131          508.75 
       0.552299         498.794         245.501         502.015 
       0.558452         491.527         240.016         497.269 
       0.564573         485.874         234.694         493.032 
       0.570708         481.553         229.497         488.682 
       0.576825         472.656         224.456         480.142 
       0.582926         469.449          219.58         475.013 
       0.589034         463.413          214.86         469.057 
       0.595184         460.004         210.278         463.679 
       0.601379         452.448         205.832         460.827 
       0.607522         445.564         201.569         455.762 
       0.613639         443.444          197.45         451.799 
       0.619772         441.411         193.429         449.701 
       0.625918         434.532         189.501         444.443 
       0.632068         429.641          185.67         438.552 
       0.638161         425.443         181.974         434.409 
         0.6443         422.405         178.351         431.381 
       0.650464         416.894         174.814         424.416 
       0.656582         413.056         171.402         420.847 
       0.662703         409.959         168.083          419.48 
       0.668861         404.436         164.838         415.444 
       0.675024          401.53         161.679         411.481 
       0.681124         397.478          158.64         405.902 
       0.687237          394.25         155.678         402.399 
       0.693381         390.181         152.779         399.181 
       0.699536          386.41         149.951         396.568 
       0.705665         382.614         147.207         393.377 
       0.711789         381.159         144.533         389.527 
       0.717957         375.659         141.905         387.039 
        0.72409         372.499         139.357         384.343 
       0.730186         373.954         136.886         381.192 
       0.736317         367.224         134.462         377.012 
       0.742472         363.063         132.089         373.613 
       0.748622         359.305         129.776         370.446 
        0.75476         358.839         127.526         369.568 
       0.760888         355.079         125.334         365.112 
       0.767043         351.942         123.187         362.902 
       0.773185         350.194         121.096          360.08 
       0.779291          344.62         119.066          356.73 
       0.785407          343.61         117.081         354.374 
       0.791564         339.967         115.129         351.964 
       0.797719         335.156         113.223         349.472 
       0.803834         337.678         111.373         347.043 
       0.809972         332.982         109.558          344.45 
       0.816124         329.224         107.779         340.983 
       0.822261         325.733         106.045         338.949 
       0.828378         325.785         104.355         336.227 
       0.834502         320.631         102.701         334.666 
       0.840667         320.419         101.073         332.214 
       0.846816         315.628         99.4845         329.924 
       0.852925         314.877          97.941         327.289 
       0.859047         311.489         96.4275         325.145 
       0.865192         311.342         94.9415         323.147 
       0.871341         306.887         93.4862         320.788 
       0.877463         303.974         92.0685         318.982 
       0.883569         303.039         90.6842         317.071 
       0.889708         300.499         89.3217         314.394 
       0.895864         298.299         87.9841         312.649 
       0.902008         296.011          86.677         310.163 
       0.908149         293.642         85.3977         307.505 
       0.914301         292.122         84.1424         306.362 
       0.920448         290.387         82.9138         303.317 
       0.926574         288.135         81.7144         301.487 
       0.932687         285.971         80.5416             299 
       0.938823         283.636         79.3879         298.601 
       0.944975         281.939         78.2545         297.019 
       0.951105         279.554         77.1475         294.684 
       0.957225         277.234         76.0641         292.492 
       0.963368         276.493         74.9981         290.062 
       0.969511         272.044         73.9527         288.457 
       0.975621         271.455         72.9331         287.874 
       0.981748         269.612         71.9304         285.553 
       0.987916         268.211         70.9404         284.196 
        0.99406          265.83         69.9729         282.589 
        1.00019         264.142         69.0257         280.014 
        1.00632         263.494          68.097         277.858 
        1.01246         261.312         67.1843         276.139 
        1.01859         258.296         66.2899         275.113 
        1.02471         256.364         65.4132         273.963 
        1.03085         255.775         64.5494          272.19 
        1.03698         253.516         63.7033         270.757 
        1.04314         253.104         62.8689          268.91 
        1.04929         251.085         62.0516         266.948 
        1.05541         248.902         61.2523         265.492 
        1.06154          247.33         60.4652         264.091 
        1.06769         244.838          59.691         262.738 
        1.07382         244.804         58.9329         260.897 
        1.07993         242.089           58.19         259.574 
        1.08607         240.097         57.4569         258.426 
        1.09222         239.146         56.7358         256.775 
        1.09836          237.83         56.0281         255.787 
        1.10449         235.564         55.3334         253.952 
        1.11063          234.01         54.6499         252.324 
        1.11677         233.139         53.9783         250.941 
         1.1229         231.075         53.3193         249.812 
        1.12903         230.418         52.6708         248.562 
        1.13518         228.587         52.0327         246.974 
        1.14131         227.512         51.4057         245.579 
        1.14745         224.897         50.7894          244.26 
        1.15359         222.969         50.1833         242.823 
        1.15973         222.592         49.5869          241.29 
        1.16584         221.685         49.0029         239.521 
        1.17197         219.965         48.4277         238.435 
        1.17811         217.898         47.8599         237.785 
        1.18424         216.703         47.3031         236.321 
        1.19038         215.348         46.7536         235.088 
        1.19652         213.386         46.2131         234.241 
        1.20267         212.722         45.6813         232.436 
        1.20881         210.991          45.158         231.754 
        1.21495         210.494         44.6438         229.679 
        1.22108         208.708         44.1378         229.081 
         1.2272         207.024          43.641         227.137 
        1.23334         206.235         43.1507         226.385 
        1.23949         205.503         42.6668         225.664 
        1.24562         203.805         42.1918         223.964 
        1.25174         202.176         41.7248         223.211 
        1.25789         200.857         41.2635         221.906 
        1.26402          200.46         40.8101         220.372 
        1.27014         199.091         40.3646          220.05 
        1.27628         196.722         39.9245         219.176 
        1.28244         196.206         39.4902         217.318 
        1.28858          194.93          39.063         216.176 
        1.29471         193.821         38.6431         215.214 
        1.30084          192.53         38.2299         214.106 
        1.30697         191.348         37.8221         213.054 
        1.31312         190.048         37.4197         211.481 
        1.31925         188.621         37.0245          210.48 
        1.32537         188.146         36.6355         209.792 
        1.33151         186.684         36.2507          208.69 
        1.33765         184.966         35.8717         207.548 
        1.34378         184.647          35.499         206.336 
        1.34992         183.613         35.1313         205.361 
        1.35606         182.293         34.7681          204.05 
         1.3622         181.597         34.4108         203.151 
        1.36833         179.479         34.0593         202.178 
        1.37445         179.293          33.713         200.879 
        1.38059         177.765         33.3705         200.309 
        1.38675         176.785          33.032         199.167 
        1.39288          175.59         32.6995          197.87 
        1.39901         174.502         32.3718         197.304 
        1.40515         173.629         32.0479         196.485 
         1.4113         172.612         31.7287         195.346 
        1.41742         171.118          31.415         194.517 
        1.42355         171.097          31.105         193.904 
         1.4297         169.444         30.7983         192.638 
        1.43585         168.306         30.4959         191.598 
        1.44198         166.776         30.1987         190.678 
        1.44809          165.79         29.9061         189.666 
        1.45423         165.506         29.6164          188.71 
        1.46036         164.237          29.331         187.822 
        1.46649         163.092         29.0493         187.179 
        1.47263         162.532         28.7711         186.557 
        1.47877         161.198         28.4968         185.404 
        1.48491         160.022         28.2256         184.481 
        1.49104         158.357         27.9585         183.794 
        1.49718         158.409         27.6947         182.328 
        1.50333          157.42          27.434         181.649 
        1.50947         156.432         27.1771         180.931 
         1.5156          155.31          26.924         180.002 
        1.52172         154.421         26.6741         179.335 
        1.52787          153.65         26.4268         178.272 
          1.534         152.829         26.1831         177.356 
        1.54013         151.874         25.9427         176.651 
        1.54627         150.836         25.7049          175.91 
        1.55241         149.925           25.47         175.063 
        1.55855         149.159         25.2385         174.026 
        1.56467         147.947         25.0105         173.156 
         1.5708         147.179         24.7847         172.745 
        1.57695         146.507         24.5613         171.923 
        1.58308         145.535         24.3413         170.757 
        1.58922         144.958         24.1238         170.038 
        1.59535         144.175         23.9091         169.307 
         1.6015         142.507         23.6967          168.48 
        1.60764         141.848          23.487         167.715 
        1.61376         141.099         23.2804         167.095 
        1.61989         140.412         23.0762         166.407 
        1.62604         139.482          22.874         165.477 
        1.63218          138.86         22.6744         164.664 
        1.63831         137.711         22.4776         163.999 
        1.64444         136.945         22.2831         163.143 
        1.65059         136.034         22.0905         162.451 
        1.65673         135.496         21.9004         161.698 
        1.66285         134.999          21.713         160.959 
        1.66898         133.629         21.5278         160.346 
        1.67512         133.165         21.3444         159.635 
        1.68127         132.099          21.163         158.851 
         1.6874         131.428         20.9841         158.154 
        1.69353         130.532         20.8075         157.557 
        1.69967         129.912         20.6324         156.674 
        1.70581         129.386         20.4595         155.895 
        1.71193         128.297         20.2892         155.267 
        1.71806         127.526         20.1204         154.472 
        1.72421         126.863         19.9533         153.807 
        1.73035         126.193         19.7883         153.126 
        1.73649         125.195         19.6252         152.403 
        1.74262         124.689         19.4641         151.872 
        1.74876         123.723         19.3048         151.113 
        1.75489         123.199         19.1475         150.264 
        1.76101         122.462          18.992         149.567 
        1.76715          121.41         18.8381         148.918 
        1.77329         121.058         18.6857         148.312 
        1.77943         119.983          18.535         147.721 
        1.78557         119.521         18.3861         147.121 
        1.79171         118.883         18.2389         146.562 
        1.79785         117.912         18.0932          145.95 
        1.80399         117.532         17.9492         145.199 
        1.81012         116.553          17.807         144.478 
        1.81625         116.094         17.6663          143.89 
        1.82239           115.5          17.527         143.329 
        1.82853         114.882         17.3893         142.651 
        1.83466          113.84         17.2532         141.933 
        1.84078         113.238         17.1187         141.331 
        1.84692         112.959         16.9854         140.913 
        1.85306         112.103         16.8534         140.251 
         1.8592         111.579          16.723         139.579 
        1.86533         110.699         16.5941         139.123 
        1.87147          110.11         16.4664          138.21 
