# k  (h/Mpc)    Pcb(k)  (Mpc/h)^3    Pcb_linear(k) (Mpc/h)^3    Pcb_NL(k) (Mpc/h)^3   ShotnoiseSubtracted = false
     0.00783031         5561.53         5586.41         5583.05 
       0.013688         7332.69         7468.51         7436.11 
       0.019231         7985.71         8067.42          8012.9 
      0.0249154         7918.98         7923.91         7867.55 
      0.0312784         7229.31         7289.61         7232.09 
      0.0375637         6430.13         6520.44         6461.77 
      0.0433917         5836.77         5868.98         5806.49 
      0.0492413         5279.19         5347.76         5284.91 
      0.0555754         4897.52         4932.81         4869.04 
      0.0619321          4484.5         4623.55         4556.95 
       0.067871         4288.44         4373.43         4306.35 
      0.0738098         4049.57         4115.26         4030.36 
      0.0800417         3758.86         3811.94         3729.49 
      0.0862327          3419.1          3481.9         3419.31 
      0.0921407         3109.71          3162.9         3104.18 
      0.0982031         2839.87         2859.92         2824.92 
       0.104506         2551.66         2594.71         2579.34 
       0.110769         2360.08         2391.33         2366.62 
       0.116806         2254.37         2247.42         2223.02 
       0.122832         2121.51         2140.56         2122.14 
       0.129052         2035.06         2049.48         2031.78 
       0.135211         1969.84         1960.39         1943.42 
       0.141259         1850.61         1862.58         1854.61 
       0.147318         1720.69          1751.5         1754.94 
       0.153489         1621.66         1629.77         1621.96 
       0.159709         1534.39         1508.04         1516.46 
       0.165845         1399.79         1398.74         1432.63 
       0.171974          1354.5         1306.92         1342.88 
       0.178125         1295.31         1234.19         1288.58 
       0.184229            1209         1178.87         1232.21 
        0.19034         1185.49         1134.97         1188.47 
       0.196428         1150.61         1096.22         1140.22 
       0.202534         1084.68         1056.67         1105.01 
       0.208729         1063.65         1012.33          1056.1 
       0.214876         1023.65         963.516         1024.08 
       0.220989         956.882         912.122         980.857 
       0.227147          933.52         860.809         933.591 
        0.23329         895.984         813.434         900.176 
       0.239377          874.76         772.573         864.845 
       0.245482         831.178         738.447         825.238 
       0.251667         799.702         710.124         805.178 
       0.257832         792.031         686.326         780.407 
       0.263955         752.523         664.837         757.376 
       0.270079         730.615         643.447         735.256 
        0.27624          700.44         620.793         710.903 
       0.282372         685.845         596.777         689.721 
        0.28843         680.321          572.15          666.22 
       0.294538         646.554         547.482         647.486 
       0.300721         624.937         523.831         629.395 
        0.30691         615.026         502.397         613.265 
       0.313033          589.95         483.751         592.887 
       0.319153         580.141         467.544         579.089 
       0.325316         567.756         453.078         568.814 
        0.33145         555.933         439.804         549.654 
       0.337538         537.492         426.996         536.935 
       0.343633         521.656         414.067         529.137 
       0.349808         509.029         400.652         517.842 
       0.355968         499.038         387.059         507.063 
       0.362074         485.865         373.702          493.98 
       0.368217         480.609          360.75         478.605 
       0.374374         471.047         348.609         469.154 
       0.380519         452.834          337.48         458.168 
       0.386598         446.655         327.463         449.981 
       0.392688         437.655         318.264         440.922 
        0.39888         426.689         309.508         431.959 
       0.405048         419.891         301.147         426.999 
       0.411186         416.658         292.967         416.497 
       0.417313         409.474         284.824         405.846 
       0.423458         398.401         276.703          398.96 
       0.429607         390.028         268.679         391.045 
       0.435692         382.673         260.959         383.895 
       0.441815         376.658         253.538         380.348 
       0.447964         367.406         246.502         372.551 
       0.454126         362.188          239.88         363.709 
       0.460267         357.636         233.693         360.875 
       0.466387         351.731         227.858         353.841 
        0.47254         347.326         222.222         348.824 
       0.478662         337.857         216.773         342.419 
       0.484765         334.379         211.459         334.889 
       0.490885         330.564         206.217         331.078 
       0.497035         325.971         201.039         327.332 
       0.503198         322.831         195.986         321.998 
       0.509342         314.328         191.123         318.052 
       0.515458         311.139         186.475         315.568 
       0.521598         304.557         182.008         309.042 
       0.527764         301.007         177.725         303.719 
       0.533884         300.612         173.663         300.344 
           0.54         294.279         169.758         296.532 
       0.546137         287.872         165.958         293.434 
       0.552299         286.713         162.238         288.448 
       0.558452         281.939         158.613         284.764 
       0.564573         279.767         155.096          282.34 
       0.570708         274.621         151.661         278.777 
       0.576825          270.57          148.33         273.789 
       0.582926         267.797         145.108         270.552 
       0.589034         264.586         141.989         267.966 
       0.595184         262.798         138.961         263.763 
       0.601379          257.32         136.023         262.697 
       0.607522         253.511         133.206         258.781 
       0.613639         251.549         130.483         256.094 
       0.619772         249.462         127.827         252.856 
       0.625918         247.124          125.23         250.999 
       0.632068         242.074         122.699         246.827 
       0.638161         239.454         120.257         245.548 
         0.6443         238.626         117.862         242.539 
       0.650464         234.529         115.525           238.5 
       0.656582         232.992          113.27         236.863 
       0.662703         230.989         111.077         234.448 
       0.668861         226.817         108.932         232.131 
       0.675024          226.57         106.845          229.25 
       0.681124         223.371         104.837         227.371 
       0.687237         220.479         102.878         224.654 
       0.693381         219.196         100.963         222.458 
       0.699536          216.39          99.094         220.782 
       0.705665         213.711         97.2805         219.617 
       0.711789         211.571         95.5135         216.018 
       0.717957         209.411         93.7772         214.441 
        0.72409         208.139         92.0931         213.639 
       0.730186         207.518         90.4603         211.346 
       0.736317         204.072         88.8584         208.844 
       0.742472         201.582         87.2899         207.064 
       0.748622         198.755         85.7618         204.865 
        0.75476         199.116         84.2747         203.212 
       0.760888         197.172         82.8263          200.87 
       0.767043         194.367         81.4073         199.907 
       0.773185         192.401         80.0254         198.707 
       0.779291         190.265         78.6842         196.758 
       0.785407         188.691         77.3723         194.492 
       0.791564         187.578         76.0825         193.261 
       0.797719         185.436         74.8229         192.065 
       0.803834         184.943         73.6001         189.762 
       0.809972         183.979         72.4004         188.504 
       0.816124          181.58         71.2251         187.438 
       0.822261         179.506         70.0794         185.669 
       0.828378         179.517         68.9625         183.451 
       0.834502         176.263         67.8694         182.988 
       0.840667         175.832         66.7932         182.041 
       0.846816         174.278         65.7437         179.963 
       0.852925         172.616         64.7237         178.486 
       0.859047         171.037         63.7235         177.114 
       0.865192             170         62.7415         176.217 
       0.871341             168         61.7798         174.501 
       0.877463         167.001         60.8429          173.81 
       0.883569         166.642         59.9281         172.335 
       0.889708         165.349         59.0277         171.242 
       0.895864         163.632         58.1437         170.221 
       0.902008         162.371           57.28         168.478 
       0.908149         160.376         56.4345         167.245 
       0.914301         160.511          55.605         166.645 
       0.920448          159.31         54.7931         165.316 
       0.926574         157.063         54.0005         163.387 
       0.932687         156.581         53.2254         162.405 
       0.938823         155.285          52.463           161.6 
       0.944975         153.572          51.714         160.717 
       0.951105         152.629         50.9824         159.461 
       0.957225          152.55         50.2665         158.574 
       0.963368         150.715          49.562         156.786 
       0.969511         149.322         48.8712         156.048 
       0.975621           148.4         48.1974         156.367 
       0.981748         147.161         47.5347         154.473 
       0.987916         146.258         46.8805         153.902 
        0.99406         145.592         46.2412         152.701 
        1.00019         144.179         45.6152         151.438 
        1.00632         143.606         45.0015         150.571 
        1.01246         142.386         44.3983         149.405 
        1.01859         141.495         43.8073          148.79 
        1.02471         140.368         43.2279         148.257 
        1.03085         139.331         42.6571         147.139 
        1.03698         138.466         42.0979          145.91 
        1.04314         137.611         41.5465         145.327 
        1.04929         137.096         41.0064         144.778 
        1.05541         136.164         40.4782         143.954 
        1.06154         135.301         39.9581         143.147 
        1.06769         133.921         39.4464         142.323 
        1.07382         133.067         38.9455         141.421 
        1.07993         132.571         38.4545         140.507 
        1.08607           131.3           37.97         139.728 
        1.09222          130.96         37.4935         138.709 
        1.09836         129.488         37.0258         137.924 
        1.10449         128.848         36.5667         137.185 
        1.11063         127.932          36.115         136.106 
        1.11677         127.267         35.6712         135.495 
         1.1229         126.305         35.2357         135.121 
        1.12903         125.959         34.8072         134.079 
        1.13518         125.118         34.3855         133.433 
        1.14131         124.365         33.9711         132.571 
        1.14745         123.247         33.5639         131.918 
        1.15359         122.174         33.1633         131.213 
        1.15973         121.773         32.7692         130.652 
        1.16584         120.985         32.3833         129.884 
        1.17197         120.205         32.0031          129.14 
        1.17811         119.425         31.6279         128.389 
        1.18424         118.559           31.26         127.761 
        1.19038         118.467         30.8968         127.335 
        1.19652         117.449         30.5396         126.306 
        1.20267         116.579         30.1882         125.763 
        1.20881         115.863         29.8424         125.134 
        1.21495         115.453         29.5026         124.321 
        1.22108         114.575         29.1682         123.878 
         1.2272         113.712         28.8399          123.22 
        1.23334         113.258         28.5158         122.605 
        1.23949         112.678         28.1961         121.773 
        1.24562         111.649         27.8822         121.365 
        1.25174         110.903         27.5736         120.745 
        1.25789         110.988         27.2687         120.158 
        1.26402         109.952         26.9691         119.474 
        1.27014         109.386         26.6747         119.164 
        1.27628         108.326         26.3839         118.633 
        1.28244          108.03         26.0969         117.576 
        1.28858         107.286         25.8146         117.017 
        1.29471         106.681         25.5371         116.771 
        1.30084         105.958          25.264         115.869 
        1.30697         105.942         24.9945         115.283 
        1.31312         104.914         24.7286         114.962 
        1.31925         104.363         24.4674         114.312 
        1.32537         103.693         24.2103         113.664 
        1.33151         103.505         23.9561         113.229 
        1.33765         102.487         23.7056         112.735 
        1.34378          102.38         23.4593         112.064 
        1.34992          101.66         23.2163         111.645 
        1.35606         100.946         22.9763          111.04 
         1.3622         100.508         22.7401         110.567 
        1.36833         99.6736         22.5079         109.774 
        1.37445         98.9834          22.279         109.318 
        1.38059         98.7019         22.0527          109.13 
        1.38675         97.8299          21.829         108.247 
        1.39288         97.7013         21.6093         108.007 
        1.39901          96.675         21.3927         107.438 
        1.40515         96.4951         21.1787         106.962 
         1.4113         95.9946         20.9677         106.616 
        1.41742         95.4269         20.7604         106.042 
        1.42355         94.7439         20.5555         105.247 
         1.4297          94.257         20.3528         104.802 
        1.43585         93.6255          20.153         104.509 
        1.44198         93.1434         19.9566         104.192 
        1.44809         92.6075         19.7633         103.318 
        1.45423         92.0524         19.5718         102.919 
        1.46036         91.3529         19.3832         102.595 
        1.46649         91.2055         19.1971         102.272 
        1.47263          90.664         19.0132         101.849 
        1.47877         90.2426         18.8319         101.116 
        1.48491         89.6629         18.6527         100.868 
        1.49104         88.9542         18.4762          100.18 
        1.49718          88.654         18.3019         99.7156 
        1.50333          88.247         18.1296         99.3608 
        1.50947         87.7911         17.9598         98.9492 
         1.5156         87.3134         17.7925         98.5634 
        1.52172         86.7278         17.6274         98.1654 
        1.52787         86.1438          17.464          97.655 
          1.534         85.9478         17.3029         97.3137 
        1.54013         85.4738         17.1441         96.8311 
        1.54627         84.7363         16.9869         96.3668 
        1.55241         84.2489         16.8317         96.0136 
        1.55855         84.0314         16.6787         95.4537 
        1.56467         83.2434          16.528         94.9747 
         1.5708         83.0517         16.3788         94.7471 
        1.57695          82.591         16.2312         94.4395 
        1.58308         82.0899         16.0858         93.9868 
        1.58922         81.7187         15.9421         93.5907 
        1.59535         81.3537         15.8002         93.1545 
         1.6015         81.1675         15.6598         92.6709 
        1.60764         80.6458         15.5212         92.3609 
        1.61376         80.0441         15.3847         92.1245 
        1.61989         79.3776         15.2498         91.5928 
        1.62604         79.1612         15.1162         91.0861 
        1.63218         78.8365         14.9842           90.72 
        1.63831         78.4773         14.8542         90.4339 
        1.64444         77.9769         14.7257         90.0539 
        1.65059         77.6681         14.5984         89.5468 
        1.65673         76.9415         14.4727          89.181 
        1.66285         76.6788         14.3489          88.883 
        1.66898          76.037         14.2265         88.5429 
        1.67512         76.0457         14.1053         88.3033 
        1.68127         75.4802         13.9854         87.8562 
         1.6874         75.0248         13.8672         87.2787 
        1.69353         74.7509         13.7505         86.9157 
        1.69967         74.3714         13.6348         86.7555 
        1.70581         73.9358         13.5205         86.4748 
        1.71193         73.4947          13.408         86.0569 
        1.71806         73.0558         13.2965         85.7105 
        1.72421          72.789          13.186         85.2461 
        1.73035         72.5037          13.077         84.9813 
        1.73649         72.0532         12.9692         84.8379 
        1.74262         71.4172         12.8628         84.2384 
        1.74876         71.2047         12.7574         83.8122 
        1.75489         70.6599         12.6535          83.584 
        1.76101         70.3176         12.5508         83.2608 
        1.76715         70.3259         12.4491         82.7927 
        1.77329         69.5601         12.3483         82.4793 
        1.77943         69.4598         12.2487         82.1956 
        1.78557         69.1745         12.1503         81.7442 
        1.79171         68.6635          12.053         81.4059 
        1.79785         68.3564         11.9568         81.1928 
        1.80399         67.9525         11.8616         80.9292 
        1.81012         67.6152         11.7676         80.5031 
        1.81625         67.3122         11.6747         80.1074 
        1.82239         67.0241         11.5826         79.8977 
        1.82853         66.6527         11.4916         79.7526 
        1.83466         66.2239         11.4017          79.341 
        1.84078         65.8428         11.3128         78.8531 
        1.84692          65.525         11.2247         78.7612 
        1.85306         65.2262         11.1375         78.4779 
         1.8592         64.9955         11.0513         78.0376 
        1.86533         64.4849         10.9661         77.8351 
        1.87147         64.2379         10.8817         77.4994 
