# k  (h/Mpc)    Pcb(k)  (Mpc/h)^3    Pcb_linear(k) (Mpc/h)^3    Pcb_NL(k) (Mpc/h)^3   ShotnoiseSubtracted = false
     0.00783031         7318.53         7349.15         7343.78 
       0.013688         9624.85         9824.65         9777.61 
       0.019231         10486.6         10612.2         10532.3 
      0.0249154         10411.3         10423.3           10335 
      0.0312784         9487.82         9588.79         9492.23 
      0.0375637         8429.29         8576.95         8477.07 
      0.0433917          7656.9         7719.99         7611.34 
      0.0492413         6918.02         7034.36         6924.44 
      0.0555754         6417.49         6488.52         6377.83 
      0.0619321         5858.13         6081.71         5966.48 
       0.067871         5606.33          5752.7         5637.66 
      0.0738098         5298.23         5413.11         5267.95 
      0.0800417         4915.49         5014.13         4873.13 
      0.0862327         4470.21         4579.99         4472.41 
      0.0921407         4068.78         4160.39         4059.23 
      0.0982031         3721.53         3761.85         3700.04 
       0.104506         3342.81         3413.01         3384.08 
       0.110769         3093.92         3145.49         3101.85 
       0.116806         2959.62         2956.19         2913.08 
       0.122832         2784.52         2815.63         2782.31 
       0.129052         2667.05         2695.81         2664.22 
       0.135211         2587.33         2578.63         2547.65 
       0.141259         2426.67         2449.98          2434.7 
       0.147318         2256.02         2303.87            2306 
       0.153489         2129.97         2143.74         2128.81 
       0.159709         2024.72         1983.63         1995.13 
       0.165845         1846.77         1839.85         1892.06 
       0.171974         1792.12         1719.07         1776.11 
       0.178125         1720.56         1623.41         1710.04 
       0.184229          1599.9         1550.65         1634.14 
        0.19034         1572.89          1492.9         1577.57 
       0.196428         1528.99         1441.92         1513.46 
       0.202534         1440.82         1389.91         1468.35 
       0.208729         1414.83         1331.59         1401.96 
       0.214876         1360.96         1267.38          1363.1 
       0.220989         1277.85         1199.77         1309.36 
       0.227147         1247.42         1132.28         1250.14 
        0.23329         1198.62         1069.96         1208.53 
       0.239377         1177.58         1016.22         1162.15 
       0.245482         1120.26         971.327         1110.03 
       0.251667         1078.87         934.071         1085.29 
       0.257832         1068.25         902.769         1052.58 
       0.263955         1016.61         874.503         1022.69 
       0.270079         988.638         846.367         994.213 
        0.27624         948.118         816.568         962.809 
       0.282372         931.836         784.979         936.046 
        0.28843          923.58         752.586         906.327 
       0.294538         877.882         720.138          882.01 
       0.300721         853.228         689.028         857.633 
        0.30691         839.165         660.836         839.156 
       0.313033         805.227         636.309         812.311 
       0.319153         793.255         614.991         793.098 
       0.325316         780.394         595.962         780.533 
        0.33145         765.422         578.503         754.261 
       0.337538         739.549         561.655         738.965 
       0.343633         719.067         544.649         730.019 
       0.349808          703.11         527.003          715.39 
       0.355968          690.52         509.124         701.417 
       0.362074          670.41         491.554         684.526 
       0.368217         666.245         474.518         664.342 
       0.374374          654.57         458.547         652.125 
       0.380519         630.329          443.91         637.918 
       0.386598         623.614         430.733         628.442 
       0.392688          611.67         418.634         614.714 
        0.39888         595.663         407.116         605.056 
       0.405048         586.662         396.117          598.71 
       0.411186         583.653         385.358         583.411 
       0.417313         576.941         374.647         570.574 
       0.423458         560.098         363.966         561.897 
       0.429607         546.695         353.411         550.379 
       0.435692         538.164         343.256         540.828 
       0.441815          530.36         333.494         536.707 
       0.447964         519.465         324.239         526.778 
       0.454126         513.127          315.53         514.535 
       0.460267         505.457         307.392         511.806 
       0.466387         498.274         299.716         502.042 
        0.47254         490.949         292.302         495.979 
       0.478662         479.994         285.136         487.095 
       0.484765          475.74         278.145         477.349 
       0.490885         471.066          271.25         471.642 
       0.497035         462.691         264.439         466.831 
       0.503198         461.367         257.793         459.676 
       0.509342         450.016         251.397         454.432 
       0.515458         443.832         245.283         451.285 
       0.521598         436.492         239.407         442.929 
       0.527764         430.286         233.773         436.612 
       0.533884         429.268          228.43         431.844 
           0.54         422.555         223.293         426.375 
       0.546137         413.914         218.295         421.691 
       0.552299         413.402         213.402         415.706 
       0.558452         406.975         208.634         411.316 
       0.564573          402.62         204.008         407.791 
       0.570708         397.907          199.49         403.798 
       0.576825         391.014         195.108         396.512 
       0.582926         387.716          190.87          392.13 
       0.589034         382.899         186.767         387.742 
       0.595184         380.415         182.784         382.376 
       0.601379         373.721         178.919          380.59 
       0.607522          367.96         175.214         376.217 
       0.613639         365.758         171.633         372.435 
       0.619772         363.914         168.138         369.698 
       0.625918          358.91         164.724         366.049 
       0.632068         353.584         161.394         360.474 
       0.638161         350.236         158.181         357.984 
         0.6443         348.272         155.031         354.778 
       0.650464         343.012         151.957          349.07 
       0.656582         339.926         148.991         346.215 
       0.662703         337.613         146.106          344.52 
       0.668861         332.413         143.285         340.923 
       0.675024         330.691          140.54         337.339 
       0.681124         327.139         137.898         333.566 
       0.687237         324.043         135.323          330.34 
       0.693381         321.081         132.803         327.504 
       0.699536         317.439         130.345         325.143 
       0.705665         314.267         127.959         323.018 
       0.711789         312.317         125.635         319.128 
       0.717957         308.355         123.351         316.894 
        0.72409         305.891         121.136         315.127 
       0.730186         306.703         118.988         312.364 
       0.736317         301.357         116.881         308.855 
       0.742472         297.621         114.818         306.106 
       0.748622         294.081         112.808         303.225 
        0.75476         294.553         110.852         301.907 
       0.760888         291.066         108.947         298.296 
       0.767043         287.968          107.08         296.709 
       0.773185         286.245         105.263         294.581 
       0.779291         281.935         103.498         291.759 
       0.785407         280.893         101.773         289.356 
       0.791564         278.031         100.076         287.463 
       0.797719          274.24         98.4193         285.713 
       0.803834         275.744         96.8108         283.179 
       0.809972         272.819         95.2328         281.109 
       0.816124         269.461         93.6869         278.871 
       0.822261         266.415         92.1798         276.804 
       0.828378         266.793         90.7108         274.189 
       0.834502         262.276         89.2729         273.069 
       0.840667         261.986         87.8574          271.25 
       0.846816         258.553         86.4769         268.918 
       0.852925          257.17         85.1352         266.758 
       0.859047         254.371         83.8196         265.066 
       0.865192         254.216         82.5278         263.461 
       0.871341          250.69         81.2629          261.31 
       0.877463         248.567         80.0305         260.087 
       0.883569         248.168         78.8272         258.323 
       0.889708         246.087         77.6429         256.366 
       0.895864         244.015         76.4801         255.009 
       0.902008         241.857          75.344         252.555 
       0.908149         239.686         74.2319         250.526 
       0.914301         238.941         73.1407          249.75 
       0.920448         237.551         72.0728         247.365 
       0.926574         235.122         71.0302         245.398 
       0.932687          233.78         70.0108         243.539 
       0.938823         232.009         69.0079         243.016 
       0.944975         230.088         68.0227         241.885 
       0.951105         228.328         67.0604         239.912 
       0.957225         227.175         66.1187          238.09 
       0.963368         225.647          65.192         235.882 
       0.969511         222.672         64.2834         234.773 
       0.975621         221.686         63.3971         234.617 
       0.981748         220.069         62.5254         232.352 
       0.987916         219.001         61.6649          231.36 
        0.99406         217.318         60.8239         229.977 
        1.00019         216.014         60.0005         227.958 
        1.00632          215.22         59.1933         226.091 
        1.01246         213.352         58.3999         224.576 
        1.01859         211.305         57.6225         223.989 
        1.02471         209.761         56.8604         223.129 
        1.03085         208.858         56.1096         221.523 
        1.03698         207.075         55.3741         220.066 
        1.04314         206.556         54.6488         218.881 
        1.04929         205.259         53.9383         217.481 
        1.05541         203.659         53.2435           216.3 
        1.06154         202.443         52.5594         215.253 
        1.06769         200.331         51.8863         214.081 
        1.07382         199.846         51.2274         212.682 
        1.07993         198.265         50.5816         211.415 
        1.08607         196.514         49.9443         210.657 
        1.09222         195.706         49.3176         209.411 
        1.09836         194.346         48.7024         208.186 
        1.10449         192.566         48.0985         206.759 
        1.11063         191.515         47.5044         205.322 
        1.11677         190.788         46.9206          204.44 
         1.1229         189.076         46.3478         203.467 
        1.12903          188.53         45.7841         202.323 
        1.13518         187.105         45.2294         201.172 
        1.14131         185.996         44.6844         199.869 
        1.14745         184.294         44.1487         198.879 
        1.15359         182.582         43.6218         197.698 
        1.15973         182.174         43.1034         196.674 
        1.16584          181.32         42.5958          195.42 
        1.17197         180.192         42.0957         194.233 
        1.17811         178.444         41.6022         193.837 
        1.18424         177.503         41.1182         192.542 
        1.19038          176.59         40.6405         191.644 
        1.19652         175.071         40.1707          190.76 
        1.20267         174.254         39.7084         189.612 
        1.20881         173.018         39.2536         188.949 
        1.21495         172.626         38.8066         187.245 
        1.22108         171.043         38.3668         186.922 
         1.2272         169.853         37.9349         185.501 
        1.23334         169.306         37.5087          184.81 
        1.23949         168.673         37.0881         183.786 
        1.24562         167.133         36.6752         182.712 
        1.25174         165.648         36.2693         181.916 
        1.25789         165.174         35.8683         181.021 
        1.26402         164.475         35.4741         179.817 
        1.27014         163.296         35.0869         179.754 
        1.27628         161.403         34.7044         179.064 
        1.28244         161.135         34.3269         177.262 
        1.28858          159.93         33.9555         176.377 
        1.29471         158.955         33.5905         175.862 
        1.30084         158.052         33.2313         174.868 
        1.30697          157.45         32.8768         173.915 
        1.31312         156.259         32.5271         172.757 
        1.31925         154.915         32.1836         172.059 
        1.32537         154.498         31.8454         171.333 
        1.33151         153.578         31.5109         170.459 
        1.33765         151.987         31.1815         169.742 
        1.34378          152.09         30.8575         168.634 
        1.34992         151.247         30.5379         167.964 
        1.35606         150.019         30.2222          166.92 
         1.3622         149.572         29.9115         166.196 
        1.36833         147.831          29.606         165.328 
        1.37445         147.548          29.305         164.338 
        1.38059         146.533         29.0073           163.9 
        1.38675         145.612          28.713         162.897 
        1.39288         144.712          28.424         162.179 
        1.39901         143.597         28.1392         161.512 
        1.40515         143.236         27.8577          160.73 
         1.4113         142.436         27.5801             160 
        1.41742         141.286         27.3074         159.425 
        1.42355         140.851          27.038         158.602 
         1.4297         139.765         26.7714         157.704 
        1.43585         138.714         26.5085         156.952 
        1.44198         137.778         26.2502         156.262 
        1.44809         136.819         25.9959         155.413 
        1.45423         136.501          25.744         154.511 
        1.46036         135.469         25.4959         153.863 
        1.46649         134.593         25.2511         153.401 
        1.47263         134.252         25.0093         152.798 
        1.47877         133.019         24.7708         151.806 
        1.48491         132.214         24.5351         151.265 
        1.49104         130.924         24.3029         150.621 
        1.49718          131.07         24.0736         149.433 
        1.50333         130.181          23.847         149.017 
        1.50947         129.491         23.6237         148.425 
         1.5156         128.587         23.4036          147.68 
        1.52172         127.813         23.1864         147.242 
        1.52787         127.004         22.9715         146.193 
          1.534         126.611         22.7596          145.57 
        1.54013         125.777         22.5507         144.953 
        1.54627         124.761          22.344         144.313 
        1.55241         124.103         22.1398         143.795 
        1.55855         123.491         21.9385         142.862 
        1.56467         122.468         21.7403         142.157 
         1.5708         122.097         21.5441         141.735 
        1.57695         121.484         21.3499         141.084 
        1.58308         120.696         21.1586         140.308 
        1.58922         120.334         20.9696         139.674 
        1.59535         119.696         20.7829         139.098 
         1.6015         118.646         20.5983         138.461 
        1.60764         117.863          20.416         137.924 
        1.61376         117.213         20.2365         137.461 
        1.61989         116.629          20.059          136.73 
        1.62604         115.946         19.8832         135.982 
        1.63218         115.513         19.7097         135.416 
        1.63831           114.5         19.5387         135.007 
        1.64444         113.939         19.3696         134.397 
        1.65059          113.16         19.2021         133.531 
        1.65673         112.551         19.0369         133.045 
        1.66285         112.069          18.874         132.629 
        1.66898         111.158          18.713         131.914 
        1.67512           110.9         18.5536         131.433 
        1.68127         110.056         18.3959         130.803 
         1.6874         109.479         18.2405         130.058 
        1.69353         108.642         18.0869         129.525 
        1.69967         108.391         17.9347         129.022 
        1.70581          107.81         17.7844         128.384 
        1.71193         107.049         17.6363          127.81 
        1.71806         106.263         17.4897         127.548 
        1.72421         105.759         17.3444          126.92 
        1.73035         105.405          17.201         126.175 
        1.73649         104.634         17.0592         125.645 
        1.74262         103.921         16.9192         125.242 
        1.74876         103.392         16.7806         124.656 
        1.75489         102.782         16.6439         123.996 
        1.76101         102.137         16.5088         123.408 
        1.76715         101.569          16.375          122.83 
        1.77329         101.004         16.2426         122.429 
        1.77943         100.444         16.1115         121.995 
        1.78557         100.026         15.9821          121.34 
        1.79171         99.3923         15.8541         120.847 
        1.79785         98.7056         15.7275         120.441 
        1.80399         98.2632         15.6023          119.89 
        1.81012         97.5467         15.4787         119.375 
        1.81625          97.234         15.3565         118.852 
        1.82239         96.8784         15.2354         118.312 
        1.82853          96.075         15.1156         117.861 
        1.83466         95.3923         14.9973         117.321 
        1.84078         94.9916         14.8804         116.796 
        1.84692          94.647         14.7646         116.531 
        1.85306         94.0577         14.6498          116.02 
         1.8592         93.6194         14.5365         115.396 
        1.86533         92.9543         14.4244         114.961 
        1.87147         92.3518         14.3134         114.203 
