# k  (h/Mpc)    P(k)  (Mpc/h)^3    P_linear(k)  (Mpc/h)^3     P_NL(k)  ShotnoiseSubtracted = false
     0.00783031         11365.4         11407.2         11394.8 
       0.013688         14869.8         15246.3         15156.8 
       0.019231         16212.5         16467.1         16313.4 
      0.0249154         16130.1         16173.2           15986 
      0.0312784         14645.9           14878         14654.4 
      0.0375637         12982.1         13307.8         13073.4 
      0.0433917         11805.4           11978         11717.7 
      0.0492413         10645.1         10914.1         10649.2 
      0.0555754         9867.97         10067.2         9803.16 
      0.0619321         8957.15         9435.96         9162.81 
       0.067871         8580.16         8925.46         8655.69 
      0.0738098         8123.17         8398.54         8059.46 
      0.0800417         7524.99          7779.5         7451.15 
      0.0862327         6843.84         7105.91         6853.92 
      0.0921407         6240.76         6454.88         6219.16 
      0.0982031         5726.18         5836.54         5688.23 
       0.104506         5143.28          5295.3         5221.97 
       0.110769         4767.44         4880.24         4778.96 
       0.116806         4568.82         4586.54         4485.99 
       0.122832         4303.22         4368.45         4289.13 
       0.129052         4105.44         4182.56         4109.25 
       0.135211          3998.3         4000.74         3925.93 
       0.141259         3739.67         3801.15         3764.12 
       0.147318         3482.76         3574.45         3569.98 
       0.153489         3299.12         3326.02         3290.83 
       0.159709         3164.12         3077.59         3099.09 
       0.165845          2889.9         2854.53         2959.92 
       0.171974         2811.61         2667.14         2788.65 
       0.178125         2720.37         2518.71         2701.12 
       0.184229         2516.34         2405.83         2577.06 
        0.19034         2485.56         2316.23         2492.71 
       0.196428         2423.09         2237.14         2395.17 
       0.202534         2289.63         2156.44         2328.92 
       0.208729         2247.58         2065.95         2220.63 
       0.214876         2160.31         1966.33         2165.74 
       0.220989         2052.14         1861.44         2092.71 
       0.227147         2000.88         1756.72         2012.27 
        0.23329         1924.97         1660.04          1950.9 
       0.239377         1910.18         1576.65         1878.05 
       0.245482         1824.53         1507.01         1799.61 
       0.251667         1758.95         1449.21         1764.13 
       0.257832         1736.88         1400.64         1714.21 
       0.263955         1662.82         1356.79         1670.56 
       0.270079         1626.15         1313.13         1627.49 
        0.27624         1559.25          1266.9          1580.5 
       0.282372         1543.28         1217.89          1546.9 
        0.28843         1519.66         1167.63         1507.51 
       0.294538         1452.17         1117.29         1466.76 
       0.300721         1424.92         1069.02         1424.58 
        0.30691         1394.19         1025.28         1403.87 
       0.313033          1343.4         987.224         1363.36 
       0.319153         1329.71         954.155         1329.04 
       0.325316         1314.06         924.632         1312.78 
        0.33145         1289.65         897.541          1269.7 
       0.337538         1249.66         871.404         1251.02 
       0.343633         1221.19         845.021         1237.55 
       0.349808         1200.25         817.638          1215.7 
       0.355968         1177.32         789.902         1195.32 
       0.362074         1145.05         762.643         1170.29 
       0.368217         1141.78         736.209         1140.77 
       0.374374          1124.9         711.434         1122.27 
       0.380519         1087.85         688.721          1101.3 
       0.386598         1083.04          668.28         1087.29 
       0.392688         1058.01         649.507         1064.25 
        0.39888         1035.91         631.637         1052.16 
       0.405048          1018.7         614.573         1039.09 
       0.411186         1014.13          597.88         1017.25 
       0.417313         1012.52         581.261         1002.74 
       0.423458         980.962         564.692         986.906 
       0.429607         955.061         548.314         968.063 
       0.435692         948.128         532.558         951.739 
       0.441815          931.42         517.414         948.599 
       0.447964         920.794         503.055          934.12 
       0.454126         908.587         489.539         910.931 
       0.460267         897.872         476.917         910.069 
       0.466387         885.477         465.006         892.922 
        0.47254         868.947         453.505         883.256 
       0.478662         858.824         442.385         871.586 
       0.484765         851.533         431.541         859.846 
       0.490885         841.546         420.842         845.745 
       0.497035         827.645         410.275         838.549 
       0.503198         826.189         399.964         828.546 
       0.509342         811.534         390.039         815.696 
       0.515458         795.684         380.554         811.838 
       0.521598         792.579         371.438          803.21 
       0.527764         775.334         362.697         794.318 
       0.533884         769.475         354.407         785.476 
           0.54         762.605         346.437         776.912 
       0.546137          752.97         338.683         767.718 
       0.552299         748.652         331.091         757.376 
       0.558452         740.785         323.694          751.77 
       0.564573         733.486         316.517          745.08 
       0.570708         727.797         309.507         738.161 
       0.576825         713.214         302.708         727.511 
       0.582926          711.01         296.133          721.29 
       0.589034         702.596         289.767         710.531 
       0.595184         695.179         283.588         705.644 
       0.601379         684.471         277.592         700.105 
       0.607522         675.493         271.842         691.144 
       0.613639         674.228         266.287         688.055 
       0.619772         669.225         260.865         686.576 
       0.625918          659.12         255.567          677.63 
       0.632068         654.834         250.401         672.474 
       0.638161         646.453         245.417         661.473 
         0.6443         641.104          240.53         658.969 
       0.650464         635.724          235.76         649.174 
       0.656582          630.67         231.159         644.611 
       0.662703         622.957         226.683         641.437 
       0.668861         617.123         222.305         637.751 
       0.675024         612.514         218.046         633.326 
       0.681124         603.873         213.948          622.99 
       0.687237          602.75         209.952         618.202 
       0.693381         593.257         206.043         613.166 
       0.699536         591.893         202.229         609.127 
       0.705665         585.469         198.528         603.425 
       0.711789         584.034         194.921         598.309 
       0.717957         575.488         191.378         596.371 
        0.72409         570.651         187.941         591.133 
       0.730186         569.976         184.609         586.222 
       0.736317         561.948          181.34         580.401 
       0.742472         555.446         178.139         575.794 
       0.748622         552.497          175.02          571.41 
        0.75476         547.496         171.986         571.724 
       0.760888         544.263          169.03         564.574 
       0.767043         541.455         166.134         559.028 
       0.773185         537.954         163.314         555.614 
       0.779291         530.972         160.577         550.804 
       0.785407         527.558         157.899          547.77 
       0.791564         523.639         155.267          545.53 
       0.797719         516.327         152.697         539.922 
       0.803834         517.959         150.201          537.28 
       0.809972         510.571         147.753         534.299 
       0.816124         506.054         145.354         526.647 
       0.822261         502.849         143.016         524.296 
       0.828378         500.373         140.737         520.937 
       0.834502         492.923         138.506         519.179 
       0.840667         492.531          136.31         515.233 
       0.846816         486.457         134.168         511.556 
       0.852925         485.669         132.086         508.358 
       0.859047         481.226         130.045         503.986 
       0.865192          478.63         128.041         500.668 
       0.871341         472.237         126.079         498.226 
       0.877463         469.999         124.167         494.921 
       0.883569         465.507           122.3         491.606 
       0.889708         461.281         120.462          487.51 
       0.895864         457.549         118.658         485.019 
       0.902008         456.121         116.895          482.13 
       0.908149         452.339          115.17         477.735 
       0.914301         450.298         113.477         474.616 
       0.920448         445.267          111.82         471.639 
       0.926574         443.291         110.203         468.469 
       0.932687         440.971         108.621         465.478 
       0.938823         435.584         107.065         464.528 
       0.944975         433.644         105.537         460.785 
       0.951105         430.418         104.044         456.627 
       0.957225          424.17         102.583         455.436 
       0.963368         425.212         101.145         452.319 
       0.969511         417.899          99.735         448.997 
       0.975621         418.145           98.36         446.507 
       0.981748         415.021         97.0076         443.294 
       0.987916          412.25         95.6725         442.223 
        0.99406         408.537         94.3678         439.037 
        1.00019         404.458         93.0902         434.176 
        1.00632         404.086         91.8378         432.142 
        1.01246         400.671         90.6069         429.509 
        1.01859         396.101         89.4007         426.354 
        1.02471         394.017         88.2183         425.153 
        1.03085         392.561         87.0534         423.625 
        1.03698         389.706         85.9123         421.208 
        1.04314         387.645         84.7871          418.25 
        1.04929         385.038         83.6848         414.925 
        1.05541         379.788         82.6068         412.268 
        1.06154         378.889         81.5454         409.869 
        1.06769          375.03         80.5012         407.142 
        1.07382           373.5         79.4789         404.936 
        1.07993         371.156         78.4769         403.041 
        1.08607         368.367         77.4882         399.933 
        1.09222         365.597         76.5157         397.487 
        1.09836          363.63         75.5613         396.502 
        1.10449         361.027         74.6244         393.723 
        1.11063         357.942         73.7026          390.76 
        1.11677         354.483         72.7969         389.206 
         1.1229         353.623         71.9081         387.114 
        1.12903         350.993         71.0336         385.025 
        1.13518         348.379          70.173         382.482 
        1.14131           347.3         69.3274         380.348 
        1.14745         342.455         68.4963          378.22 
        1.15359         340.225         67.6788         376.379 
        1.15973         339.025         66.8745           374.2 
        1.16584         337.259         66.0869         371.785 
        1.17197         334.491         65.3111         369.928 
        1.17811         331.188         64.5455         368.225 
        1.18424         329.474         63.7945         366.731 
        1.19038         327.751         63.0534         364.508 
        1.19652         324.061         62.3245         362.508 
        1.20267         323.624         61.6072         359.587 
        1.20881         321.474         60.9015         358.151 
        1.21495          318.63         60.2081         355.719 
        1.22108         316.954         59.5257         353.553 
         1.2272         312.809         58.8556         351.207 
        1.23334         311.973         58.1944         349.299 
        1.23949         310.258         57.5419         348.321 
        1.24562         308.968         56.9012         346.504 
        1.25174         305.908         56.2714         344.639 
        1.25789         303.588         55.6493         342.835 
        1.26402         302.663         55.0378         341.207 
        1.27014         300.919          54.437         338.644 
        1.27628         297.738         53.8435         337.861 
        1.28244         296.259         53.2578         336.434 
        1.28858         294.484         52.6817         334.021 
        1.29471         292.971         52.1154         331.296 
        1.30084         291.237         51.5581         329.912 
        1.30697         288.145         51.0081         328.807 
        1.31312         286.217         50.4655         327.064 
        1.31925         284.915         49.9325         324.678 
        1.32537         283.329         49.4078          322.71 
        1.33151         280.789         48.8889         321.577 
        1.33765         278.821         48.3778         319.832 
        1.34378         276.857         47.8751         318.106 
        1.34992         274.625         47.3792         315.844 
        1.35606         273.411         46.8894         314.218 
         1.3622         271.844         46.4075         312.931 
        1.36833         270.122         45.9335         311.892 
        1.37445         268.769         45.4665          309.21 
        1.38059         266.146         45.0045         308.465 
        1.38675         264.617          44.548         307.364 
        1.39288         263.542         44.0996         304.162 
        1.39901         260.951         43.6577         303.004 
        1.40515         259.683         43.2209          301.46 
         1.4113         257.597         42.7903         299.516 
        1.41742         255.261         42.3672         298.323 
        1.42355         255.612         41.9492         296.683 
         1.4297         252.916         41.5356         295.223 
        1.43585         250.426         41.1277         294.373 
        1.44198         249.282          40.727         292.169 
        1.44809         248.079         40.3324         291.249 
        1.45423         246.313         39.9416         288.811 
        1.46036          244.82         39.5567         287.456 
        1.46649         243.624         39.1768          286.57 
        1.47263         241.323         38.8017         285.024 
        1.47877         239.945         38.4317         283.129 
        1.48491         237.973         38.0659          281.67 
        1.49104         236.383         37.7058         280.301 
        1.49718         235.011           37.35         279.226 
        1.50333          232.93         36.9983         278.231 
        1.50947         232.346         36.6519         276.879 
         1.5156         230.418         36.3105         275.022 
        1.52172         228.891         35.9735         273.076 
        1.52787         227.344         35.6401         272.156 
          1.534          226.81         35.3114         270.987 
        1.54013         224.676         34.9871         269.445 
        1.54627         223.563         34.6664         268.211 
        1.55241         221.852         34.3497         267.063 
        1.55855         220.986         34.0374         265.686 
        1.56467         219.161         33.7299         264.061 
         1.5708         217.749         33.4254         262.645 
        1.57695          216.48         33.1242          261.58 
        1.58308          215.08         32.8274         260.266 
        1.58922          213.52         32.5341         258.808 
        1.59535         211.684         32.2445         257.832 
         1.6015         210.778         31.9581         256.443 
        1.60764          209.47         31.6753         254.797 
        1.61376         207.497         31.3967         253.719 
        1.61989         206.211         31.1213         252.641 
        1.62604         204.809         30.8486         251.412 
        1.63218         203.772         30.5794         250.365 
        1.63831         203.185          30.314         249.278 
        1.64444         201.207         30.0517         247.763 
        1.65059         200.478         29.7919          246.69 
        1.65673         198.549         29.5355         245.556 
        1.66285         197.685         29.2829         244.145 
        1.66898         196.497         29.0331         242.753 
        1.67512         194.825         28.7858         241.803 
        1.68127         193.897         28.5411         240.644 
         1.6874         192.592         28.2999         239.518 
        1.69353         191.498         28.0616         238.797 
        1.69967         190.087         27.8255         237.336 
        1.70581         189.236         27.5923          236.07 
        1.71193         187.682         27.3626         235.095 
        1.71806         186.378         27.1351         233.648 
        1.72421         185.456         26.9097         232.746 
        1.73035         183.926         26.6872         231.658 
        1.73649         182.662         26.4672         230.273 
        1.74262         181.813           26.25         229.682 
        1.74876         180.766          26.035         228.643 
        1.75489         179.676         25.8229          227.34 
        1.76101         178.388         25.6133         226.353 
        1.76715         177.165         25.4057         225.405 
        1.77329          175.81         25.2002         224.276 
        1.77943         174.761         24.9969         223.064 
        1.78557         174.046         24.7961         221.959 
        1.79171         172.993         24.5975         221.035 
        1.79785         171.876         24.4011          220.05 
        1.80399         170.681         24.2069         218.887 
        1.81012          169.47          24.015         218.124 
        1.81625         168.553         23.8254         217.218 
        1.82239         167.192         23.6375         215.977 
        1.82853          166.57         23.4518         214.972 
        1.83466         165.153         23.2682         213.876 
        1.84078         164.373         23.0868         212.797 
        1.84692         163.355         22.9071         212.142 
        1.85306         162.008         22.7291         211.081 
         1.8592         161.433         22.5532          209.95 
        1.86533         159.797         22.3793         209.443 
        1.87147          159.18         22.2071         208.702 
        1.87761         158.149         22.0366         207.575 
