# k  (h/Mpc)    Pcb(k)  (Mpc/h)^3    Pcb_linear(k) (Mpc/h)^3    Pcb_NL(k) (Mpc/h)^3   ShotnoiseSubtracted = false
     0.00783031         207.905         209.275         209.091 
       0.013688         277.789          279.92         279.052 
       0.019231         301.513         302.436         301.116 
      0.0249154         296.659         297.094         296.186 
      0.0312784         272.994         273.335         272.967 
      0.0375637         244.201         244.507         244.336 
      0.0433917         220.348         220.085         220.089 
      0.0492413         200.499         200.544         200.582 
      0.0555754         185.294         184.987         184.968 
      0.0619321          172.77         173.391         173.334 
       0.067871         163.839         164.013         163.876 
      0.0738098         154.207         154.332         154.125 
      0.0800417         142.992         142.958         142.772 
      0.0862327         130.475         130.582         130.459 
      0.0921407         118.487         118.619         118.553 
      0.0982031         107.355         107.256         107.259 
       0.104506         97.1176         97.3107         97.3599 
       0.110769         89.5348         89.6835         89.7144 
       0.116806         84.3997         84.2865         84.2843 
       0.122832         80.1312          80.279         80.2702 
       0.129052         76.8414          76.863         76.8328 
       0.135211         73.5845         73.5219          73.479 
       0.141259         69.7507         69.8541         69.8229 
       0.147318         65.4217         65.6881         65.6879 
       0.153489         61.0167         61.1228         61.1155 
       0.159709         56.5537         56.5576         56.5895 
       0.165845          52.217         52.4583         52.5445 
       0.171974         49.1039         49.0147            49.1 
       0.178125          46.361         46.2871         46.4032 
       0.184229         44.1517         44.2125         44.3271 
        0.19034         42.6703          42.566          42.672 
       0.196428         41.1475         41.1126         41.1876 
       0.202534         39.4535         39.6297         39.7078 
       0.208729         37.9486         37.9666         38.0417 
       0.214876         36.2514         36.1359         36.2465 
       0.220989          34.082         34.2084         34.3363 
       0.227147         32.4306          32.284         32.4161 
        0.23329         30.6876         30.5072         30.6725 
       0.239377         29.1808         28.9748         29.1598 
       0.245482         27.8707         27.6949         27.8651 
       0.251667         26.7187         26.6327         26.8185 
       0.257832         25.9337         25.7401         25.9217 
       0.263955          25.036         24.9342         25.1051 
       0.270079         24.2257          24.132         24.2944 
        0.27624         23.2898         23.2824         23.4356 
       0.282372         22.4169         22.3817         22.5474 
        0.28843         21.6281         21.4581         21.6305 
       0.294538          20.681         20.5329         20.7174 
       0.300721         19.7282         19.6459         19.8468 
        0.30691         19.0278         18.8421         19.0474 
       0.313033         18.3005         18.1428         18.3457 
       0.319153         17.8175         17.5349         17.7519 
       0.325316         17.0966         16.9924         17.2167 
        0.33145         16.6022         16.4946         16.7053 
       0.337538         16.1516         16.0142         16.2178 
       0.343633         15.6932         15.5293         15.7314 
       0.349808         15.1682         15.0262         15.2354 
       0.355968         14.6421         14.5164         14.7512 
       0.362074         14.1938         14.0155         14.2411 
       0.368217         13.7059         13.5297         13.7388 
       0.374374         13.3293         13.0743         13.3014 
       0.380519         12.8288          12.657         12.8779 
       0.386598         12.4338         12.2813         12.5102 
       0.392688         12.0733         11.9363         12.1641 
        0.39888         11.7778         11.6079         11.8326 
       0.405048          11.472         11.2943         11.5077 
       0.411186         11.1506         10.9875         11.2222 
       0.417313         10.8551         10.6821         10.9072 
       0.423458         10.5116         10.3776         10.6069 
       0.429607         10.2639         10.0766         10.2993 
       0.435692         9.99238          9.7871         10.0193 
       0.441815         9.67762         9.50877         9.75438 
       0.447964         9.37861         9.24489         9.48337 
       0.454126         9.17863         8.99656         9.23174 
       0.460267         8.99192         8.76452         9.00567 
       0.466387         8.74443         8.54567         8.77712 
        0.47254         8.55091         8.33429         8.56795 
       0.478662         8.33036         8.12995         8.35942 
       0.484765         8.13559         7.93064         8.16244 
       0.490885         7.91937         7.73403         7.98096 
       0.497035         7.70173         7.53984         7.78829 
       0.503198         7.53672         7.35035         7.58071 
       0.509342         7.32995         7.16796         7.40515 
       0.515458         7.18609         6.99364         7.24137 
       0.521598         7.01773         6.82611         7.05654 
       0.527764         6.88655         6.66548          6.8954 
       0.533884         6.68497         6.51313         6.74467 
           0.54         6.55046         6.36666          6.5942 
       0.546137          6.3823         6.22416         6.45639 
       0.552299         6.25887         6.08463         6.30293 
       0.558452         6.12481         5.94869         6.17019 
       0.564573         6.00222          5.8168          6.0546 
       0.570708         5.86956         5.68797         5.92122 
       0.576825         5.74546         5.56304         5.79254 
       0.582926         5.61258         5.44218         5.67548 
       0.589034         5.51713         5.32521         5.56466 
       0.595184          5.4149         5.21165         5.43115 
       0.601379         5.28122         5.10145         5.33556 
       0.607522         5.17386         4.99579         5.22639 
       0.613639         5.05217          4.8937         5.12135 
       0.619772         4.97668         4.79406         5.02852 
       0.625918         4.87349         4.69669         4.92306 
       0.632068         4.78645         4.60175         4.82519 
       0.638161         4.68812         4.51015         4.73233 
         0.6443         4.59446         4.42034         4.63902 
       0.650464         4.50194          4.3327         4.55966 
       0.656582         4.43774         4.24813         4.47179 
       0.662703         4.35247         4.16587         4.38682 
       0.668861         4.24537         4.08543         4.31262 
       0.675024         4.17658         4.00715         4.22874 
       0.681124         4.14043         3.93183         4.15069 
       0.687237          4.0432          3.8584         4.06974 
       0.693381         3.94744         3.78656         3.99324 
       0.699536         3.90437         3.71646         3.92547 
       0.705665         3.83124         3.64845         3.86956 
       0.711789         3.74776         3.58218          3.7998 
       0.717957         3.68347         3.51706         3.72795 
        0.72409         3.62339          3.4539          3.6651 
       0.730186         3.57702         3.39266         3.59814 
       0.736317         3.50313         3.33258         3.53654 
       0.742472         3.45229         3.27376         3.48869 
       0.748622         3.39678         3.21645         3.43016 
        0.75476         3.32542         3.16067         3.36557 
       0.760888         3.28557         3.10635         3.31306 
       0.767043         3.19965         3.05314         3.26171 
       0.773185         3.16078         3.00131         3.21198 
       0.779291         3.12984         2.95101         3.16017 
       0.785407         3.06854          2.9018         3.10769 
       0.791564         3.02119         2.85343         3.05923 
       0.797719         2.96992         2.80619         3.00443 
       0.803834         2.92242         2.76033         2.96096 
       0.809972         2.87658         2.71534         2.92122 
       0.816124         2.83147         2.67126         2.86986 
       0.822261         2.79271         2.62829         2.82582 
       0.828378         2.74275          2.5864         2.78334 
       0.834502         2.70382          2.5454         2.73857 
       0.840667         2.66955         2.50504         2.70025 
       0.846816         2.62613         2.46568         2.66739 
       0.852925         2.58034         2.42743         2.62452 
       0.859047         2.54433         2.38991         2.59151 
       0.865192         2.50727         2.35308          2.5502 
       0.871341         2.47365         2.31702         2.51164 
       0.877463         2.43071         2.28188         2.47403 
       0.883569         2.39735         2.24757         2.44244 
       0.889708         2.36846          2.2138         2.40776 
       0.895864         2.33451         2.18065         2.37215 
       0.902008         2.29373         2.14825         2.33897 
       0.908149         2.26722         2.11654         2.30862 
       0.914301         2.24036         2.08543         2.27305 
       0.920448         2.20822         2.05498         2.24061 
       0.926574         2.18478         2.02526         2.21211 
       0.932687          2.1505         1.99619         2.17748 
       0.938823         2.11252          1.9676         2.15706 
       0.944975         2.09118          1.9395         2.11966 
       0.951105         2.05316         1.91207         2.09219 
       0.957225         2.02764         1.88522         2.06993 
       0.963368          2.0072          1.8588         2.03935 
       0.969511         1.98336         1.83289          2.0133 
       0.975621         1.95092         1.80762         1.98085 
       0.981748          1.9171         1.78276         1.95724 
       0.987916         1.89589         1.75823         1.93816 
        0.99406         1.87787         1.73425         1.91421 
        1.00019         1.85168         1.71077         1.88987 
        1.00632         1.83473         1.68776         1.86305 
        1.01246         1.80748         1.66513          1.8385 
        1.01859         1.78448         1.64297         1.81737 
        1.02471          1.7555         1.62124         1.79557 
        1.03085         1.73468         1.59983         1.76913 
        1.03698         1.71667         1.57886         1.74678 
        1.04314         1.69653         1.55818         1.72739 
        1.04929         1.67827         1.53792         1.70646 
        1.05541         1.64971         1.51811         1.68832 
        1.06154         1.63495         1.49861         1.66789 
        1.06769          1.6176         1.47942         1.64705 
        1.07382         1.59548         1.46063         1.62753 
        1.07993         1.57649         1.44221         1.60807 
        1.08607         1.55879         1.42404          1.5897 
        1.09222         1.53616         1.40617          1.5691 
        1.09836         1.52306         1.38863         1.55283 
        1.10449         1.49909         1.37142         1.53485 
        1.11063          1.4824         1.35447         1.51464 
        1.11677          1.4687         1.33783         1.49978 
         1.1229         1.44524          1.3215         1.48298 
        1.12903         1.43457         1.30542         1.46548 
        1.13518         1.41434         1.28961         1.44949 
        1.14131         1.40091         1.27407          1.4336 
        1.14745         1.38767         1.25879         1.41475 
        1.15359         1.36938         1.24377         1.40085 
        1.15973         1.35585         1.22899         1.38676 
        1.16584         1.33753         1.21452         1.36976 
        1.17197         1.32197         1.20026         1.35491 
        1.17811         1.30696         1.18619         1.34186 
        1.18424         1.29291         1.17239         1.32468 
        1.19038         1.27672         1.15877         1.31115 
        1.19652         1.26853         1.14537         1.29815 
        1.20267         1.25545         1.13219         1.28065 
        1.20881         1.23549         1.11922         1.26979 
        1.21495         1.22558         1.10648          1.2594 
        1.22108         1.21285         1.09394         1.24334 
         1.2272         1.19585         1.08162         1.22834 
        1.23334         1.18599         1.06947         1.21715 
        1.23949         1.17581         1.05748         1.20671 
        1.24562         1.16213         1.04571         1.19378 
        1.25174         1.14982         1.03413         1.17956 
        1.25789         1.13466          1.0227         1.16718 
        1.26402         1.12428         1.01146         1.15559 
        1.27014         1.11015         1.00042         1.14394 
        1.27628         1.10231        0.989513         1.13215 
        1.28244         1.09163        0.978749         1.12078 
        1.28858         1.07752        0.968161         1.10768 
        1.29471         1.06631        0.957754         1.09814 
        1.30084          1.0566        0.947512         1.08995 
        1.30697         1.04908        0.937405         1.07821 
        1.31312         1.03715        0.927433         1.06709 
        1.31925         1.02647        0.917638         1.05793 
        1.32537         1.01656        0.907996         1.04779 
        1.33151         1.00577        0.898459         1.03738 
        1.33765        0.995711        0.889067         1.02734 
        1.34378        0.983867        0.879828         1.01804 
        1.34992        0.978752        0.870716         1.00865 
        1.35606        0.966959        0.861714         0.99687 
         1.3622        0.958156        0.852857        0.987933 
        1.36833        0.949813        0.844146        0.979839 
        1.37445         0.94088        0.835563        0.971193 
        1.38059           0.931        0.827074         0.96113 
        1.38675        0.921947        0.818684         0.95198 
        1.39288        0.912004        0.810444        0.942887 
        1.39901        0.905307        0.802323         0.93494 
        1.40515        0.895542        0.794295        0.925648 
         1.4113        0.890706        0.786382        0.917952 
        1.41742        0.879933        0.778607        0.911925 
        1.42355        0.868816        0.770924         0.89991 
         1.4297        0.865397        0.763323         0.89428 
        1.43585        0.854509        0.755828        0.886032 
        1.44198         0.84801        0.748463        0.874746 
        1.44809        0.838818        0.741211        0.870755 
        1.45423        0.832877        0.734029        0.859679 
        1.46036         0.82472        0.726957        0.853272 
        1.46649        0.816573        0.719975        0.847984 
        1.47263         0.80834        0.713081        0.839602 
        1.47877        0.805533        0.706281        0.831971 
        1.48491        0.793047         0.69956        0.825918 
        1.49104        0.790675        0.692941        0.816786 
        1.49718        0.780476        0.686403        0.811837 
        1.50333        0.775515         0.67994        0.802188 
        1.50947        0.769275        0.673574         0.79501 
         1.5156        0.761513          0.6673        0.790206 
        1.52172        0.755997        0.661106        0.782345 
        1.52787        0.746908        0.654979        0.775572 
          1.534        0.743015        0.648937        0.770043 
        1.54013         0.73616        0.642979        0.763439 
        1.54627        0.729474        0.637085        0.756489 
        1.55241        0.722204        0.631265        0.750099 
        1.55855        0.716792        0.625526        0.744075 
        1.56467        0.711257        0.619875        0.738739 
         1.5708        0.704251        0.614278        0.731469 
        1.57695        0.697917        0.608743         0.72488 
        1.58308         0.69024        0.603289        0.720445 
        1.58922        0.687408        0.597898        0.714679 
        1.59535         0.67996        0.592577        0.708205 
         1.6015        0.674519        0.587313        0.701651 
        1.60764        0.669375        0.582116        0.697005 
        1.61376        0.663677        0.576996        0.693185 
        1.61989        0.658207        0.571935        0.686949 
        1.62604        0.652407        0.566924        0.681111 
        1.63218        0.648463        0.561976        0.676021 
        1.63831        0.641709        0.557099         0.67065 
        1.64444        0.637117        0.552278        0.664726 
        1.65059         0.63134        0.547504        0.659312 
        1.65673        0.626614        0.542792        0.654668 
        1.66285        0.622273        0.538148        0.649809 
        1.66898        0.616692        0.533558         0.64417 
        1.67512        0.610833        0.529013         0.63917 
        1.68127        0.605454        0.524517        0.634725 
         1.6874        0.602279        0.520084        0.630291 
        1.69353        0.597222        0.515705        0.625289 
        1.69967        0.592125        0.511366        0.619803 
        1.70581        0.588445        0.507079        0.615193 
        1.71193        0.584204        0.502859        0.611103 
        1.71806        0.579143        0.498677        0.606169 
        1.72421         0.57418        0.494536        0.602235 
        1.73035         0.56874        0.490446        0.597589 
        1.73649        0.566906        0.486404        0.591854 
        1.74262        0.560374        0.482411        0.587579 
        1.74876        0.557582        0.478461        0.584252 
        1.75489        0.553079        0.474563          0.5802 
        1.76101        0.547888         0.47071        0.575286 
        1.76715        0.544505        0.466895        0.571467 
        1.77329        0.540113        0.463118        0.567803 
        1.77943        0.535803        0.459382        0.563519 
        1.78557        0.533481        0.455692        0.558851 
        1.79171        0.529028        0.452043        0.554266 
        1.79785        0.524179        0.448433        0.550467 
        1.80399        0.519188        0.444864        0.547229 
        1.81012        0.516696        0.441339        0.542054 
        1.81625        0.513585        0.437853        0.537828 
        1.82239        0.509838        0.434401        0.535581 
        1.82853          0.5053        0.430987        0.532282 
        1.83466        0.501394        0.427614        0.527971 
        1.84078        0.497097         0.42428        0.523827 
        1.84692        0.494169        0.420977        0.520741 
        1.85306        0.490853        0.417706        0.516659 
         1.8592         0.48709        0.414474        0.512298 
        1.86533        0.484339        0.411279        0.509356 
        1.87147        0.479678        0.408114        0.506099 
