# k  (h/Mpc)    Pcb(k)  (Mpc/h)^3    Pcb_linear(k) (Mpc/h)^3    Pcb_NL(k) (Mpc/h)^3   ShotnoiseSubtracted = false
     0.00783031         3483.69         3500.86         3499.15 
       0.013688         4609.24         4680.61         4662.71 
       0.019231         5016.12         5056.14         5026.55 
      0.0249154         4965.28         4966.31         4939.01 
      0.0312784          4543.5         4568.84          4544.7 
      0.0375637         4047.65          4086.8         4063.11 
      0.0433917         3669.75         3678.51         3654.61 
      0.0492413         3324.36         3351.84         3328.16 
      0.0555754         3083.08         3091.77         3067.32 
      0.0619321         2835.93         2897.94         2872.28 
       0.067871         2707.95         2741.18         2714.75 
      0.0738098         2554.62         2579.37         2545.64 
      0.0800417          2372.1         2389.26         2356.58 
      0.0862327         2158.78          2182.4         2157.88 
      0.0921407         1961.78         1982.46         1959.79 
      0.0982031         1787.74         1792.55         1779.77 
       0.104506         1607.75         1626.33         1621.65 
       0.110769         1485.65         1498.85         1490.09 
       0.116806          1415.3         1408.65         1399.94 
       0.122832         1333.61         1341.67         1335.47 
       0.129052         1281.03         1284.58          1278.5 
       0.135211         1236.03         1228.74         1223.11 
       0.141259         1163.98         1167.44         1165.27 
       0.147318         1083.62         1097.82         1100.91 
       0.153489         1018.56         1021.52         1019.48 
       0.159709         957.532         945.221         950.075 
       0.165845         874.797         876.712         892.704 
       0.171974         841.641         819.159           835.5 
       0.178125         800.779         773.574         797.837 
       0.184229         751.899         738.903         763.257 
        0.19034          734.61         711.385         735.517 
       0.196428         711.288         687.094          706.39 
       0.202534         672.213         662.311         683.471 
       0.208729         656.753         634.517         654.057 
       0.214876         632.043          603.92         631.209 
       0.220989         588.737         571.707         602.267 
       0.227147         572.676         539.545         571.257 
        0.23329         548.111         509.851         548.186 
       0.239377         530.427          484.24         525.593 
       0.245482         503.911          462.85         501.297 
       0.251667         483.915         445.097         487.329 
       0.257832         478.181         430.181         471.959 
       0.263955         454.692         416.712         457.471 
       0.270079         440.859         403.305         443.345 
        0.27624         422.539         389.106         427.919 
       0.282372         411.455         374.053         414.324 
        0.28843         407.102         358.617         399.336 
       0.294538         387.571         343.155          386.72 
       0.300721         371.831         328.331         375.031 
        0.30691         365.273         314.897         363.392 
       0.313033         350.504          303.21         350.817 
       0.319153          344.39         293.051         342.471 
       0.325316         333.719         283.984         335.268 
        0.33145         325.479         275.664         324.226 
       0.337538         315.655         267.636         315.674 
       0.343633          306.29         259.533         309.486 
       0.349808         297.996         251.124         302.141 
       0.355968          290.83         242.604         295.503 
       0.362074         284.497         234.232         287.021 
       0.368217         279.012         226.114         277.339 
       0.374374         273.019         218.504         271.394 
       0.380519         261.749         211.529          264.26 
       0.386598         256.792          205.25         258.465 
       0.392688         250.749         199.485          253.49 
        0.39888          245.64         193.996         246.952 
       0.405048          240.97         188.755          243.04 
       0.411186         237.471         183.628         238.071 
       0.417313         232.005         178.524         231.117 
       0.423458         226.259         173.435         226.622 
       0.429607         222.245         168.405         221.788 
       0.435692             218         163.566         217.466 
       0.441815         212.709         158.915         214.776 
       0.447964         206.854         154.504         209.656 
       0.454126         203.233         150.354         204.527 
       0.460267         201.594         146.476         202.126 
       0.466387         197.416         142.819          197.84 
        0.47254         195.225         139.286         194.638 
       0.478662         188.994         135.871         190.909 
       0.484765         186.527          132.54         186.502 
       0.490885         183.083         129.254         184.226 
       0.497035         181.716         126.009         181.715 
       0.503198         177.804         122.842          178.18 
       0.509342         173.378         119.794         175.588 
       0.515458          171.75         116.881         173.948 
       0.521598         167.672         114.081         169.778 
       0.527764         165.939         111.396         166.101 
       0.533884          164.99          108.85         163.993 
           0.54         160.812         106.402         161.752 
       0.546137         157.099         104.021         160.006 
       0.552299         155.473         101.689         156.742 
       0.558452         152.701         99.4169         154.179 
       0.564573         152.119         97.2126         152.699 
       0.570708          147.96         95.0597         150.331 
       0.576825         146.363         92.9717         147.882 
       0.582926         144.829          90.952         145.748 
       0.589034         142.677          88.997         144.284 
       0.595184         141.139         87.0993          142.12 
       0.601379         137.601         85.2575         140.788 
       0.607522         135.904         83.4917         137.942 
       0.613639         134.688         81.7855         136.585 
       0.619772          132.71         80.1203         134.374 
       0.625918         131.365          78.493         133.478 
       0.632068         129.199         76.9063         131.084 
       0.638161         127.069         75.3755         130.067 
         0.6443         126.462         73.8746         127.945 
       0.650464         124.134         72.4098         125.844 
       0.656582         123.579         70.9964         125.063 
       0.662703         122.111         69.6217         123.025 
       0.668861         119.609         68.2773         121.896 
       0.675024         119.465         66.9691         120.231 
       0.681124         117.597         65.7104         118.859 
       0.687237          115.33         64.4831         117.324 
       0.693381         114.883         63.2825         115.927 
       0.699536         113.554          62.111         115.268 
       0.705665         111.743         60.9743         114.189 
       0.711789          110.33         59.8668         111.953 
       0.717957         109.148         58.7785         111.289 
        0.72409         108.428         57.7229         110.673 
       0.730186         107.568         56.6995         109.166 
       0.736317         105.672         55.6955         107.714 
       0.742472         104.672         54.7124         106.721 
       0.748622         103.126         53.7545         105.459 
        0.75476         102.227         52.8224         104.444 
       0.760888         101.835         51.9146         103.276 
       0.767043         100.067         51.0252         102.722 
       0.773185         99.0909         50.1591         101.866 
       0.779291         97.9871         49.3184         100.816 
       0.785407         96.5935         48.4961          99.509 
       0.791564         96.6471         47.6876         98.5518 
       0.797719         95.6042         46.8982         97.8426 
       0.803834         94.5075         46.1317         96.6775 
       0.809972         93.8494         45.3798          95.935 
       0.816124         92.8619         44.6431         95.2461 
       0.822261         91.6441          43.925         94.0497 
       0.828378         91.3451          43.225         92.8935 
       0.834502         90.0146         42.5398         92.7651 
       0.840667         89.5373         41.8652         91.8534 
       0.846816         88.4366         41.2074          90.968 
       0.852925          87.899         40.5681         90.3511 
       0.859047          87.367         39.9412          89.212 
       0.865192         86.0116         39.3257         88.6698 
       0.871341         85.2008         38.7229         87.8556 
       0.877463         84.7455         38.1357         87.2408 
       0.883569         84.3886         37.5623         86.6662 
       0.889708         83.6054         36.9979         85.7764 
       0.895864         82.7749         36.4438         85.1442 
       0.902008         82.0252         35.9025         84.4598 
       0.908149         81.3347         35.3725         83.8078 
       0.914301         80.8779         34.8526           83.36 
       0.920448         80.3526         34.3437         82.5142 
       0.926574          78.902         33.8469         81.5736 
       0.932687         78.5919         33.3611         81.2701 
       0.938823         77.9031         32.8832         80.4655 
       0.944975         77.1629         32.4137         79.7768 
       0.951105         76.4927         31.9552         79.4637 
       0.957225         76.3997         31.5065         78.8433 
       0.963368         75.5423         31.0649         78.0226 
       0.969511         74.9248         30.6319         77.5234 
       0.975621         74.3861         30.2096         77.3221 
       0.981748         73.6174         29.7942         76.5617 
       0.987916         73.1022         29.3842         76.0674 
        0.99406          72.647         28.9835           75.58 
        1.00019         71.9976         28.5911         75.0336 
        1.00632         71.5192         28.2064         74.5571 
        1.01246         70.9941         27.8284         73.9436 
        1.01859         70.5627         27.4579          73.418 
        1.02471         69.7441         27.0948          73.032 
        1.03085         69.4867          26.737         72.4793 
        1.03698         68.9414         26.3865         71.9336 
        1.04314         68.5648         26.0409         71.3629 
        1.04929         67.8937         25.7024         71.1182 
        1.05541         67.4924         25.3713         70.8202 
        1.06154         67.2097         25.0453         70.0972 
        1.06769          66.268         24.7246         69.7082 
        1.07382         66.0918         24.4106         69.3175 
        1.07993         65.6016         24.1028           68.72 
        1.08607          65.104         23.7992         68.2813 
        1.09222         64.7997         23.5005         67.9189 
        1.09836         64.2662         23.2074         67.5253 
        1.10449         63.8958         22.9196         66.9658 
        1.11063         63.3476         22.6365         66.5925 
        1.11677         63.3102         22.3583         66.2121 
         1.1229         62.5851         22.0854         65.8322 
        1.12903         62.4318         21.8168         65.4203 
        1.13518         62.1838         21.5525         64.9379 
        1.14131         61.4951         21.2927         64.6754 
        1.14745         60.8639         21.0375         64.2533 
        1.15359         60.4244         20.7864         64.0792 
        1.15973         60.2232         20.5394         63.5758 
        1.16584         59.8594         20.2975         63.1566 
        1.17197         59.1644         20.0592         62.7256 
        1.17811         58.9575          19.824         62.2404 
        1.18424         58.3091         19.5934         61.9358 
        1.19038         58.1639         19.3658         61.8355 
        1.19652         57.9195         19.1419          61.253 
        1.20267         57.5303         18.9216         61.1155 
        1.20881         57.1371         18.7049          60.675 
        1.21495         56.8514         18.4919         60.4514 
        1.22108         56.6031         18.2823         59.9764 
         1.2272          56.232         18.0765         59.7609 
        1.23334           55.85         17.8734         59.4237 
        1.23949         55.5133          17.673         58.9748 
        1.24562         55.0205         17.4763         58.6922 
        1.25174         54.7435         17.2828         58.4549 
        1.25789         54.7306         17.0917         58.0574 
        1.26402         54.2739         16.9039         57.7418 
        1.27014         53.8699         16.7194         57.4572 
        1.27628         53.4275         16.5371         57.1175 
        1.28244         53.3073         16.3572          56.964 
        1.28858          52.882         16.1803         56.5923 
        1.29471         52.7063         16.0064         56.3291 
        1.30084         52.2483         15.8352         55.9468 
        1.30697         52.0563         15.6663         55.6041 
        1.31312         51.6192         15.4996         55.4511 
        1.31925          51.308         15.3359         55.1364 
        1.32537         51.0817         15.1748         54.8704 
        1.33151         50.7486         15.0154           54.61 
        1.33765         50.5529         14.8584         54.3619 
        1.34378         50.3255          14.704         54.0541 
        1.34992         49.9909         14.5517         53.7923 
        1.35606         49.7162         14.4013         53.6348 
         1.3622         49.3014         14.2533         53.3639 
        1.36833         49.0525         14.1077         53.0764 
        1.37445         48.7996         13.9643         52.7665 
        1.38059         48.5604         13.8224         52.5832 
        1.38675         48.0979         13.6822         52.3371 
        1.39288         48.0675         13.5445         52.1282 
        1.39901         47.7091         13.4087         51.8734 
        1.40515         47.5088         13.2746         51.5537 
         1.4113         47.4541         13.1423         51.3377 
        1.41742         47.1314         13.0124          51.208 
        1.42355         46.6804          12.884         50.7677 
         1.4297         46.4243         12.7569         50.5367 
        1.43585         46.1088         12.6317         50.4189 
        1.44198         45.9414         12.5086         50.1727 
        1.44809          45.727         12.3874         49.8667 
        1.45423          45.546         12.2674         49.6092 
        1.46036         45.2661         12.1492         49.3946 
        1.46649         45.0471         12.0325         49.2019 
        1.47263         44.7305         11.9173         49.0325 
        1.47877         44.6046         11.8036         48.8574 
        1.48491         44.4333         11.6913         48.4943 
        1.49104         44.0793         11.5807         48.3378 
        1.49718         43.8862         11.4714          48.102 
        1.50333         43.7828         11.3634         47.9618 
        1.50947         43.4119          11.257         47.8125 
         1.5156         43.2457         11.1522         47.5585 
        1.52172         42.8928         11.0487         47.2835 
        1.52787         42.7061         10.9463         47.0738 
          1.534         42.5442         10.8453         46.9216 
        1.54013         42.3441         10.7457         46.6571 
        1.54627          42.004         10.6472          46.417 
        1.55241         41.8978         10.5499         46.2906 
        1.55855         41.6759          10.454         46.1421 
        1.56467         41.5779         10.3596         45.9049 
         1.5708         41.3223         10.2661         45.7324 
        1.57695         41.0799         10.1735         45.5085 
        1.58308         40.7458         10.0824         45.2558 
        1.58922         40.5505         9.99231         45.1699 
        1.59535         40.4397         9.90336         45.0368 
         1.6015         40.2785         9.81539         44.7625 
        1.60764          40.114         9.72854         44.5377 
        1.61376         39.8403         9.64298         44.4032 
        1.61989         39.5822         9.55839         44.1611 
        1.62604         39.4538         9.47464         44.0844 
        1.63218         39.2255         9.39195         43.9746 
        1.63831         39.1371         9.31045         43.6956 
        1.64444         38.8883         9.22989         43.4846 
        1.65059         38.6861         9.15009          43.347 
        1.65673         38.5054         9.07134         43.1798 
        1.66285         38.3536         8.99374         43.0148 
        1.66898         38.1174         8.91703         42.8887 
        1.67512         38.0175         8.84107         42.7043 
        1.68127         37.7748         8.76593         42.4987 
         1.6874         37.6147         8.69184         42.2979 
        1.69353         37.4613         8.61865         42.1053 
        1.69967         37.2633         8.54614         41.9497 
        1.70581         36.9397          8.4745         41.8562 
        1.71193         36.7521         8.40397         41.7272 
        1.71806         36.7061         8.33408         41.4504 
        1.72421         36.5874         8.26487         41.2782 
        1.73035         36.3301         8.19652         41.1716 
        1.73649          36.103         8.12897         41.0224 
        1.74262         35.9222         8.06224         40.8182 
        1.74876         35.7218         7.99622         40.6641 
        1.75489         35.6344         7.93108         40.5354 
        1.76101         35.5186         7.86669         40.3803 
        1.76715         35.3098         7.80293         40.2168 
        1.77329         35.1259         7.73981         40.0525 
        1.77943         35.0383         7.67736         39.9175 
        1.78557         34.8318          7.6157         39.8097 
        1.79171         34.6601         7.55472         39.6404 
        1.79785         34.4712         7.49439         39.4834 
        1.80399         34.3674         7.43474          39.399 
        1.81012         34.2187         7.37582         39.1694 
        1.81625         33.9667         7.31757          38.951 
        1.82239         33.8599         7.25987         38.8572 
        1.82853         33.7104         7.20282         38.7522 
        1.83466         33.5428         7.14644         38.6246 
        1.84078         33.3664         7.09073         38.5039 
        1.84692         33.2463         7.03553         38.4032 
        1.85306         33.0504         6.98085         38.2208 
         1.8592         32.9378         6.92684         38.0217 
        1.86533         32.7297         6.87344         37.9147 
        1.87147         32.6023         6.82055         37.7981 
