# k  (h/Mpc)    P(k)  (Mpc/h)^3    P_linear(k)  (Mpc/h)^3     P_NL(k)  ShotnoiseSubtracted = false
     0.00783031         206.594         207.955         207.773 
       0.013688         276.037         278.155         277.292 
       0.019231         299.612         300.529         299.217 
      0.0249154         294.788         295.221         294.318 
      0.0312784         271.272         271.612         271.246 
      0.0375637         242.661         242.965         242.795 
      0.0433917         218.958         218.697         218.701 
      0.0492413         199.234          199.28         199.317 
      0.0555754         184.125          183.82         183.801 
      0.0619321         171.681         172.298         172.241 
       0.067871         162.806         162.979         162.843 
      0.0738098         153.234         153.359         153.154 
      0.0800417          142.09         142.057         141.872 
      0.0862327         129.653         129.758         129.636 
      0.0921407          117.74         117.871         117.805 
      0.0982031         106.678          106.58         106.583 
       0.104506         96.5052          96.697          96.746 
       0.110769         88.9702         89.1179         89.1486 
       0.116806         83.8675         83.7549         83.7528 
       0.122832         79.6259         79.7727          79.764 
       0.129052         76.3568         76.3783         76.3484 
       0.135211         73.1205         73.0583         73.0156 
       0.141259         69.3109         69.4136         69.3827 
       0.147318         65.0091         65.2739         65.2737 
       0.153489         60.6319         60.7373         60.7301 
       0.159709         56.1971         56.2009         56.2326 
       0.165845         51.8877         52.1275         52.2131 
       0.171974         48.7943         48.7056         48.7905 
       0.178125         46.0687         45.9952         46.1105 
       0.184229         43.8733         43.9337         44.0476 
        0.19034         42.4013         42.2976         42.4029 
       0.196428         40.8881         40.8534         40.9279 
       0.202534         39.2048         39.3797         39.4574 
       0.208729         37.7093         37.7272         37.8018 
       0.214876         36.0228          35.908          36.018 
       0.220989         33.8671         33.9927         34.1198 
       0.227147         32.2261         32.0804         32.2117 
        0.23329         30.4941         30.3148          30.479 
       0.239377         28.9968         28.7921          28.976 
       0.245482          27.695         27.5203         27.6895 
       0.251667         26.5502         26.4648         26.6495 
       0.257832         25.7702         25.5778         25.7582 
       0.263955         24.8782          24.777         24.9468 
       0.270079         24.0729         23.9798         24.1412 
        0.27624          23.143         23.1355         23.2878 
       0.282372         22.2756         22.2405         22.4052 
        0.28843         21.4917         21.3228          21.494 
       0.294538         20.5505         20.4034         20.5867 
       0.300721         19.6038          19.522         19.7216 
        0.30691         18.9078         18.7233         18.9273 
       0.313033         18.1851         18.0283         18.2299 
       0.319153         17.7051         17.4244           17.64 
       0.325316         16.9888         16.8852         17.1081 
        0.33145         16.4975         16.3905         16.5999 
       0.337538         16.0497         15.9132         16.1155 
       0.343633         15.5942         15.4314         15.6323 
       0.349808         15.0725         14.9314         15.1393 
       0.355968         14.5498         14.4249         14.6582 
       0.362074         14.1043         13.9271         14.1513 
       0.368217         13.6194         13.4444         13.6521 
       0.374374         13.2453         12.9919         13.2176 
       0.380519         12.7479         12.5772         12.7967 
       0.386598         12.3554         12.2039         12.4313 
       0.392688         11.9971          11.861         12.0874 
        0.39888         11.7035         11.5347          11.758 
       0.405048         11.3997         11.2231         11.4351 
       0.411186         11.0803         10.9182         11.1514 
       0.417313         10.7867         10.6148         10.8384 
       0.423458         10.4453         10.3122           10.54 
       0.429607         10.1992         10.0131         10.2343 
       0.435692         9.92936         9.72538         9.95611 
       0.441815         9.61659         9.44882         9.69288 
       0.447964         9.31947          9.1866         9.42358 
       0.454126         9.12075         8.93978         9.17348 
       0.460267         8.93522         8.70927         8.94891 
       0.466387         8.68929         8.49177         8.72177 
        0.47254         8.49699         8.28174         8.51393 
       0.478662         8.27783         8.07868          8.3067 
       0.484765         8.08428         7.88064         8.11098 
       0.490885         7.86944         7.68526         7.93062 
       0.497035         7.65316          7.4923         7.73918 
       0.503198         7.48919           7.304         7.53291 
       0.509342         7.28373         7.12275         7.35844 
       0.515458         7.14078         6.94955         7.19571 
       0.521598         6.97348         6.78306         7.01204 
       0.527764         6.84313         6.62345         6.85192 
       0.533884         6.64281         6.47206         6.70214 
           0.54         6.50915         6.32651         6.55262 
       0.546137         6.34205         6.18491         6.41569 
       0.552299         6.21941         6.04626         6.26318 
       0.558452         6.08619         5.91118         6.13128 
       0.564573         5.96437         5.78012         6.01642 
       0.570708         5.83255          5.6521         5.88388 
       0.576825         5.70923         5.52795         5.75601 
       0.582926         5.57719         5.40787          5.6397 
       0.589034         5.48234         5.29162         5.52955 
       0.595184         5.38075         5.17879          5.3969 
       0.601379         5.24791         5.06929         5.30192 
       0.607522         5.14124         4.96429         5.19343 
       0.613639         5.02031         4.86284         5.08906 
       0.619772          4.9453         4.76383         4.99681 
       0.625918         4.84276         4.66707         4.89201 
       0.632068         4.75626         4.57273         4.79477 
       0.638161         4.65856         4.48171         4.70249 
         0.6443         4.56549         4.39247         4.60976 
       0.650464         4.47355         4.30538         4.53091 
       0.656582         4.40975         4.22134         4.44359 
       0.662703         4.32502          4.1396         4.35916 
       0.668861         4.21859         4.05966         4.28543 
       0.675024         4.15024         3.98188         4.20208 
       0.681124         4.11432         3.90704         4.12452 
       0.687237         4.01771         3.83407         4.04408 
       0.693381         3.92255         3.76268         3.96805 
       0.699536         3.87975         3.69303         3.90071 
       0.705665         3.80708         3.62544         3.84516 
       0.711789         3.72413         3.55959         3.77584 
       0.717957         3.66025         3.49488         3.70444 
        0.72409         3.60055         3.43212         3.64199 
       0.730186         3.55446         3.37127         3.57545 
       0.736317         3.48104         3.31157         3.51424 
       0.742472         3.43052         3.25312         3.46669 
       0.748622         3.37536         3.19616         3.40853 
        0.75476         3.30445         3.14074         3.34435 
       0.760888         3.26485         3.08677         3.29217 
       0.767043         3.17947         3.03388         3.24114 
       0.773185         3.14084         2.98238         3.19172 
       0.779291          3.1101          2.9324         3.14024 
       0.785407         3.04919         2.88351         3.08809 
       0.791564         3.00214         2.83544         3.03994 
       0.797719          2.9512         2.78849         2.98549 
       0.803834         2.90399         2.74292         2.94229 
       0.809972         2.85844         2.69821          2.9028 
       0.816124         2.81362         2.65441         2.85176 
       0.822261          2.7751         2.61171           2.808 
       0.828378         2.72545         2.57009         2.76579 
       0.834502         2.68677         2.52935          2.7213 
       0.840667         2.65271         2.48925         2.68322 
       0.846816         2.60957         2.45013         2.65057 
       0.852925         2.56407         2.41212         2.60797 
       0.859047         2.52829         2.37484         2.57517 
       0.865192         2.49146         2.33825         2.53412 
       0.871341         2.45805          2.3024          2.4958 
       0.877463         2.41538         2.26749         2.45843 
       0.883569         2.38223          2.2334         2.42704 
       0.889708         2.35352         2.19984         2.39258 
       0.895864         2.31979          2.1669         2.35719 
       0.902008         2.27926         2.13471         2.32422 
       0.908149         2.25292          2.1032         2.29406 
       0.914301         2.22623         2.07228         2.25872 
       0.920448         2.19429         2.04203         2.22648 
       0.926574           2.171         2.01249         2.19816 
       0.932687         2.13694          1.9836         2.16375 
       0.938823          2.0992         1.95519         2.14346 
       0.944975         2.07799         1.92727          2.1063 
       0.951105         2.04021         1.90001         2.07899 
       0.957225         2.01485         1.87333         2.05687 
       0.963368         1.99455         1.84707         2.02649 
       0.969511         1.97086         1.82133         2.00061 
       0.975621         1.93862         1.79622         1.96836 
       0.981748         1.90501         1.77152          1.9449 
       0.987916         1.88394         1.74714         1.92594 
        0.99406         1.86603         1.72331         1.90214 
        1.00019         1.84001         1.69998         1.87795 
        1.00632         1.82316         1.67711          1.8513 
        1.01246         1.79609         1.65463          1.8269 
        1.01859         1.77323         1.63261         1.80591 
        1.02471         1.74443         1.61101         1.78425 
        1.03085         1.72374         1.58974         1.75797 
        1.03698         1.70584          1.5689         1.73576 
        1.04314         1.68583         1.54835          1.7165 
        1.04929         1.66768         1.52823         1.69569 
        1.05541         1.63931         1.50854         1.67767 
        1.06154         1.62464         1.48916         1.65737 
        1.06769          1.6074         1.47009         1.63666 
        1.07382         1.58542         1.45142         1.61727 
        1.07993         1.56655         1.43312         1.59793 
        1.08607         1.54897         1.41506         1.57967 
        1.09222         1.52648         1.39731          1.5592 
        1.09836         1.51345         1.37988         1.54304 
        1.10449         1.48963         1.36277         1.52517 
        1.11063         1.47305         1.34593         1.50509 
        1.11677         1.45944         1.32939         1.49032 
         1.1229         1.43612         1.31316         1.47363 
        1.12903         1.42552         1.29719         1.45623 
        1.13518         1.40543         1.28148         1.44035 
        1.14131         1.39207         1.26603         1.42456 
        1.14745         1.37892         1.25086         1.40583 
        1.15359         1.36075         1.23593         1.39202 
        1.15973          1.3473         1.22124         1.37802 
        1.16584         1.32909         1.20686         1.36113 
        1.17197         1.31364         1.19269         1.34637 
        1.17811         1.29872         1.17871          1.3334 
        1.18424         1.28476         1.16499         1.31633 
        1.19038         1.26867         1.15146         1.30288 
        1.19652         1.26053         1.13815         1.28996 
        1.20267         1.24754         1.12505         1.27258 
        1.20881          1.2277         1.11216         1.26178 
        1.21495         1.21785          1.0995         1.25146 
        1.22108          1.2052         1.08704          1.2355 
         1.2272          1.1883          1.0748          1.2206 
        1.23334         1.17851         1.06273         1.20947 
        1.23949         1.16839         1.05081          1.1991 
        1.24562          1.1548         1.03911         1.18625 
        1.25174         1.14257         1.02761         1.17212 
        1.25789          1.1275         1.01625         1.15982 
        1.26402         1.11719         1.00508         1.14831 
        1.27014         1.10315        0.994112         1.13672 
        1.27628         1.09536        0.983274         1.12501 
        1.28244         1.08474        0.972577         1.11371 
        1.28858         1.07073        0.962056          1.1007 
        1.29471         1.05959        0.951715         1.09122 
        1.30084         1.04994        0.941537         1.08308 
        1.30697         1.04247        0.931494         1.07141 
        1.31312         1.03061        0.921584         1.06036 
        1.31925            1.02        0.911851         1.05126 
        1.32537         1.01015         0.90227         1.04118 
        1.33151        0.999431        0.892794         1.03084 
        1.33765        0.989433         0.88346         1.02087 
        1.34378        0.977663         0.87428         1.01162 
        1.34992         0.97258        0.865225         1.00229 
        1.35606        0.960861         0.85628        0.990584 
         1.3622        0.952114        0.847479        0.981703 
        1.36833        0.943823        0.838823        0.973661 
        1.37445        0.934947        0.830294        0.965069 
        1.38059        0.925129        0.821859        0.955069 
        1.38675        0.916134        0.813521        0.945977 
        1.39288        0.906253        0.805334        0.936941 
        1.39901        0.899598        0.797263        0.929045 
        1.40515        0.889895        0.789287        0.919811 
         1.4113        0.885089        0.781423        0.912164 
        1.41742        0.874384        0.773698        0.906174 
        1.42355        0.863337        0.766063        0.894235 
         1.4297         0.85994        0.758509        0.888641 
        1.43585        0.849121        0.751062        0.880444 
        1.44198        0.842662        0.743743         0.86923 
        1.44809        0.833529        0.736537        0.865264 
        1.45423        0.827625        0.729401        0.854258 
        1.46036         0.81952        0.722372        0.847891 
        1.46649        0.811424        0.715435        0.842637 
        1.47263        0.803243        0.708585        0.834308 
        1.47877        0.800453        0.701827        0.826725 
        1.48491        0.788046        0.695148         0.82071 
        1.49104         0.78569        0.688571        0.811635 
        1.49718        0.775554        0.682075        0.806717 
        1.50333        0.770624        0.675653        0.797129 
        1.50947        0.764424        0.669327        0.789997 
         1.5156        0.756711        0.663092        0.785223 
        1.52172         0.75123        0.656937        0.777411 
        1.52787        0.742198        0.650849        0.770681 
          1.534         0.73833        0.644845        0.765187 
        1.54013        0.731518        0.638924        0.758625 
        1.54627        0.724875        0.633068        0.751718 
        1.55241        0.717649        0.627284        0.745369 
        1.55855        0.712272        0.621581        0.739383 
        1.56467        0.706772        0.615966         0.73408 
         1.5708        0.699811        0.610405        0.726856 
        1.57695        0.693516        0.604904        0.720309 
        1.58308        0.685887        0.599485        0.715902 
        1.58922        0.683073        0.594128        0.710172 
        1.59535        0.675672         0.58884        0.703739 
         1.6015        0.670266        0.583609        0.697226 
        1.60764        0.665155        0.578445         0.69261 
        1.61376        0.659492        0.573358        0.688813 
        1.61989        0.654057        0.568328        0.682617 
        1.62604        0.648293        0.563349        0.676816 
        1.63218        0.644374        0.558432        0.671758 
        1.63831        0.637662        0.553586        0.666421 
        1.64444        0.633099        0.548796        0.660535 
        1.65059        0.627359        0.544052        0.655155 
        1.65673        0.622663        0.539369         0.65054 
        1.66285        0.618349        0.534755        0.645711 
        1.66898        0.612803        0.530194        0.640108 
        1.67512        0.606981        0.525677        0.635139 
        1.68127        0.601636         0.52121        0.630723 
         1.6874        0.598481        0.516804        0.626317 
        1.69353        0.593456        0.512453        0.621346 
        1.69967        0.588392        0.508141        0.615894 
        1.70581        0.584734        0.503882        0.611313 
        1.71193         0.58052        0.499688        0.607249 
        1.71806        0.575491        0.495533        0.602347 
        1.72421        0.570559        0.491417        0.598437 
        1.73035        0.565154        0.487353        0.593821 
        1.73649        0.563331        0.483337        0.588122 
        1.74262        0.556841        0.479369        0.583874 
        1.74876        0.554066        0.475444        0.580568 
        1.75489        0.549591        0.471571        0.576541 
        1.76101        0.544433        0.467742        0.571659 
        1.76715        0.541071        0.463951        0.567864 
        1.77329        0.536708        0.460198        0.564223 
        1.77943        0.532424        0.456485        0.559966 
        1.78557        0.530117        0.452819        0.555327 
        1.79171        0.525692        0.449193        0.550771 
        1.79785        0.520874        0.445606        0.546996 
        1.80399        0.515915        0.442059        0.543778 
        1.81012        0.513438        0.438556        0.538636 
        1.81625        0.510346        0.435092        0.534436 
        1.82239        0.506623        0.431661        0.532204 
        1.82853        0.502114        0.428269        0.528926 
        1.83466        0.498232        0.424917        0.524641 
        1.84078        0.493963        0.421605        0.520524 
        1.84692        0.491053        0.418323        0.517457 
        1.85306        0.487757        0.415072        0.513401 
         1.8592        0.484018         0.41186        0.509068 
        1.86533        0.481285        0.408685        0.506145 
        1.87147        0.476653         0.40554        0.502907 
        1.87761        0.473356        0.402427        0.499641 
