# k  (h/Mpc)    Pcb(k)  (Mpc/h)^3    Pcb_linear(k) (Mpc/h)^3    Pcb_NL(k) (Mpc/h)^3   ShotnoiseSubtracted = false
     0.00783031         5222.93         5246.63         5243.59 
       0.013688         6889.86         7014.31         6984.48 
       0.019231          7502.7         7576.84         7526.76 
      0.0249154          7438.1         7442.08         7391.11 
      0.0312784         6792.75         6846.37         6795.24 
      0.0375637         6043.28         6123.97         6072.04 
      0.0433917         5484.72         5512.13         5457.13 
      0.0492413          4961.9         5022.61         4967.38 
      0.0555754         4603.09         4632.89         4576.74 
      0.0619321          4217.7         4342.43         4283.76 
       0.067871         4032.54         4107.52         4048.29 
      0.0738098         3807.34         3865.05         3790.01 
      0.0800417         3534.29         3580.18         3507.31 
      0.0862327         3215.03          3270.2         3214.96 
      0.0921407         2923.69          2970.6         2918.84 
      0.0982031         2669.14         2686.04         2655.39 
       0.104506         2398.48         2436.96         2423.73 
       0.110769         2218.09         2245.94         2224.33 
       0.116806            2118         2110.78         2089.44 
       0.122832         1993.42         2010.42         1994.41 
       0.129052         1912.69         1924.87         1909.45 
       0.135211         1850.51          1841.2         1826.49 
       0.141259         1739.12         1749.34         1742.54 
       0.147318          1617.2         1645.01         1648.54 
       0.153489         1523.56         1530.68         1524.04 
       0.159709         1440.16         1416.36          1424.2 
       0.165845         1313.99          1313.7         1344.37 
       0.171974         1270.54         1227.46         1259.82 
       0.178125         1214.06         1159.15            1208 
       0.184229         1134.11          1107.2         1155.28 
        0.19034         1111.46         1065.97          1114.1 
       0.196428         1078.39         1029.57         1068.96 
       0.202534         1016.84         992.431          1035.7 
       0.208729         996.702         950.784         990.061 
       0.214876         959.282         904.936         959.426 
       0.220989         896.037         856.667         918.391 
       0.227147         873.924         808.473         873.622 
        0.23329         838.517         763.979         841.821 
       0.239377         817.558         725.602         808.582 
       0.245482         776.715         693.551         771.444 
       0.251667         747.117         666.949         752.319 
       0.257832         739.847         644.599         729.083 
       0.263955         702.856         624.416         707.416 
       0.270079         682.215         604.326         686.557 
        0.27624             654         583.049         663.613 
       0.282372         639.857         560.494         643.621 
        0.28843         634.635         537.364         621.439 
       0.294538         603.232         514.196         603.712 
       0.300721         582.382         491.983         586.726 
        0.30691         573.105         471.853         571.192 
       0.313033         549.754          454.34         552.078 
       0.319153         540.469         439.118         539.241 
       0.325316         528.224         425.531         529.434 
        0.33145         516.971         413.065         511.627 
       0.337538         499.987         401.035         499.511 
       0.343633         485.153         388.893         491.924 
       0.349808          473.21         376.293         481.268 
       0.355968         463.664         363.527         471.147 
       0.362074         451.766         350.982         458.808 
       0.368217          446.35         338.817         444.363 
       0.374374         437.284         327.414         435.467 
       0.380519         420.219         316.962           425.1 
       0.386598         414.189         307.554         417.221 
       0.392688         405.669         298.915         408.961 
        0.39888         395.742          290.69         400.239 
       0.405048         389.296         282.838         395.474 
       0.411186         385.986         275.155         385.934 
       0.417313         378.925         267.507         375.813 
       0.423458         368.843          259.88         369.285 
       0.429607         361.304         252.344         361.967 
       0.435692         354.383         245.093         355.284 
       0.441815         348.526         238.123         351.864 
       0.447964         339.721         231.515         344.481 
       0.454126         334.718         225.296         336.259 
       0.460267         330.751         219.485         333.457 
       0.466387         325.099         214.004         326.901 
        0.47254         321.132         208.711         322.128 
       0.478662         312.089         203.594         316.196 
       0.484765         308.777         198.603         309.161 
       0.490885         305.017         193.679         305.629 
       0.497035         301.127         188.816         302.088 
       0.503198         297.663         184.071         297.087 
       0.509342         289.828         179.503         293.341 
       0.515458         287.019         175.138         290.997 
       0.521598          280.75         170.942         284.861 
       0.527764         277.567          166.92         279.754 
       0.533884         277.169         163.105         276.608 
           0.54         271.028         159.437         273.083 
       0.546137         265.105         155.868         270.242 
       0.552299         263.796         152.374          265.48 
       0.558452         259.344          148.97         261.952 
       0.564573         257.537         145.667         259.718 
       0.570708         252.416         142.441         256.286 
       0.576825         248.848         139.312         251.751 
       0.582926         246.271         136.286         248.704 
       0.589034         243.272         133.356         246.362 
       0.595184         241.536         130.512          242.51 
       0.601379         236.301         127.753         241.415 
       0.607522         232.887         125.107         237.594 
       0.613639         231.018          122.55         235.169 
       0.619772         228.883         120.055         231.977 
       0.625918         226.891         117.617         230.342 
       0.632068         222.142         115.239           226.5 
       0.638161           219.6         112.945         225.307 
         0.6443         218.884         110.696         222.389 
       0.650464         215.105         108.501         218.643 
       0.656582         213.816         106.383          217.22 
       0.662703         211.829         104.324         214.753 
       0.668861         207.911         102.309         212.686 
       0.675024         207.801         100.349          209.98 
       0.681124         204.723         98.4627         208.262 
       0.687237         201.865         96.6237         205.709 
       0.693381         200.862         94.8247         203.632 
       0.699536         198.251         93.0693         202.148 
       0.705665         195.683          91.366         201.031 
       0.711789         193.603         89.7064         197.585 
       0.717957          191.68         88.0757         196.167 
        0.72409         190.581          86.494          195.45 
       0.730186         189.765         84.9605         193.259 
       0.736317         186.592          83.456         190.927 
       0.742472         184.405         81.9829         189.303 
       0.748622         181.772         80.5476         187.273 
        0.75476         181.945         79.1509         185.649 
       0.760888         180.327         77.7906         183.522 
       0.767043         177.637         76.4579         182.661 
       0.773185         175.736           75.16         181.553 
       0.779291          173.87         73.9003         179.753 
       0.785407         172.228         72.6682         177.606 
       0.791564         171.436         71.4568         176.441 
       0.797719         169.562         70.2738         175.317 
       0.803834         168.788         69.1253         173.148 
       0.809972         167.999         67.9986         172.009 
       0.816124          165.84         66.8948         171.078 
       0.822261         163.906         65.8187         169.388 
       0.828378         163.821         64.7697         167.312 
       0.834502         160.889         63.7431         166.938 
       0.840667         160.441         62.7323         166.064 
       0.846816         159.073         61.7466         164.143 
       0.852925         157.517         60.7886         162.778 
       0.859047         156.201         59.8492         161.431 
       0.865192         154.966         58.9269         160.648 
       0.871341         153.238         58.0237         159.044 
       0.877463         152.379         57.1438         158.397 
       0.883569         152.006         56.2846         157.046 
       0.889708         150.817         55.4389         156.014 
       0.895864         149.253         54.6087         155.049 
       0.902008         148.139         53.7974         153.509 
       0.908149         146.283         53.0034         152.389 
       0.914301         146.375         52.2243         151.808 
       0.920448         145.288         51.4618         150.587 
       0.926574         143.128         50.7173         148.767 
       0.932687         142.709         49.9894         147.949 
       0.938823         141.502         49.2734         147.097 
       0.944975         139.943         48.5699          146.24 
       0.951105         139.056         47.8828          145.16 
       0.957225         139.051         47.2104         144.397 
       0.963368         137.339         46.5487         142.724 
       0.969511         136.104         45.8999         142.022 
       0.975621         135.254         45.2671          142.32 
       0.981748         134.105         44.6447          140.58 
       0.987916         133.214         44.0302         140.053 
        0.99406         132.673         43.4298         138.931 
        1.00019         131.284         42.8418         137.809 
        1.00632         130.724         42.2655         137.079 
        1.01246         129.654          41.699          135.99 
        1.01859         128.935         41.1439         135.347 
        1.02471         127.831         40.5997         134.851 
        1.03085         126.855         40.0636          133.82 
        1.03698         126.113         39.5384         132.718 
        1.04314         125.284         39.0206         132.159 
        1.04929         124.795         38.5133         131.699 
        1.05541         123.939         38.0172         130.964 
        1.06154         123.157         37.5287          130.16 
        1.06769         121.896         37.0481         129.428 
        1.07382         121.084         36.5777         128.592 
        1.07993         120.653         36.1165         127.755 
        1.08607         119.514         35.6615         126.989 
        1.09222         119.213          35.214         126.017 
        1.09836          117.88         34.7747          125.37 
        1.10449         117.325         34.3435         124.704 
        1.11063         116.429         33.9193         123.703 
        1.11677         115.861         33.5025         123.115 
         1.1229         114.963         33.0934         122.838 
        1.12903         114.669          32.691         121.856 
        1.13518         113.975         32.2949         121.259 
        1.14131         113.213         31.9057         120.507 
        1.14745         112.157         31.5233         119.891 
        1.15359         111.194          31.147         119.322 
        1.15973         110.893         30.7769         118.719 
        1.16584         110.141         30.4144         118.024 
        1.17197         109.335         30.0574         117.375 
        1.17811         108.693          29.705          116.59 
        1.18424          107.84         29.3594         116.041 
        1.19038           107.8         29.0183         115.713 
        1.19652         106.961         28.6829         114.723 
        1.20267         106.111         28.3528          114.29 
        1.20881         105.439          28.028          113.64 
        1.21495          105.05         27.7089         112.983 
        1.22108         104.297         27.3948         112.536 
         1.2272         103.503         27.0864         111.973 
        1.23334          103.05         26.7821          111.37 
        1.23949         102.503         26.4818         110.626 
        1.24562         101.598          26.187         110.236 
        1.25174         100.972         25.8972         109.726 
        1.25789         101.089         25.6108         109.155 
        1.26402         100.087         25.3294         108.519 
        1.27014         99.5611         25.0529         108.163 
        1.27628          98.647         24.7798         107.672 
        1.28244         98.3273         24.5102         106.809 
        1.28858         97.7267         24.2451         106.314 
        1.29471          97.199         23.9845         106.067 
        1.30084         96.4745          23.728         105.196 
        1.30697         96.4616         23.4749         104.669 
        1.31312         95.5121         23.2251         104.461 
        1.31925         95.0273         22.9799          103.84 
        1.32537         94.4288         22.7384         103.226 
        1.33151         94.1978         22.4996         102.838 
        1.33765         93.3623         22.2644          102.38 
        1.34378          93.209          22.033         101.784 
        1.34992         92.5323         21.8048         101.394 
        1.35606         91.9031         21.5794         100.893 
         1.3622         91.4406         21.3576         100.419 
        1.36833         90.7566         21.1394         99.6828 
        1.37445         90.0992         20.9245         99.3329 
        1.38059         89.8664         20.7119         99.1762 
        1.38675           89.03         20.5018         98.3393 
        1.39288         88.9598         20.2955         98.1207 
        1.39901          88.079         20.0921         97.6041 
        1.40515         87.8465         19.8911         97.1617 
         1.4113         87.4535         19.6929         96.8509 
        1.41742         86.9655         19.4982         96.3551 
        1.42355         86.2701         19.3058         95.6288 
         1.4297          85.836         19.1154         95.2273 
        1.43585         85.2689         18.9277         94.9734 
        1.44198         84.8108         18.7433         94.6935 
        1.44809         84.3489         18.5617          93.853 
        1.45423         83.8665         18.3819         93.5278 
        1.46036         83.2622         18.2047         93.2476 
        1.46649         83.1825         18.0299         92.9435 
        1.47263         82.6145         17.8573          92.564 
        1.47877         82.2394          17.687         91.9142 
        1.48491         81.7819         17.5186          91.621 
        1.49104         81.1316         17.3529         91.0078 
        1.49718         80.7797         17.1892         90.6272 
        1.50333         80.4627         17.0273          90.311 
        1.50947          79.967         16.8679         89.9522 
         1.5156         79.5831         16.7108         89.6083 
        1.52172          79.049         16.5557         89.2288 
        1.52787         78.5445         16.4022         88.7856 
          1.534         78.3392         16.2509         88.4741 
        1.54013         77.9152         16.1017         88.0518 
        1.54627         77.2568         15.9541         87.6143 
        1.55241         76.8201         15.8084         87.2631 
        1.55855         76.6346         15.6647         86.8068 
        1.56467         75.9648         15.5231         86.3559 
         1.5708         75.7568          15.383         86.1648 
        1.57695         75.3397         15.2444          85.918 
        1.58308         74.8451         15.1078         85.4715 
        1.58922          74.516         14.9728         85.1104 
        1.59535         74.2223         14.8395         84.7335 
         1.6015         74.0639         14.7077         84.2958 
        1.60764         73.5841         14.5776         83.9932 
        1.61376         73.0487         14.4494          83.766 
        1.61989         72.4729         14.3226         83.2876 
        1.62604         72.2533         14.1971         82.8455 
        1.63218         71.9362         14.0732         82.5237 
        1.63831         71.6597         13.9511         82.2414 
        1.64444         71.1547         13.8304         81.8895 
        1.65059         70.9314         13.7108         81.4914 
        1.65673          70.263         13.5928         81.1242 
        1.66285         70.0947         13.4765          80.832 
        1.66898          69.421         13.3616         80.6115 
        1.67512         69.4308         13.2477         80.3655 
        1.68127         68.9326         13.1352         79.9195 
         1.6874         68.5234         13.0241         79.4085 
        1.69353         68.2783         12.9145         79.1077 
        1.69967         67.9522         12.8058         78.9511 
        1.70581         67.5179         12.6985         78.7407 
        1.71193         67.1493         12.5928         78.3877 
        1.71806         66.8053         12.4881         77.9389 
        1.72421         66.5287         12.3844         77.5372 
        1.73035         66.2181         12.2819         77.3837 
        1.73649         65.8253         12.1807         77.2566 
        1.74262         65.2868         12.0807          76.643 
        1.74876         65.0369         11.9818         76.2676 
        1.75489         64.6224         11.8842         76.0899 
        1.76101         64.3043         11.7877         75.7838 
        1.76715         64.2974         11.6922         75.3977 
        1.77329         63.6099         11.5976         75.1203 
        1.77943         63.5588          11.504         74.8584 
        1.78557         63.2654         11.4116         74.4852 
        1.79171         62.8259         11.3202          74.168 
        1.79785         62.5202         11.2298          73.959 
        1.80399         62.1678         11.1405         73.7506 
        1.81012         61.8806         11.0522         73.3089 
        1.81625         61.5384         10.9649         72.9278 
        1.82239         61.2675         10.8784         72.7909 
        1.82853         61.0247         10.7929         72.6556 
        1.83466         60.6013         10.7085         72.2755 
        1.84078         60.2598          10.625         71.8427 
        1.84692         59.9418         10.5423         71.7502 
        1.85306         59.6687         10.4603         71.5045 
         1.8592         59.4883         10.3794          71.125 
        1.86533         59.0776         10.2994         70.9428 
        1.87147         58.8137         10.2201         70.6616 
