# k  (h/Mpc)    Pcb(k)  (Mpc/h)^3    Pcb_linear(k) (Mpc/h)^3    Pcb_NL(k) (Mpc/h)^3   ShotnoiseSubtracted = false
     0.00783031         13557.7         13604.7         13587.5 
       0.013688           17694           18179         18062.5 
       0.019231         19295.9         19633.3         19432.2 
      0.0249154         19214.3         19282.3         19029.5 
      0.0312784         17416.9         17737.7         17427.8 
      0.0375637         15422.6         15865.5         15539.7 
      0.0433917         14029.6         14280.1         13916.5 
      0.0492413         12640.7         13011.6         12641.4 
      0.0555754         11711.5         12001.9         11634.4 
      0.0619321         10606.3         11249.3         10870.2 
       0.067871         10161.4         10640.7         10267.4 
      0.0738098         9629.51         10012.5         9543.95 
      0.0800417         8912.87         9274.47         8822.04 
      0.0862327         8107.77         8471.44         8123.89 
      0.0921407         7400.39         7695.29         7371.83 
      0.0982031         6800.26         6958.12         6753.02 
       0.104506         6109.47         6312.87         6210.69 
       0.110769          5667.1         5818.04         5681.64 
       0.116806         5433.71          5467.9         5332.22 
       0.122832         5122.84         5207.91         5100.27 
       0.129052         4877.27         4986.29         4888.33 
       0.135211         4757.53         4769.53         4667.71 
       0.141259          4445.5         4531.58         4483.42 
       0.147318         4146.98         4261.32         4253.54 
       0.153489         3933.33         3965.15         3920.02 
       0.159709         3786.39         3668.99         3699.31 
       0.165845         3463.21         3403.06         3543.57 
       0.171974          3368.9         3179.66         3344.76 
       0.178125         3270.35         3002.71         3247.21 
       0.184229         3021.67         2868.13         3096.05 
        0.19034         2990.03         2761.31         2997.39 
       0.196428         2918.64         2667.03         2883.88 
       0.202534         2764.72         2570.83         2806.39 
       0.208729         2710.45         2462.94         2676.25 
       0.214876         2605.76         2344.17            2611 
       0.220989         2488.93         2219.14         2529.73 
       0.227147         2424.95         2094.29         2440.65 
        0.23329          2333.3         1979.03         2367.03 
       0.239377         2322.41         1879.62         2279.75 
       0.245482         2223.53         1796.59         2188.45 
       0.251667         2144.24         1727.68          2146.6 
       0.257832         2113.96         1669.79         2088.52 
       0.263955         2030.29          1617.5         2038.78 
       0.270079         1991.32         1565.46         1987.09 
        0.27624          1908.8         1510.35         1931.41 
       0.282372         1894.83         1451.92         1897.83 
        0.28843         1858.36            1392         1854.94 
       0.294538          1783.1         1331.99          1803.4 
       0.300721         1756.04         1274.44         1751.46 
        0.30691         1712.46          1222.3         1729.84 
       0.313033         1655.57         1176.93         1682.28 
       0.319153         1641.86          1137.5          1638.7 
       0.325316         1622.73         1102.31         1621.18 
        0.33145         1592.08         1070.01         1568.96 
       0.337538         1546.48         1038.85          1549.1 
       0.343633         1514.11          1007.4         1532.25 
       0.349808         1492.28         974.757         1507.04 
       0.355968         1460.53         941.688         1483.54 
       0.362074         1426.13         909.191         1454.27 
       0.368217         1421.99         877.679         1420.63 
       0.374374         1399.38          848.14         1397.97 
       0.380519         1357.18         821.066         1374.74 
       0.386598          1355.2         796.694            1356 
       0.392688         1320.41         774.314         1331.17 
        0.39888         1298.92         753.011         1315.89 
       0.405048         1275.51         732.668         1297.71 
       0.411186         1267.45         712.768         1274.25 
       0.417313         1268.05         692.955          1259.9 
       0.423458         1229.98         673.199         1237.27 
       0.429607         1199.52         653.677          1216.7 
       0.435692         1191.93         634.894            1195 
       0.441815          1170.1         616.839         1193.99 
       0.447964         1160.96          599.72         1178.11 
       0.454126         1145.25         583.611         1147.58 
       0.460267         1133.37         568.558         1147.91 
       0.466387         1116.96         554.361         1126.43 
        0.47254         1096.09         540.649         1113.64 
       0.478662         1086.13         527.393         1101.63 
       0.484765          1076.7         514.464         1089.93 
       0.490885         1063.89          501.71         1070.24 
       0.497035         1046.79         489.113         1062.05 
       0.503198         1045.85          476.82         1051.07 
       0.509342         1027.12         464.989          1032.8 
       0.515458          1007.1         453.681         1028.06 
       0.521598         1008.71         442.812         1020.01 
       0.527764         984.307         432.393         1009.96 
       0.533884         975.041         422.509         999.346 
           0.54         968.038         413.008         989.943 
       0.546137         958.485         403.764         979.022 
       0.552299         949.801         394.712         965.686 
       0.558452         942.304         385.894         958.816 
       0.564573         936.002         377.338         949.331 
       0.570708         926.055         368.981         939.057 
       0.576825         908.254         360.876         927.683 
       0.582926         906.106         353.037         921.444 
       0.589034          897.29         345.448         908.273 
       0.595184         886.015         338.082         902.059 
       0.601379         872.345         330.933         895.156 
       0.607522         862.872         324.079         882.721 
       0.613639         861.573         317.456          879.67 
       0.619772         851.935         310.992         877.165 
       0.625918         843.772         304.676         867.142 
       0.632068          836.78         298.517         861.919 
       0.638161         824.949         292.575          846.46 
         0.6443         818.779         286.749         842.983 
       0.650464         813.373         281.064         833.067 
       0.656582         807.452         275.578         827.345 
       0.662703         795.524         270.242         821.423 
       0.668861         788.609         265.023         818.175 
       0.675024         783.666         259.945         814.492 
       0.681124         771.237         255.059          800.58 
       0.687237         771.805         250.296         795.204 
       0.693381         757.612         245.636         787.479 
       0.699536         759.489         241.088         782.242 
       0.705665         749.343         236.676         775.129 
       0.711789         746.392         232.377         768.469 
       0.717957         738.102         228.153         767.105 
        0.72409         731.702         224.056         760.832 
       0.730186         728.038         220.083         753.221 
       0.736317         720.091         216.186         746.709 
       0.742472         710.846          212.37         741.911 
       0.748622         708.439         208.652         735.637 
        0.75476         700.195         205.034         735.745 
       0.760888         696.512          201.51         727.913 
       0.767043         693.864         198.058         718.537 
       0.773185          688.92         194.696         714.667 
       0.779291         680.866         191.433         708.394 
       0.785407         675.549         188.241         704.173 
       0.791564         670.985         185.103         703.403 
       0.797719         661.094         182.038         696.081 
       0.803834         661.523         179.063         691.737 
       0.809972         653.351         176.145         688.803 
       0.816124          648.82         173.285         679.969 
       0.822261         644.711         170.498         675.837 
       0.828378         642.084         167.781         671.796 
       0.834502         631.989         165.121         669.941 
       0.840667         630.466         162.503         665.302 
       0.846816         625.807         159.949         660.217 
       0.852925         622.077         157.468          655.88 
       0.859047         616.471         155.034         649.341 
       0.865192         612.656         152.645         645.922 
       0.871341         606.096         150.306         642.693 
       0.877463         605.036         148.026         639.044 
       0.883569         598.276         145.801         633.775 
       0.889708         591.786          143.61         628.461 
       0.895864         586.407         141.459         625.051 
       0.902008         585.397         139.358         621.671 
       0.908149         579.828         137.301         616.002 
       0.914301         577.502         135.283         611.596 
       0.920448         570.392         133.307         609.594 
       0.926574         567.762         131.379         605.057 
       0.932687          565.57         129.493         601.344 
       0.938823         558.912         127.639         598.867 
       0.944975         555.198         125.816          595.01 
       0.951105         551.569         124.036         589.173 
       0.957225         544.033         122.295         588.214 
       0.963368         545.004         120.581         583.938 
       0.969511         537.421           118.9         579.845 
       0.975621         535.352         117.261         576.067 
       0.981748         531.576         115.648         571.829 
       0.987916         528.609         114.057             571 
        0.99406         523.468         112.501          566.39 
        1.00019         518.785         110.978         560.507 
        1.00632         515.807         109.485         557.621 
        1.01246         512.396         108.018         554.818 
        1.01859         507.885          106.58         550.351 
        1.02471         506.163          105.17         548.394 
        1.03085         501.376         103.781         547.294 
        1.03698         499.901         102.421         544.191 
        1.04314         493.986          101.08           540.5 
        1.04929         492.896         99.7655          535.71 
        1.05541         486.098         98.4804         531.859 
        1.06154         484.775         97.2149         528.558 
        1.06769         480.463         95.9701         524.907 
        1.07382         475.912         94.7513          522.44 
        1.07993         475.847         93.5568         519.607 
        1.08607         471.659         92.3781         516.051 
        1.09222          467.69         91.2188         512.531 
        1.09836         463.741         90.0809         511.386 
        1.10449         459.638         88.9641         508.622 
        1.11063         457.985         87.8651         503.598 
        1.11677          453.32         86.7853         502.452 
         1.1229         451.088         85.7258         498.831 
        1.12903          446.93         84.6832         495.842 
        1.13518         445.472         83.6573          492.82 
        1.14131         442.682         82.6491         490.143 
        1.14745         437.717         81.6583         486.973 
        1.15359         434.967         80.6838         485.395 
        1.15973          432.58         79.7249         482.179 
        1.16584         430.532          78.786         479.824 
        1.17197         427.284         77.8611         476.795 
        1.17811         422.148         76.9484         473.913 
        1.18424         420.747         76.0531          472.01 
        1.19038         418.303         75.1696         469.085 
        1.19652         413.725         74.3006           466.1 
        1.20267         412.419         73.4455           463.4 
        1.20881         410.244         72.6042         460.441 
        1.21495          404.77         71.7776         458.022 
        1.22108         404.643          70.964         455.495 
         1.2272         399.052         70.1652         452.842 
        1.23334         398.099         69.3769         449.747 
        1.23949         394.248         68.5989         447.658 
        1.24562         394.105         67.8352         445.593 
        1.25174         390.055         67.0844         443.381 
        1.25789          386.92         66.3427         440.995 
        1.26402         384.571         65.6137         438.938 
        1.27014         382.454         64.8975         435.122 
        1.27628         378.703           64.19         434.234 
        1.28244         376.288         63.4917          432.47 
        1.28858         374.585         62.8048         429.405 
        1.29471         372.805         62.1297         426.841 
        1.30084         370.212         61.4653         424.086 
        1.30697         366.359         60.8097         422.283 
        1.31312          364.26         60.1628          420.53 
        1.31925          361.73         59.5274         417.639 
        1.32537         359.905         58.9019         415.013 
        1.33151          356.49         58.2833         413.722 
        1.33765         353.841         57.6739         411.724 
        1.34378         351.473         57.0746         408.427 
        1.34992          348.77         56.4835          405.84 
        1.35606         346.351         55.8996         404.118 
         1.3622         344.854          55.325         402.603 
        1.36833           343.5           54.76         400.791 
        1.37445         341.258         54.2032         398.007 
        1.38059         337.321         53.6525         396.534 
        1.38675           335.8         53.1082         395.093 
        1.39288         333.919         52.5737         391.863 
        1.39901         331.186         52.0469         389.417 
        1.40515         329.493         51.5261         387.035 
         1.4113         327.044         51.0128         384.992 
        1.41742         323.955         50.5084         383.656 
        1.42355         323.196           50.01         381.485 
         1.4297         321.015         49.5169         379.155 
        1.43585         316.703         49.0307         378.156 
        1.44198         316.394         48.5529         375.802 
        1.44809         314.347         48.0825         374.174 
        1.45423         311.526         47.6166         370.972 
        1.46036         310.206         47.1578          369.48 
        1.46649         308.157         46.7049         367.894 
        1.47263         304.888         46.2577         365.214 
        1.47877         303.947         45.8166         363.427 
        1.48491         301.018         45.3806          361.34 
        1.49104         298.671         44.9512         359.314 
        1.49718         297.036         44.5271         358.952 
        1.50333         295.079         44.1079         357.089 
        1.50947         294.051         43.6949         354.775 
         1.5156         290.556         43.2879         352.802 
        1.52172         289.107         42.8861         350.718 
        1.52787         286.989         42.4886          349.02 
          1.534         286.239         42.0967         347.532 
        1.54013         283.603         41.7102          345.75 
        1.54627         281.617         41.3278         344.074 
        1.55241         280.182         40.9503         342.776 
        1.55855         277.913          40.578         341.344 
        1.56467         276.126         40.2114         338.693 
         1.5708         274.562         39.8483         336.575 
        1.57695         272.988         39.4893         335.108 
        1.58308         271.755         39.1355         333.204 
        1.58922         269.411         38.7858         331.767 
        1.59535         266.726         38.4406         330.686 
         1.6015         265.692         38.0991         329.295 
        1.60764         263.966         37.7619         327.185 
        1.61376         261.942         37.4299         325.211 
        1.61989         260.454         37.1015          323.88 
        1.62604         258.416         36.7764         321.992 
        1.63218         256.775         36.4555         320.519 
        1.63831         255.498         36.1391         319.345 
        1.64444         253.465         35.8264         317.178 
        1.65059         252.489         35.5167         315.766 
        1.65673         250.273          35.211           314.6 
        1.66285         248.815         34.9098         312.792 
        1.66898         247.326          34.612         310.604 
        1.67512         245.003         34.3172         309.683 
        1.68127         243.739         34.0255         308.247 
         1.6874         242.108         33.7379         306.473 
        1.69353         241.398         33.4538         305.435 
        1.69967         239.494         33.1724         303.645 
        1.70581         237.283         32.8943         302.079 
        1.71193         236.327         32.6205         300.909 
        1.71806         234.095         32.3493         299.233 
        1.72421         232.973         32.0806         297.668 
        1.73035         230.999         31.8153         296.018 
        1.73649         229.455         31.5531         294.438 
        1.74262         228.434         31.2941         293.587 
        1.74876         226.703         31.0378         292.075 
        1.75489         225.536          30.785         290.489 
        1.76101         224.225         30.5351         289.491 
        1.76715         222.382         30.2876         288.229 
        1.77329         220.345         30.0426         286.923 
        1.77943         219.212         29.8002         285.519 
        1.78557         218.164         29.5608         283.875 
        1.79171         217.022         29.3241         282.538 
        1.79785         215.236         29.0899         281.252 
        1.80399         214.094         28.8584          279.72 
        1.81012          212.49         28.6297         278.823 
        1.81625         211.085         28.4036         277.594 
        1.82239         209.581         28.1796         275.855 
        1.82853          208.78         27.9582         274.733 
        1.83466         207.085         27.7394         273.481 
        1.84078         205.687         27.5231         272.069 
        1.84692         204.605         27.3089          271.16 
        1.85306         202.907         27.0966         269.842 
         1.8592          202.03          26.887         268.339 
        1.86533         200.065         26.6797         267.362 
        1.87147          199.48         26.4744         266.179 
