# k  (h/Mpc)    P(k)  (Mpc/h)^3    P_linear(k)  (Mpc/h)^3     P_NL(k)  ShotnoiseSubtracted = false
     0.00783031         1116.82         1123.32         1122.66 
       0.013688         1485.97          1502.1         1497.15 
       0.019231         1614.86         1622.75         1614.91 
      0.0249154         1593.24         1593.99         1588.05 
      0.0312784         1462.89         1466.47         1462.96 
      0.0375637         1306.42         1311.77         1308.95 
      0.0433917         1181.52         1180.73         1178.64 
      0.0492413         1073.05         1075.89            1074 
      0.0555754         993.642         992.419         990.218 
      0.0619321         921.057         930.208         927.831 
       0.067871         876.442         879.892         877.111 
      0.0738098         825.662         827.955         824.248 
      0.0800417         766.405         766.934          763.41 
      0.0862327         698.372         700.533         697.994 
      0.0921407         634.168         636.355         634.223 
      0.0982031         575.958         575.398          574.45 
       0.104506           519.4         522.042         522.053 
       0.110769          479.26         481.124         480.654 
       0.116806         453.948          452.17         451.594 
       0.122832         429.416         430.671         430.335 
       0.129052         412.476         412.345         411.948 
       0.135211         396.108         394.422         394.058 
       0.141259          374.44         374.745         374.739 
       0.147318         349.951         352.395         353.069 
       0.153489         327.455         327.903         327.999 
       0.159709         304.943         303.413         304.322 
       0.165845         280.023         281.421         283.672 
       0.171974         266.008         262.947         265.165 
       0.178125         251.605         248.314         251.443 
       0.184229         238.434         237.185         240.393 
        0.19034         231.545         228.352         231.485 
       0.196428         223.453         220.555         223.015 
       0.202534         212.777           212.6         215.253 
       0.208729         206.046         203.678         206.225 
       0.214876         197.707         193.857          197.36 
       0.220989         184.574         183.516         187.381 
       0.227147         177.615         173.192         177.118 
        0.23329         168.818         163.661         168.437 
       0.239377          161.43          155.44         160.685 
       0.245482         153.766         148.574         153.421 
       0.251667         147.296         142.875         148.188 
       0.257832         144.199         138.087         143.336 
       0.263955         138.218         133.763         138.812 
       0.270079         133.855          129.46         134.348 
        0.27624         128.356         124.902         129.575 
       0.282372         124.009          120.07         125.011 
        0.28843         121.098         115.115         120.163 
       0.294538         115.664         110.152          115.53 
       0.300721         110.237         105.393         111.201 
        0.30691         107.312         101.081         107.019 
       0.313033         103.095         97.3291         103.171 
       0.319153         101.083         94.0689         100.255 
       0.325316          96.691         91.1582         97.5629 
        0.33145         93.9012         88.4874         94.5551 
       0.337538          91.456         85.9106         91.8306 
       0.343633          88.963         83.3095         89.3045 
       0.349808          86.133         80.6099         86.7639 
       0.355968         83.3476         77.8754         84.5227 
       0.362074         81.4356          75.188         81.6915 
       0.368217         78.9251         72.5819         78.7333 
       0.374374         77.1919         70.1394         76.6636 
       0.380519         73.9122         67.9002         74.3162 
       0.386598         71.8326         65.8849         72.4162 
       0.392688         69.8399         64.0341         70.6421 
        0.39888         68.4998         62.2723          68.718 
       0.405048         66.9092         60.5901         66.9517 
       0.411186         65.1847         58.9443         65.7028 
       0.417313         63.4481         57.3059         63.7524 
       0.423458         61.6261         55.6723         62.2434 
       0.429607         60.5449         54.0576         60.5292 
       0.435692         59.3466         52.5043         59.1482 
       0.441815         57.1711         51.0112         57.9613 
       0.447964         55.4861         49.5956         56.3674 
       0.454126         54.5245         48.2631         54.9449 
       0.460267          53.952         47.0187         53.8686 
       0.466387         52.4184         45.8445         52.5281 
        0.47254         51.6216         44.7105         51.4811 
       0.478662         50.1045         43.6143         50.3094 
       0.484765         49.0743         42.5451          49.192 
       0.490885         47.7331         41.4903         48.4096 
       0.497035         46.8921         40.4486         47.4267 
       0.503198         45.8162          39.432         46.1374 
       0.509342         44.6434         38.4535         45.2968 
       0.515458         44.0673         37.5184         44.6039 
       0.521598         43.0439         36.6197         43.3558 
       0.527764         42.4895         35.7579         42.3757 
       0.533884         41.4177         34.9406         41.5972 
           0.54         40.6162         34.1549         40.7802 
       0.546137         39.4419         33.3904         40.1494 
       0.552299         38.8152         32.6419         39.1874 
       0.558452         38.0509         31.9126         38.4369 
       0.564573         37.6325         31.2051         37.9491 
       0.570708          36.676          30.514          37.211 
       0.576825          36.144         29.8437         36.5109 
       0.582926         35.4952         29.1954         35.9112 
       0.589034         34.8358         28.5678         35.3464 
       0.595184         34.3748         27.9587         34.5168 
       0.601379         33.4575         27.3675          34.099 
       0.607522         32.9705         26.8006         33.4068 
       0.613639         32.3627          26.253         32.8273 
       0.619772         31.8798         25.7184          32.353 
       0.625918         31.2181         25.1961         31.8272 
       0.632068         30.9523         24.6868         31.2137 
       0.638161         30.3089         24.1954         30.6971 
         0.6443         29.8277         23.7136         30.1474 
       0.650464         29.0925         23.2434         29.7864 
       0.656582         28.9215         22.7897         29.3012 
       0.662703         28.5679         22.3484          28.791 
       0.668861         27.8174         21.9169         28.4336 
       0.675024         27.4658         21.4969         27.8842 
       0.681124         27.3044         21.0929         27.4709 
       0.687237         26.7625         20.6989         26.9765 
       0.693381         26.1615         20.3136         26.5828 
       0.699536         26.0553         19.9375         26.2178 
       0.705665         25.5709         19.5726           25.95 
       0.711789         25.0951         19.2171           25.48 
       0.717957         24.5946         18.8678         25.0901 
        0.72409         24.3983         18.5289         24.7849 
       0.730186         24.2404         18.2004         24.3785 
       0.736317         23.7442         17.8781         24.0293 
       0.742472         23.4472         17.5626         23.8375 
       0.748622          23.079         17.2551         23.4202 
        0.75476         22.5106         16.9559         23.0649 
       0.760888         22.4022         16.6645         22.7914 
       0.767043         22.0119          16.379         22.5406 
       0.773185          21.776          16.101         22.2377 
       0.779291         21.6172         15.8311         21.9672 
       0.785407         21.2135         15.5671         21.6461 
       0.791564         21.0271         15.3076         21.3795 
       0.797719         20.6008         15.0542         21.0485 
       0.803834         20.4865         14.8082         20.7664 
       0.809972         20.1052         14.5668          20.615 
       0.816124         19.8836         14.3303         20.2746 
       0.822261         19.6559         14.0998          20.008 
       0.828378         19.4077         13.8751         19.7766 
       0.834502         19.2132         13.6552         19.5816 
       0.840667          19.021         13.4387         19.2986 
       0.846816         18.6233         13.2275         19.1063 
       0.852925         18.5135         13.0223         18.9604 
       0.859047         18.2858          12.821          18.663 
       0.865192         18.0365         12.6235         18.4414 
       0.871341         17.7829           12.43         18.2711 
       0.877463          17.614         12.2415         18.0204 
       0.883569         17.4841         12.0574          17.856 
       0.889708         17.1985         11.8763         17.6316 
       0.895864          16.992         11.6984          17.409 
       0.902008         16.7755         11.5246         17.2493 
       0.908149         16.5664         11.3545         17.0598 
       0.914301         16.4777         11.1876         16.9188 
       0.920448          16.224         11.0243         16.6534 
       0.926574         16.1258         10.8648         16.4954 
       0.932687         15.8854         10.7088         16.2464 
       0.938823         15.6833         10.5555         16.1411 
       0.944975         15.5474         10.4047         15.9497 
       0.951105         15.3533         10.2576           15.74 
       0.957225         15.2639         10.1135         15.6739 
       0.963368         15.0565         9.97178         15.4615 
       0.969511         14.8933         9.83278         15.3326 
       0.975621         14.7349         9.69722         15.1228 
       0.981748         14.5271         9.56389         14.9957 
       0.987916         14.4197         9.43226         14.8548 
        0.99406         14.3122         9.30363         14.7077 
        1.00019         14.1702         9.17768         14.5912 
        1.00632         14.0332         9.05421         14.4366 
        1.01246         13.8854         8.93285         14.3378 
        1.01859         13.7172         8.81394          14.151 
        1.02471         13.5446         8.69736         13.9778 
        1.03085          13.503         8.58252         13.8677 
        1.03698         13.3577         8.47002         13.7549 
        1.04314         13.2082         8.35908         13.6033 
        1.04929         13.0214         8.25041         13.4929 
        1.05541         12.9604         8.14413         13.3819 
        1.06154         12.8419         8.03948         13.2474 
        1.06769         12.7718         7.93654         13.1412 
        1.07382           12.55         7.83575         13.0241 
        1.07993         12.4324         7.73696         12.9039 
        1.08607         12.3763         7.63949         12.7614 
        1.09222           12.21         7.54362         12.6494 
        1.09836          12.189         7.44952         12.5244 
        1.10449         11.9639         7.35716         12.4195 
        1.11063         11.9302         7.26627          12.322 
        1.11677         11.8305         7.17698         12.2129 
         1.1229         11.7247         7.08936         12.1208 
        1.12903         11.6412         7.00314          12.049 
        1.13518         11.4575          6.9183         11.9385 
        1.14131         11.3852         6.83492         11.8101 
        1.14745         11.2387         6.75299          11.678 
        1.15359         11.1631         6.67239         11.6078 
        1.15973         11.0595         6.59309          11.516 
        1.16584         10.9755         6.51545         11.4572 
        1.17197         10.8739         6.43896         11.3383 
        1.17811         10.7739         6.36348         11.2316 
        1.18424         10.6936         6.28944         11.1501 
        1.19038         10.6225         6.21638         11.0572 
        1.19652         10.5404         6.14452         10.9842 
        1.20267         10.4475          6.0738         10.8618 
        1.20881         10.3442         6.00423         10.8178 
        1.21495         10.2567         5.93587         10.7238 
        1.22108         10.2017         5.86859         10.6431 
         1.2272         10.0961         5.80252         10.5318 
        1.23334         10.0684         5.73733         10.4687 
        1.23949         9.94969           5.673         10.4033 
        1.24562         9.86607         5.60984         10.3094 
        1.25174         9.80754         5.54775          10.229 
        1.25789         9.67196         5.48642         10.1509 
        1.26402         9.64083         5.42613         10.0538 
        1.27014         9.57986          5.3669         9.99676 
        1.27628         9.45877         5.30839         9.94001 
        1.28244         9.43984         5.25064         9.87045 
        1.28858         9.37322         5.19384         9.78351 
        1.29471         9.23897         5.13801         9.71293 
        1.30084         9.17467         5.08306         9.66089 
        1.30697         9.14399         5.02884           9.578 
        1.31312         9.05558         4.97534         9.51948 
        1.31925         8.99058          4.9228         9.46258 
        1.32537         8.93503         4.87107         9.39569 
        1.33151         8.85708         4.81991         9.32421 
        1.33765         8.78614         4.76952         9.24226 
        1.34378          8.7652         4.71996         9.19891 
        1.34992         8.67763         4.67108         9.12967 
        1.35606         8.61289         4.62279         9.04061 
         1.3622          8.5451         4.57527         8.99014 
        1.36833         8.48273         4.52854         8.96261 
        1.37445         8.41377          4.4825         8.88626 
        1.38059         8.36881         4.43696         8.81854 
        1.38675         8.29756         4.39195         8.76302 
        1.39288         8.23979         4.34774         8.70793 
        1.39901         8.16943         4.30418         8.65764 
        1.40515         8.12071         4.26111         8.59661 
         1.4113         8.06001         4.21866         8.53679 
        1.41742         8.01339         4.17695         8.48562 
        1.42355         7.94621         4.13573         8.41862 
         1.4297         7.91075         4.09495         8.37957 
        1.43585         7.85716         4.05475         8.33612 
        1.44198         7.79612         4.01524         8.25772 
        1.44809         7.75791         3.97633         8.23003 
        1.45423         7.69186         3.93781         8.16637 
        1.46036         7.64973         3.89986         8.11447 
        1.46649         7.58971         3.86241         8.07417 
        1.47263         7.55361         3.82543         8.02632 
        1.47877         7.49698         3.78895         7.97005 
        1.48491         7.45847         3.75289         7.92102 
        1.49104         7.39282         3.71738         7.86911 
        1.49718         7.36392         3.68231         7.82567 
        1.50333         7.30792         3.64764         7.78552 
        1.50947         7.23731         3.61348         7.73892 
         1.5156         7.22697         3.57983         7.69105 
        1.52172         7.17926          3.5466         7.64443 
        1.52787         7.13074         3.51373         7.58873 
          1.534         7.08318         3.48132         7.54276 
        1.54013         7.04049         3.44935         7.50384 
        1.54627         6.99697         3.41773         7.46617 
        1.55241         6.93955         3.38651         7.42189 
        1.55855         6.92036         3.35572         7.36568 
        1.56467         6.86557         3.32541         7.33947 
         1.5708         6.82613         3.29538         7.30348 
        1.57695         6.76425         3.26569         7.25164 
        1.58308         6.72379         3.23643         7.21819 
        1.58922         6.70081         3.20751         7.18088 
        1.59535         6.65771         3.17896         7.13341 
         1.6015         6.60365         3.15072         7.08779 
        1.60764          6.5804         3.12284         7.05676 
        1.61376         6.54485         3.09538         7.02878 
        1.61989         6.47943         3.06823          6.9869 
        1.62604         6.45547         3.04134          6.9431 
        1.63218         6.42061          3.0148         6.90892 
        1.63831         6.39591         2.98864         6.87448 
        1.64444         6.34129         2.96278         6.82794 
        1.65059         6.31224         2.93716         6.79449 
        1.65673         6.27872         2.91188         6.76004 
        1.66285          6.2417         2.88697         6.72415 
        1.66898         6.19675         2.86235         6.69171 
        1.67512         6.15918         2.83797         6.65766 
        1.68127         6.12051         2.81385         6.62595 
         1.6874         6.10456         2.79006         6.59131 
        1.69353         6.04672         2.76657         6.54797 
        1.69967         6.02653          2.7433         6.51196 
        1.70581         5.98551          2.7203         6.48808 
        1.71193         5.96008         2.69766          6.4646 
        1.71806         5.92894         2.67523          6.4259 
        1.72421         5.88769         2.65301         6.38878 
        1.73035         5.85403         2.63107         6.35474 
        1.73649          5.8256         2.60938         6.32059 
        1.74262         5.79217         2.58796         6.28843 
        1.74876         5.76908         2.56677         6.26424 
        1.75489         5.73681         2.54586         6.23417 
        1.76101         5.69539         2.52519         6.19256 
        1.76715          5.6828         2.50473         6.15898 
        1.77329         5.64715         2.48446         6.13624 
        1.77943         5.60558         2.46442         6.11134 
        1.78557         5.58285         2.44463         6.07698 
        1.79171         5.56347         2.42505         6.04424 
        1.79785         5.52364         2.40568         6.01506 
        1.80399         5.48255         2.38654         5.98752 
        1.81012         5.46308         2.36762          5.9666 
        1.81625         5.43684         2.34893         5.93985 
        1.82239         5.40728          2.3304         5.90887 
        1.82853         5.37583         2.31209         5.88934 
        1.83466         5.33743           2.294         5.86773 
        1.84078         5.31513         2.27611          5.8339 
        1.84692         5.29108         2.25839         5.79157 
        1.85306          5.2636         2.24084         5.76374 
         1.8592         5.24689          2.2235         5.74691 
        1.86533         5.21264         2.20636          5.7226 
        1.87147          5.1865         2.18938         5.69738 
        1.87761         5.17032         2.17258         5.67252 
