# k  (h/Mpc)    P(k)  (Mpc/h)^3    P_linear(k)  (Mpc/h)^3     P_NL(k)  ShotnoiseSubtracted = false
     0.00783031         366.702         369.043         368.756 
       0.013688         489.439         493.574          492.03 
       0.019231         531.405         533.256         530.879 
      0.0249154          523.22         523.828         522.169 
      0.0312784         481.224         481.931         481.203 
      0.0375637         430.293         431.099         430.684 
      0.0433917         388.497         388.039         387.928 
      0.0492413         353.332         353.585          353.54 
      0.0555754         326.718         326.154         326.004 
      0.0619321         304.184          305.71         305.502 
       0.067871         288.724         289.175         288.824 
      0.0738098         271.805         272.106         271.599 
      0.0800417         252.115         252.052         251.585 
      0.0862327          229.96          230.23          229.91 
      0.0921407         208.813         209.138         208.927 
      0.0982031         189.303         189.105         189.061 
       0.104506         171.099          171.57         171.651 
       0.110769         157.768         158.122         158.148 
       0.116806         148.896         148.606         148.577 
       0.122832         141.232         141.541         141.517 
       0.129052         135.505         135.518         135.461 
       0.135211         129.841         129.627         129.554 
       0.141259          122.99         123.161         123.126 
       0.147318         115.252         115.815         115.867 
       0.153489         107.575         107.766         107.772 
       0.159709         99.7968         99.7172         99.8275 
       0.165845         92.0082         92.4898         92.7599 
       0.171974         86.7332         86.4183         86.6836 
       0.178125         81.9069         81.6091         81.9736 
       0.184229         77.9191         77.9516         78.3203 
        0.19034         75.3989         75.0486         75.4006 
       0.196428         72.7042          72.486         72.7516 
       0.202534         69.5883         69.8714         70.1531 
       0.208729         67.0399         66.9393         67.2116 
       0.214876         64.1182         63.7115         64.0933 
       0.220989         60.1557         60.3132         60.7414 
       0.227147         57.4057         56.9202         57.3563 
        0.23329         54.3677         53.7876         54.3235 
       0.239377         51.7506         51.0857         51.6806 
       0.245482         49.3981         48.8292         49.3777 
       0.251667         47.3317         46.9563         47.5561 
       0.257832         46.0326         45.3827         45.9724 
       0.263955         44.3682         43.9617         44.5226 
       0.270079          42.938         42.5473         43.0851 
        0.27624         41.2427         41.0493           41.56 
       0.282372         39.7255         39.4613         40.0086 
        0.28843         38.4336         37.8329         38.3978 
       0.294538         36.7423         36.2018         36.8027 
       0.300721         35.0274         34.6379         35.2885 
        0.30691         33.8601         33.2206         33.8844 
       0.313033         32.5551         31.9875         32.6425 
       0.319153         31.7653          30.916         31.6144 
       0.325316         30.4171         29.9594         30.6814 
        0.33145         29.5364         29.0817         29.7634 
       0.337538         28.7525         28.2348         28.8962 
       0.343633         27.9519         27.3799         28.0398 
       0.349808         27.0198         26.4927         27.1736 
       0.355968          26.086          25.594         26.3492 
       0.362074         25.3376         24.7108         25.4394 
       0.368217          24.479         23.8543         24.5336 
       0.374374          23.853         23.0515         23.7837 
       0.380519          22.918         22.3156         23.0295 
       0.386598          22.215         21.6533         22.3895 
       0.392688         21.5734          21.045         21.7806 
        0.39888         21.0748          20.466         21.1902 
       0.405048         20.5422         19.9131         20.6073 
       0.411186         19.9679         19.3722         20.1291 
       0.417313         19.4385         18.8338         19.5587 
       0.423458         18.8216         18.2969         19.0357 
       0.429607         18.4141         17.7662          18.486 
       0.435692         17.9566         17.2557         18.0027 
       0.441815         17.3603          16.765         17.5516 
       0.447964         16.8217         16.2998         17.0643 
       0.454126         16.4898         15.8618         16.6164 
       0.460267         16.1976         15.4528         16.2261 
       0.466387         15.7367         15.0669         15.8123 
        0.47254         15.4144         14.6943         15.4477 
       0.478662         15.0069          14.334         15.0755 
       0.484765         14.6622         13.9826         14.7285 
       0.490885         14.2645         13.6359         14.4253 
       0.497035         13.8896         13.2936         14.0877 
       0.503198         13.5986         12.9595          13.703 
       0.509342         13.2242         12.6379         13.4016 
       0.515458         12.9888         12.3306         13.1258 
       0.521598         12.6875         12.0352         12.7793 
       0.527764         12.4722          11.752         12.4916 
       0.533884         12.0961         11.4834         12.2275 
           0.54         11.8617         11.2251         11.9586 
       0.546137         11.5431         10.9739         11.7226 
       0.552299         11.3316         10.7279          11.438 
       0.558452         11.0923         10.4882         11.2049 
       0.564573         10.8897         10.2556         11.0167 
       0.570708         10.6484         10.0285         10.7774 
       0.576825         10.4327         9.80823         10.5477 
       0.582926         10.1986         9.59517         10.3457 
       0.589034         10.0237          9.3889         10.1545 
       0.595184         9.85673         9.18872         9.90113 
       0.601379         9.60289         8.99442         9.74657 
       0.607522         9.41972         8.80812          9.5485 
       0.613639         9.19904         8.62813         9.36017 
       0.619772         9.06802         8.45245         9.20282 
       0.625918         8.87756         8.28078         9.01091 
       0.632068         8.74012         8.11339         8.83469 
       0.638161         8.55849         7.95189         8.66853 
         0.6443         8.39162         7.79355          8.5005 
       0.650464         8.21027         7.63901         8.36893 
       0.656582         8.11772         7.48991         8.21068 
       0.662703         7.97218         7.34488          8.0583 
       0.668861         7.76641         7.20305         7.93252 
       0.675024         7.64497         7.06504         7.77655 
       0.681124         7.59891         6.93225         7.63846 
       0.687237         7.42078         6.80277         7.48767 
       0.693381         7.23544         6.67612         7.35115 
       0.699536         7.17196         6.55253         7.23133 
       0.705665         7.03806         6.43261         7.14307 
       0.711789         6.88558         6.31577         7.01447 
       0.717957            6.76         6.20096         6.88157 
        0.72409         6.66808          6.0896         6.77289 
       0.730186         6.59226         5.98163         6.64981 
       0.736317         6.45309         5.87571         6.53959 
       0.742472         6.36462         5.77199         6.46508 
       0.748622         6.26528         5.67094          6.3563 
        0.75476         6.12243         5.57261         6.23633 
       0.760888         6.05946         5.47684         6.14547 
       0.767043         5.90614         5.38301         6.05791 
       0.773185         5.83523         5.29163         5.97043 
       0.779291         5.79292         5.20294         5.87743 
       0.785407         5.67473          5.1162         5.78094 
       0.791564         5.59372          5.0309         5.69576 
       0.797719         5.49609         4.94762         5.59234 
       0.803834         5.41908         4.86676         5.51583 
       0.809972         5.32925         4.78743          5.4529 
       0.816124         5.25227         4.70972           5.355 
       0.822261         5.18193         4.63395         5.27674 
       0.828378         5.09197         4.56011         5.20099 
       0.834502         5.02533         4.48782         5.12011 
       0.840667         4.96762         4.41666         5.05132 
       0.846816         4.88114         4.34726          4.9943 
       0.852925         4.80416         4.27981         4.91919 
       0.859047         4.73983         4.21368         4.86027 
       0.865192          4.6708         4.14874         4.78521 
       0.871341         4.60589         4.08515         4.71868 
       0.877463         4.53523          4.0232         4.64794 
       0.883569         4.47536         3.96271         4.59379 
       0.889708          4.4208         3.90317         4.53101 
       0.895864         4.35967         3.84472         4.46492 
       0.902008         4.28464          3.7876         4.40779 
       0.908149         4.23596          3.7317          4.3527 
       0.914301         4.18901         3.67684         4.29031 
       0.920448         4.13044         3.62316         4.22716 
       0.926574         4.09457         3.57075         4.17962 
       0.932687         4.02698          3.5195         4.11012 
       0.938823         3.95715         3.46908         4.07964 
       0.944975         3.92141         3.41955          4.0099 
       0.951105         3.84996         3.37118         3.95996 
       0.957225         3.81071         3.32384         3.92388 
       0.963368         3.77411         3.27726         3.86717 
       0.969511         3.72845         3.23158         3.82118 
       0.975621         3.66994         3.18702          3.7577 
       0.981748         3.60387         3.14321         3.71605 
       0.987916         3.56853         3.09994         3.68499 
        0.99406         3.54085         3.05767         3.64071 
        1.00019         3.49358         3.01628         3.59999 
        1.00632         3.46047         2.97569          3.5497 
        1.01246         3.40792         2.93581          3.5055 
        1.01859         3.36677         2.89673         3.46417 
        1.02471         3.31244         2.85842         3.42234 
        1.03085         3.28264         2.82067         3.37613 
        1.03698          3.2462          2.7837         3.33813 
        1.04314         3.21165         2.74724         3.30208 
        1.04929         3.17217         2.71152         3.26467 
        1.05541         3.12428          2.6766          3.2328 
        1.06154         3.09909          2.6422         3.19603 
        1.06769         3.07222         2.60837         3.16002 
        1.07382         3.02479         2.57525         3.12333 
        1.07993         2.98706         2.54278         3.08716 
        1.08607         2.96168         2.51074         3.05281 
        1.09222         2.91669         2.47923         3.01431 
        1.09836         2.90176         2.44831         2.98549 
        1.10449         2.84662         2.41795         2.95411 
        1.11063         2.82145         2.38809         2.91539 
        1.11677          2.7949         2.35874         2.88935 
         1.1229         2.75408         2.32994         2.86086 
        1.12903         2.73651          2.3016         2.82806 
        1.13518          2.6954         2.27372         2.80032 
        1.14131         2.67035         2.24632         2.76854 
        1.14745         2.64114         2.21939         2.73302 
        1.15359         2.61341          2.1929         2.71108 
        1.15973         2.58575         2.16684         2.68362 
        1.16584          2.5552         2.14132         2.65447 
        1.17197         2.52549         2.11619         2.62624 
        1.17811         2.49904         2.09138          2.6018 
        1.18424         2.47234         2.06705         2.57048 
        1.19038         2.44434         2.04303          2.5458 
        1.19652         2.42782         2.01942         2.52413 
        1.20267         2.40545         1.99618         2.48949 
        1.20881         2.37145         1.97331         2.46969 
        1.21495         2.35179         1.95084         2.45218 
        1.22108         2.32887         1.92873         2.42376 
         1.2272         2.29462         1.90702         2.39374 
        1.23334         2.28159         1.88559         2.37475 
        1.23949         2.25924         1.86445         2.35795 
        1.24562         2.23512         1.84369          2.3337 
        1.25174         2.21377         1.82329         2.30494 
        1.25789         2.18562         1.80313         2.28206 
        1.26402         2.16306         1.78332         2.25935 
        1.27014         2.13989         1.76385         2.24183 
        1.27628         2.12312         1.74462          2.2215 
        1.28244         2.10561         1.72564         2.19737 
        1.28858         2.08076         1.70697         2.17331 
        1.29471         2.05613         1.68862         2.15456 
        1.30084         2.04088         1.67057         2.14159 
        1.30697           2.026         1.65275         2.12062 
        1.31312         2.00499         1.63516          2.1001 
        1.31925          1.9859          1.6179         2.08375 
        1.32537         1.96832          1.6009         2.06384 
        1.33151         1.94639         1.58408         2.04479 
        1.33765         1.92973         1.56752         2.02588 
        1.34378         1.90911         1.55123         2.01079 
        1.34992         1.89757         1.53517         1.99305 
        1.35606         1.87662         1.51929         1.96864 
         1.3622         1.86097         1.50368         1.95348 
        1.36833         1.84185         1.48832         1.94066 
        1.37445         1.82479         1.47319         1.92352 
        1.38059         1.80835         1.45822         1.90565 
        1.38675         1.79319         1.44343         1.88649 
        1.39288         1.77756          1.4289         1.87251 
        1.39901         1.76052         1.41458         1.85779 
        1.40515         1.74251         1.40043         1.83838 
         1.4113         1.73465         1.38648          1.8242 
        1.41742         1.71272         1.37277          1.8152 
        1.42355          1.6945         1.35922         1.79025 
         1.4297         1.68747         1.34582         1.78341 
        1.43585         1.66801         1.33261          1.7691 
        1.44198          1.6553         1.31962         1.74499 
        1.44809         1.64027         1.30684         1.73883 
        1.45423         1.62839         1.29417         1.71775 
        1.46036         1.61391          1.2817         1.70529 
        1.46649         1.59423         1.26939         1.69636 
        1.47263         1.58516         1.25724         1.68129 
        1.47877         1.57729         1.24525         1.66461 
        1.48491         1.55401          1.2334         1.65445 
        1.49104         1.54787         1.22173         1.63867 
        1.49718         1.52996          1.2102         1.62861 
        1.50333         1.52011         1.19881         1.61121 
        1.50947         1.50854         1.18758         1.59762 
         1.5156         1.49485         1.17652         1.58833 
        1.52172         1.48426          1.1656         1.57469 
        1.52787         1.46931          1.1548         1.56138 
          1.534          1.4605         1.14415         1.55039 
        1.54013         1.44715         1.13364         1.53821 
        1.54627         1.43449         1.12325         1.52516 
        1.55241         1.42073         1.11299         1.51324 
        1.55855         1.41174         1.10287         1.50248 
        1.56467         1.40078         1.09291         1.49229 
         1.5708          1.3881         1.08304         1.47814 
        1.57695         1.37525         1.07328         1.46767 
        1.58308         1.36236         1.06366         1.46056 
        1.58922         1.35781         1.05416         1.44797 
        1.59535         1.34176         1.04478         1.43568 
         1.6015         1.33068          1.0355         1.42387 
        1.60764         1.32278         1.02633         1.41503 
        1.61376         1.31099         1.01731         1.40762 
        1.61989         1.30279         1.00838         1.39594 
        1.62604         1.28917        0.999547         1.38574 
        1.63218          1.2841        0.990824         1.37652 
        1.63831         1.27115        0.982225         1.36581 
        1.64444         1.26143        0.973727         1.35426 
        1.65059         1.25339        0.965309         1.34425 
        1.65673         1.24196           0.957         1.33618 
        1.66285         1.23317        0.948814           1.327 
        1.66898         1.22515        0.940721         1.31549 
        1.67512         1.21188        0.932707         1.30672 
        1.68127         1.20202         0.92478         1.29898 
         1.6874         1.19763        0.916964         1.29015 
        1.69353         1.18661        0.909243         1.27977 
        1.69967         1.17819        0.901594         1.27025 
        1.70581         1.17159        0.894036          1.2629 
        1.71193         1.16056        0.886594         1.25545 
        1.71806         1.15231        0.879222         1.24493 
        1.72421         1.14409         0.87192         1.23678 
        1.73035         1.13146         0.86471         1.22843 
        1.73649         1.13096        0.857583         1.21835 
        1.74262         1.11807        0.850543         1.20998 
        1.74876         1.11173        0.843578         1.20352 
        1.75489         1.10384        0.836706         1.19605 
        1.76101         1.09296        0.829913         1.18676 
        1.76715         1.08664        0.823187          1.1789 
        1.77329         1.07976        0.816528          1.1716 
        1.77943         1.07166         0.80994         1.16387 
        1.78557          1.0667        0.803435         1.15582 
        1.79171         1.05855        0.797001         1.14746 
        1.79785         1.04927        0.790637         1.13964 
        1.80399         1.04057        0.784344          1.1325 
        1.81012         1.03437        0.778128         1.12336 
        1.81625         1.02734        0.771983         1.11602 
        1.82239         1.02013        0.765895         1.11172 
        1.82853         1.01329        0.759877         1.10627 
        1.83466         1.00514        0.753929         1.09839 
        1.84078        0.997228        0.748052         1.08979 
        1.84692        0.992056        0.742229         1.08309 
        1.85306        0.986707         0.73646         1.07578 
         1.8592        0.977702        0.730762         1.06838 
        1.86533        0.973161        0.725129          1.0625 
        1.87147        0.962713        0.719548         1.05544 
        1.87761        0.958053        0.714025         1.04892 
