# k  (h/Mpc)    Pcb(k)  (Mpc/h)^3    Pcb_linear(k) (Mpc/h)^3    Pcb_NL(k) (Mpc/h)^3   ShotnoiseSubtracted = false
     0.00783031         2848.66         2863.22         2861.85 
       0.013688         3773.77         3828.18         3814.11 
       0.019231         4105.72         4135.38         4112.31 
      0.0249154          4061.3         4061.95          4041.6 
      0.0312784          3719.3         3736.88         3720.09 
      0.0375637         3315.25         3342.63         3326.54 
      0.0433917         3004.26         3008.69         2992.99 
      0.0492413         2723.06         2741.51         2726.09 
      0.0555754         2524.85          2528.8         2512.71 
      0.0619321         2326.37         2370.27         2353.34 
       0.067871         2219.93         2242.05         2224.38 
      0.0738098         2093.55         2109.71         2087.04 
      0.0800417         1944.04         1954.22          1932.3 
      0.0862327         1769.62         1785.02         1768.68 
      0.0921407         1607.76         1621.48         1606.53 
      0.0982031         1464.02         1466.16         1457.97 
       0.104506         1317.25          1330.2         1327.56 
       0.110769         1216.81         1225.94         1220.47 
       0.116806         1157.86         1152.16         1146.67 
       0.122832          1091.8         1097.38          1093.6 
       0.129052         1049.01         1050.68         1046.93 
       0.135211         1011.03         1005.01         1001.59 
       0.141259         952.914         954.874         953.745 
       0.147318         887.758         897.926         900.514 
       0.153489         833.632         835.519         834.532 
       0.159709         781.913         773.114         776.858 
       0.165845         714.961         717.079          728.55 
       0.171974         686.132         670.006         681.594 
       0.178125         651.762         632.721         649.764 
       0.184229         613.344         604.363         621.585 
        0.19034         598.439         581.855         598.863 
       0.196428         578.956         561.988         575.498 
       0.202534          547.91         541.717         556.495 
       0.208729         534.357         518.984         532.759 
       0.214876         514.095         493.958          513.17 
       0.220989         478.705          467.61         489.022 
       0.227147         464.824         441.304         463.387 
        0.23329         444.276         417.017         443.792 
       0.239377         428.666         396.069         425.086 
       0.245482         407.369         378.574         405.481 
       0.251667          390.93         364.054         393.618 
       0.257832         385.691         351.854         381.094 
       0.263955         367.184         340.837         369.272 
       0.270079         355.916         329.871         357.711 
        0.27624         341.113         318.257         345.137 
       0.282372         331.513         305.945          333.93 
        0.28843         327.341          293.32         321.657 
       0.294538          311.89         280.673         311.003 
       0.300721          298.56         268.548         301.174 
        0.30691         292.886          257.56         291.307 
       0.313033         281.106         248.001         281.122 
       0.319153         276.194         239.692         274.256 
       0.325316         266.637         232.276         268.128 
        0.33145         259.673         225.471         259.417 
       0.337538         252.159         218.905         252.353 
       0.343633         244.812         212.277         246.894 
       0.349808         237.911         205.399          240.79 
       0.355968         231.733         198.431         235.397 
       0.362074         226.927         191.583         228.365 
       0.368217         221.845         184.943         220.452 
       0.374374         217.083         178.719         215.579 
       0.380519         207.931         173.014          209.67 
       0.386598         203.552         167.878         204.847 
       0.392688         198.507         163.162         200.777 
        0.39888         194.744         158.673         195.393 
       0.405048         190.808         154.387         191.848 
       0.411186         187.476         150.193         188.215 
       0.417313         182.906         146.019         182.569 
       0.423458         178.405         141.856         178.881 
       0.429607         175.366         137.742         174.814 
       0.435692         172.101         133.784         171.324 
       0.441815         167.211         129.979         168.968 
       0.447964         162.563         126.372         164.735 
       0.454126         159.626         122.978         160.686 
       0.460267         158.481         119.806         158.538 
       0.466387         154.906         116.814         155.043 
        0.47254         153.175         113.925         152.463 
       0.478662         148.202         111.132         149.432 
       0.484765          146.05         108.407         145.985 
       0.490885         142.922          105.72         144.134 
       0.497035         141.889         103.065         141.985 
       0.503198         138.475         100.475         138.953 
       0.509342         135.126         97.9818         136.842 
       0.515458         133.781          95.599          135.45 
       0.521598         130.593         93.3088         132.019 
       0.527764          129.23         91.1132         129.028 
       0.533884         128.041         89.0306         127.257 
           0.54          124.87         87.0284          125.41 
       0.546137         121.823         85.0805         123.982 
       0.552299         120.336         83.1733         121.347 
       0.558452          118.16         81.3151         119.237 
       0.564573         117.704         79.5121         118.002 
       0.570708         114.281         77.7512         116.099 
       0.576825         113.143         76.0434         114.229 
       0.582926          111.87         74.3914         112.492 
       0.589034          110.07         72.7924         111.254 
       0.595184         108.713         71.2402         109.496 
       0.601379         105.932         69.7338         108.284 
       0.607522         104.669         68.2895         106.011 
       0.613639         103.644         66.8939         104.866 
       0.619772         101.979          65.532         103.182 
       0.625918         100.662          64.201         102.418 
       0.632068         99.3843         62.9032         100.489 
       0.638161         97.5544         61.6511         99.5181 
         0.6443         96.8877         60.4235         97.8206 
       0.650464         94.9771         59.2254         96.3429 
       0.656582         94.5279         58.0694         95.5987 
       0.662703         93.4153          56.945         93.9422 
       0.668861          91.408         55.8453         93.0424 
       0.675024         91.1024         54.7754         91.7048 
       0.681124          89.809         53.7458         90.5265 
       0.687237          88.027          52.742         89.3234 
       0.693381         87.4277           51.76         88.2047 
       0.699536         86.6135         50.8018         87.6594 
       0.705665         85.1513         49.8721         86.7136 
       0.711789         83.9886         48.9662         85.0176 
       0.717957         82.9244         48.0761         84.4767 
        0.72409         82.2798         47.2127         83.8601 
       0.730186         81.7048         46.3757         82.6585 
       0.736317         80.2667         45.5544         81.5614 
       0.742472         79.4787         44.7503         80.7878 
       0.748622         78.2883         43.9669         79.7287 
        0.75476          77.211         43.2045         78.9661 
       0.760888         77.0164          42.462         78.1108 
       0.767043          75.671         41.7345         77.5828 
       0.773185         75.0496         41.0261         76.8102 
       0.779291         74.1528         40.3385         76.0339 
       0.785407         73.0359         39.6659         75.0341 
       0.791564         73.0676         39.0047         74.2263 
       0.797719         72.1053         38.3589         73.6378 
       0.803834         71.3402          37.732         72.7736 
       0.809972         70.6028          37.117         72.1619 
       0.816124         69.9093         36.5145         71.4984 
       0.822261         69.0454         35.9271         70.5579 
       0.828378         68.7106         35.3546         69.7245 
       0.834502         67.8508         34.7941         69.6093 
       0.840667         67.3728         34.2424         68.7429 
       0.846816         66.3202         33.7044         68.1388 
       0.852925         66.1154         33.1815         67.7772 
       0.859047         65.5938         32.6687         66.7833 
       0.865192         64.5777         32.1652         66.2838 
       0.871341           63.97         31.6722         65.7483 
       0.877463         63.5598         31.1919         65.1651 
       0.883569         63.2676         30.7229         64.7682 
       0.889708         62.6014         30.2613         63.9927 
       0.895864         61.9376         29.8081         63.4702 
       0.902008         61.2792         29.3653          62.972 
       0.908149         60.8848         28.9319         62.4991 
       0.914301         60.4708         28.5066         62.1226 
       0.920448         59.9406         28.0904         61.4281 
       0.926574         58.9464          27.684         60.7681 
       0.932687         58.6665         27.2867          60.454 
       0.938823         58.0902         26.8959         59.8583 
       0.944975         57.5982         26.5118         59.2691 
       0.951105         57.0705         26.1368         58.9943 
       0.957225         56.9091         25.7698         58.4963 
       0.963368         56.2258         25.4086          57.933 
       0.969511          55.816         25.0545          57.521 
       0.975621         55.3396          24.709         57.2231 
       0.981748         54.7632         24.3693         56.7564 
       0.987916         54.4236         24.0339          56.246 
        0.99406         53.9433         23.7061         55.9112 
        1.00019         53.5553         23.3852         55.4717 
        1.00632         53.1498         23.0706         55.1254 
        1.01246         52.7728         22.7614         54.7082 
        1.01859         52.3002         22.4584          54.268 
        1.02471         51.7718         22.1613         53.9121 
        1.03085         51.6409         21.8687         53.5105 
        1.03698         51.1828         21.5821          53.083 
        1.04314         50.8442         21.2994         52.5911 
        1.04929         50.3041         21.0225         52.3892 
        1.05541         50.0729         20.7517         52.1698 
        1.06154          49.845          20.485         51.5671 
        1.06769         49.1275         20.2227         51.2467 
        1.07382         48.9457         19.9659         51.0091 
        1.07993         48.5039         19.7142         50.5223 
        1.08607         48.2017         19.4658         50.1884 
        1.09222         47.8978         19.2215          49.969 
        1.09836         47.5057         18.9818         49.6124 
        1.10449         47.2587         18.7464          49.176 
        1.11063         46.8646         18.5149         48.9723 
        1.11677          46.814         18.2873         48.6227 
         1.1229         46.3109         18.0641         48.2653 
        1.12903         46.0983         17.8444         47.9899 
        1.13518         45.8658         17.6282         47.5601 
        1.14131         45.4169         17.4157         47.3556 
        1.14745         44.9245          17.207         47.0827 
        1.15359         44.6061         17.0016         46.8564 
        1.15973         44.3523         16.7995         46.5448 
        1.16584         44.1035         16.6017         46.2595 
        1.17197         43.6175         16.4068         45.9153 
        1.17811         43.4402         16.2145         45.5087 
        1.18424         43.0083         16.0258          45.327 
        1.19038         42.8539         15.8397         45.1826 
        1.19652         42.6082         15.6566         44.7613 
        1.20267         42.3503         15.4764         44.5907 
        1.20881         42.0848         15.2991         44.3405 
        1.21495         41.7956         15.1249         44.1569 
        1.22108          41.696         14.9535         43.7695 
         1.2272         41.4247         14.7851         43.5743 
        1.23334         41.1247          14.619         43.3656 
        1.23949         40.8298         14.4551         43.0053 
        1.24562         40.4438         14.2942         42.7961 
        1.25174         40.2749          14.136         42.5935 
        1.25789         40.1668         13.9797         42.3014 
        1.26402         39.9062         13.8261         42.0634 
        1.27014         39.6061         13.6751         41.8545 
        1.27628         39.2575          13.526         41.5744 
        1.28244           39.21         13.3789         41.5015 
        1.28858         38.8304         13.2342         41.1596 
        1.29471         38.6481         13.0919         40.9395 
        1.30084         38.3481         12.9519         40.7572 
        1.30697         38.1996         12.8138         40.4633 
        1.31312         37.8781         12.6774         40.2748 
        1.31925         37.6652         12.5436         40.1051 
        1.32537         37.4565         12.4118         39.9307 
        1.33151         37.2244         12.2814          39.694 
        1.33765          37.125          12.153         39.5069 
        1.34378         36.8851         12.0267         39.2976 
        1.34992         36.6875         11.9022         39.0987 
        1.35606         36.4627         11.7791         38.9123 
         1.3622         36.1372          11.658         38.7356 
        1.36833         35.9961          11.539         38.5482 
        1.37445         35.8376         11.4216         38.2686 
        1.38059         35.5988         11.3056         38.0787 
        1.38675         35.2886         11.1909         37.9468 
        1.39288         35.2012         11.0783         37.7507 
        1.39901         34.9732         10.9673          37.583 
        1.40515          34.826         10.8575         37.3862 
         1.4113         34.7177         10.7494         37.2135 
        1.41742         34.5113         10.6431         37.0563 
        1.42355         34.2242         10.5381         36.7445 
         1.4297         34.0177         10.4342         36.6113 
        1.43585         33.8252         10.3317         36.5201 
        1.44198         33.6951          10.231         36.3025 
        1.44809         33.5187         10.1319         36.1506 
        1.45423         33.3553         10.0337         35.9355 
        1.46036         33.1598         9.93705         35.7447 
        1.46649         32.9569         9.84162         35.5927 
        1.47263         32.7905         9.74738         35.4785 
        1.47877         32.6993         9.65443         35.3821 
        1.48491         32.5197         9.56255         35.0819 
        1.49104         32.2767         9.47208          34.977 
        1.49718         32.1399         9.38271         34.8284 
        1.50333         32.0397         9.29437          34.693 
        1.50947         31.8281         9.20735         34.5743 
         1.5156         31.6582         9.12158         34.3921 
        1.52172         31.4276         9.03691         34.1678 
        1.52787         31.2614         8.95316         34.0134 
          1.534         31.1928         8.87058         33.8876 
        1.54013         31.0442         8.78913          33.684 
        1.54627         30.8073         8.70856         33.5283 
        1.55241         30.6881           8.629         33.4466 
        1.55855         30.5299         8.55056         33.3144 
        1.56467         30.4638         8.47331         33.1396 
         1.5708         30.2901         8.39681         33.0224 
        1.57695         30.0903         8.32114         32.8695 
        1.58308         29.8585         8.24659         32.7004 
        1.58922         29.7313         8.17291         32.6282 
        1.59535         29.5962         8.10016         32.5076 
         1.6015         29.4562          8.0282         32.3222 
        1.60764         29.3492         7.95716         32.1513 
        1.61376         29.2302         7.88719         32.0207 
        1.61989         29.0062           7.818         31.8939 
        1.62604         28.9063          7.7495          31.846 
        1.63218         28.7498         7.68186         31.7276 
        1.63831         28.6327          7.6152         31.5212 
        1.64444         28.4934         7.54931          31.405 
        1.65059         28.3339         7.48404         31.2773 
        1.65673         28.2499         7.41963          31.165 
        1.66285         28.0505         7.35616         31.0526 
        1.66898         27.9672         7.29341         30.9088 
        1.67512         27.8839         7.23128         30.7564 
        1.68127         27.6842         7.16983         30.6258 
         1.6874         27.5856         7.10922         30.4992 
        1.69353         27.4075         7.04937          30.356 
        1.69967          27.287         6.99006         30.2573 
        1.70581          27.168         6.93147          30.183 
        1.71193         26.9318         6.87377         30.0742 
        1.71806         26.9127         6.81661         29.9043 
        1.72421         26.8271            6.76         29.8024 
        1.73035         26.6361          6.7041         29.6881 
        1.73649         26.5092         6.64885          29.533 
        1.74262         26.3754         6.59426         29.4404 
        1.74876         26.2527         6.54026         29.3365 
        1.75489         26.1713         6.48699         29.2115 
        1.76101         26.0507         6.43432         29.0922 
        1.76715         25.9101         6.38217         28.9758 
        1.77329         25.8009         6.33054         28.8446 
        1.77943         25.6733         6.27947         28.7531 
        1.78557         25.5861         6.22904         28.7154 
        1.79171         25.4218         6.17915         28.5909 
        1.79785         25.3271         6.12981          28.446 
        1.80399          25.225         6.08102         28.3802 
        1.81012         25.1249         6.03283         28.2404 
        1.81625          24.947         5.98519         28.1205 
        1.82239         24.8646         5.93799         28.0625 
        1.82853         24.7728         5.89133         27.9458 
        1.83466          24.626         5.84522         27.8259 
        1.84078         24.5591         5.79965         27.7359 
        1.84692         24.4791          5.7545         27.6482 
        1.85306         24.3386         5.70978         27.5279 
         1.8592          24.241          5.6656         27.4067 
        1.86533         24.0363         5.62193         27.3264 
        1.87147           23.97         5.57866         27.2485 
