# k  (h/Mpc)    P(k)  (Mpc/h)^3    P_linear(k)  (Mpc/h)^3     P_NL(k)  ShotnoiseSubtracted = false
     0.00783031         964.127          969.82         969.229 
       0.013688         1283.47         1296.87         1292.64 
       0.019231         1394.59         1401.05         1394.38 
      0.0249154         1375.46         1376.23         1371.26 
      0.0312784          1263.3         1266.13         1263.33 
      0.0375637         1128.41         1132.57          1130.4 
      0.0433917         1020.26         1019.44         1017.94 
      0.0492413         926.816         928.917         927.599 
      0.0555754         858.048          856.85         855.258 
      0.0619321         795.945         803.138           801.4 
       0.067871         757.094         759.696         757.602 
      0.0738098         713.143         714.853          712.04 
      0.0800417         661.896         662.168         659.502 
      0.0862327          603.23         604.839         602.928 
      0.0921407         547.758         549.427         547.858 
      0.0982031         497.327         496.797         496.132 
       0.104506          448.64          450.73         450.794 
       0.110769         413.917         415.401         415.104 
       0.116806         391.824         390.403         390.003 
       0.122832          370.81          371.84         371.611 
       0.129052         356.132         356.018         355.729 
       0.135211         341.864         340.543         340.271 
       0.141259         323.274         323.554          323.55 
       0.147318         302.261         304.257          304.77 
       0.153489         282.711         283.111         283.199 
       0.159709         263.081         261.966         262.671 
       0.165845         241.732         242.979         244.697 
       0.171974         229.337         227.028         228.718 
       0.178125         216.842         214.394         216.767 
       0.184229         205.637         204.785         207.219 
        0.19034         199.581         197.159         199.532 
       0.196428         192.564         190.427         192.286 
       0.202534         183.517         183.558         185.559 
       0.208729         177.555         175.855         177.781 
       0.214876         170.287         167.375         170.022 
       0.220989         159.082         158.448         161.369 
       0.227147         152.882         149.534         152.498 
        0.23329         145.213         141.304         144.912 
       0.239377         138.734         134.206         138.174 
       0.245482         132.195         128.278         131.944 
       0.251667         126.623         123.358         127.374 
       0.257832         123.825         119.224          123.19 
       0.263955         118.802         115.491         119.301 
       0.270079         115.038         111.775          115.46 
        0.27624         110.332          107.84         111.359 
       0.282372         106.534         103.668         107.396 
        0.28843         103.869         99.3901         103.204 
       0.294538         99.2279          95.105         99.1648 
       0.300721         94.5579         90.9965         95.3813 
        0.30691         91.9453         87.2732         91.7528 
       0.313033         88.3423         84.0338         88.4426 
       0.319153         86.5668         81.2189         85.8934 
       0.325316         82.7755         78.7058         83.5441 
        0.33145         80.3804         76.3999         80.9831 
       0.337538         78.2939         74.1751          78.643 
       0.343633         76.1629         71.9293         76.4419 
       0.349808         73.7129         69.5985         74.2339 
       0.355968         71.2882         67.2375         72.2663 
       0.362074         69.5941         64.9172         69.8252 
       0.368217         67.4008         62.6671         67.2984 
       0.374374         65.8972         60.5582         65.4828 
       0.380519         63.1206         58.6249         63.4607 
       0.386598         61.3042         56.8849         61.8174 
       0.392688         59.5885         55.2869          60.268 
        0.39888          58.413         53.7658          58.631 
       0.405048         57.0383         52.3134         57.0914 
       0.411186         55.5342         50.8924          55.993 
       0.417313         54.0529         49.4778         54.3446 
       0.423458         52.4617         48.0674         53.0295 
       0.429607         51.5173         46.6732         51.5504 
       0.435692         50.4625         45.3321         50.3477 
       0.441815         48.6199          44.043         49.2944 
       0.447964         47.1706         42.8208         47.9344 
       0.454126         46.3479         41.6703         46.7172 
       0.460267         45.8147         40.5958         45.7688 
       0.466387         44.4967          39.582         44.6198 
        0.47254         43.7839          38.603         43.7058 
       0.478662         42.5222         37.6565         42.6988 
       0.484765         41.6241         36.7334         41.7502 
       0.490885         40.4797         35.8227         41.0587 
       0.497035         39.6953         34.9233         40.2006 
       0.503198         38.8075         34.0456         39.0956 
       0.509342         37.7975         33.2007         38.3609 
       0.515458         37.2849         32.3934         37.7414 
       0.521598         36.4217         31.6173          36.688 
       0.527764         35.9338         30.8733         35.8631 
       0.533884         34.9709         30.1677         35.1857 
           0.54         34.3055         29.4893         34.4752 
       0.546137         33.3156         28.8292         33.9178 
       0.552299         32.7745         28.1829         33.0973 
       0.558452         32.1209         27.5533         32.4592 
       0.564573         31.7257         26.9424         32.0328 
       0.570708         30.9469         26.3457         31.3944 
       0.576825         30.4627          25.767         30.7885 
       0.582926         29.8889         25.2073          30.273 
       0.589034         29.3364         24.6654         29.7826 
       0.595184         28.9425         24.1395         29.0619 
       0.601379         28.1692         23.6291          28.704 
       0.607522         27.7399         23.1396         28.1231 
       0.613639         27.1947         22.6668         27.6188 
       0.619772         26.7975         22.2053         27.2167 
       0.625918         26.2332         21.7543         26.7417 
       0.632068         25.9886         21.3145         26.2282 
       0.638161         25.4476         20.8902         25.7801 
         0.6443         25.0223         20.4743         25.3125 
       0.650464         24.4077         20.0683         25.0024 
       0.656582         24.2546         19.6766         24.5785 
       0.662703         23.9391         19.2956         24.1487 
       0.668861         23.3033          18.923          23.838 
       0.675024         22.9907         18.5604         23.3705 
       0.681124         22.8718         18.2116         23.0147 
       0.687237         22.4044         17.8714         22.5873 
       0.693381         21.8757         17.5387         22.2445 
       0.699536          21.778          17.214         21.9239 
       0.705665         21.3714          16.899          21.703 
       0.711789         20.9616          16.592         21.3112 
       0.717957         20.5397         16.2904         20.9622 
        0.72409         20.3701         15.9979         20.6967 
       0.730186         20.2219         15.7142         20.3495 
       0.736317         19.8002         15.4359         20.0504 
       0.742472         19.5496         15.1635         19.8876 
       0.748622         19.2443          14.898         19.5384 
        0.75476          18.767         14.6397         19.2244 
       0.760888         18.6604         14.3881         18.9889 
       0.767043         18.3155         14.1416         18.7726 
       0.773185         18.1074         13.9015         18.5189 
       0.779291         17.9913         13.6685          18.281 
       0.785407         17.6432         13.4407         18.0067 
       0.791564         17.4679         13.2166         17.7796 
       0.797719         17.1186         12.9978         17.4901 
       0.803834         17.0072         12.7854         17.2564 
       0.809972         16.6911          12.577         17.1267 
       0.816124         16.5004         12.3728         16.8346 
       0.822261         16.3038         12.1738         16.6116 
       0.828378         16.0826         11.9798         16.4128 
       0.834502         15.9149         11.7899         16.2305 
       0.840667         15.7563         11.6029         16.0009 
       0.846816         15.4325         11.4206         15.8365 
       0.852925         15.3144         11.2434         15.6947 
       0.859047         15.1253         11.0697         15.4618 
       0.865192         14.9156         10.8991         15.2682 
       0.871341         14.6996          10.732         15.1177 
       0.877463         14.5521         10.5693         14.9033 
       0.883569          14.429         10.4103         14.7621 
       0.889708         14.1987         10.2539         14.5766 
       0.895864         14.0254         10.1004         14.3847 
       0.902008         13.8394         9.95033         14.2474 
       0.908149         13.6638         9.80346         14.0837 
       0.914301          13.578         9.65936         13.9552 
       0.920448         13.3724         9.51832         13.7345 
       0.926574         13.2944         9.38064         13.6058 
       0.932687         13.0839           9.246         13.3878 
       0.938823         12.9076         9.11356         13.3045 
       0.944975         12.7973         8.98344         13.1358 
       0.951105         12.6222         8.85636         12.9645 
       0.957225         12.5446         8.73199          12.902 
       0.963368         12.3854         8.60962         12.7257 
       0.969511         12.2447         8.48961         12.6127 
       0.975621         12.1048         8.37256         12.4292 
       0.981748         11.9216         8.25745         12.3167 
       0.987916          11.829          8.1438         12.2092 
        0.99406         11.7492         8.03274         12.0826 
        1.00019         11.6256         7.92399         11.9844 
        1.00632         11.5097         7.81739         11.8478 
        1.01246          11.373         7.71261         11.7562 
        1.01859         11.2381         7.60994         11.6011 
        1.02471         11.0877         7.50929         11.4553 
        1.03085         11.0513         7.41013         11.3584 
        1.03698         10.9276           7.313         11.2647 
        1.04314         10.8101         7.21722         11.1398 
        1.04929         10.6499         7.12339          11.043 
        1.05541         10.5873         7.03163         10.9482 
        1.06154         10.4896         6.94128         10.8381 
        1.06769         10.4381         6.85239         10.7497 
        1.07382         10.2521         6.76537         10.6467 
        1.07993         10.1472         6.68008         10.5432 
        1.08607         10.0988         6.59592         10.4239 
        1.09222         9.95943         6.51315          10.325 
        1.09836         9.94498          6.4319         10.2235 
        1.10449         9.74574         6.35216         10.1352 
        1.11063         9.71711         6.27369         10.0466 
        1.11677         9.62948         6.19659         9.96081 
         1.1229         9.54173         6.12094         9.88201 
        1.12903         9.47211          6.0465         9.81476 
        1.13518         9.32151         5.97325         9.72544 
        1.14131         9.25165         5.90126         9.61498 
        1.14745         9.13698         5.83052         9.50384 
        1.15359         9.07402         5.76093         9.44717 
        1.15973         8.98605         5.69247         9.36843 
        1.16584         8.91589         5.62543         9.31452 
        1.17197         8.82874         5.55939         9.21254 
        1.17811         8.74488         5.49422         9.12565 
        1.18424          8.6738         5.43029         9.05324 
        1.19038         8.60944         5.36721         8.97789 
        1.19652         8.54592         5.30517         8.92001 
        1.20267         8.46813         5.24411         8.81108 
        1.20881         8.38307         5.18404         8.76908 
        1.21495         8.31154         5.12502         8.69577 
        1.22108         8.25634         5.06693         8.62712 
         1.2272         8.16377         5.00989         8.53285 
        1.23334         8.14777          4.9536         8.47791 
        1.23949         8.04675         4.89806         8.42729 
        1.24562         7.97867         4.84353         8.35147 
        1.25174         7.92864         4.78992         8.27546 
        1.25789         7.81584         4.73696         8.21081 
        1.26402         7.78114         4.68491         8.12977 
        1.27014         7.72877         4.63377          8.0832 
        1.27628         7.63528         4.58325         8.03785 
        1.28244         7.61175         4.53339          7.9727 
        1.28858         7.56049         4.48435         7.90179 
        1.29471         7.45176         4.43615         7.84099 
        1.30084         7.39528         4.38871         7.79591 
        1.30697         7.36187          4.3419            7.73 
        1.31312         7.29626          4.2957         7.67844 
        1.31925         7.23784         4.25034         7.62829 
        1.32537         7.19262         4.20568          7.5729 
        1.33151         7.12553         4.16151         7.51501 
        1.33765          7.0698           4.118         7.44614 
        1.34378         7.04446         4.07521         7.40946 
        1.34992         6.97706           4.033         7.35065 
        1.35606         6.92488         3.99131         7.27481 
         1.3622         6.86983         3.95028         7.23376 
        1.36833         6.80985         3.90994          7.2094 
        1.37445         6.75055         3.87018         7.14711 
        1.38059         6.71234         3.83086         7.09187 
        1.38675         6.65521           3.792         7.03863 
        1.39288         6.61572         3.75383          6.9981 
        1.39901         6.54852         3.71622         6.95483 
        1.40515         6.50953         3.67904         6.90099 
         1.4113         6.46277         3.64238         6.85303 
        1.41742         6.41668         3.60637         6.81308 
        1.42355         6.36503         3.57079         6.75034 
         1.4297         6.33381         3.53558         6.72188 
        1.43585         6.28778         3.50086         6.68626 
        1.44198         6.23757         3.46675         6.61793 
        1.44809          6.2064         3.43316         6.59585 
        1.45423         6.15532         3.39989         6.53943 
        1.46036         6.11662         3.36714          6.4973 
        1.46649          6.0617          3.3348          6.4655 
        1.47263         6.03741         3.30287         6.42407 
        1.47877         5.99041         3.27137         6.37548 
        1.48491         5.95385         3.24024         6.33629 
        1.49104         5.90494         3.20958          6.2914 
        1.49718         5.87579          3.1793          6.2559 
        1.50333         5.83013         3.14936         6.22195 
        1.50947         5.77423         3.11988         6.18169 
         1.5156         5.75991         3.09082         6.14234 
        1.52172         5.72151         3.06213         6.10551 
        1.52787         5.68186         3.03375         6.05877 
          1.534         5.64206         3.00576         6.01994 
        1.54013         5.60352         2.97817          5.9868 
        1.54627         5.56866         2.95087          5.9541 
        1.55241         5.52337         2.92391         5.91631 
        1.55855         5.50271         2.89733         5.86927 
        1.56467         5.46149         2.87115         5.84845 
         1.5708         5.42578         2.84523         5.81518 
        1.57695         5.37509         2.81959         5.77261 
        1.58308         5.34255         2.79433         5.74865 
        1.58922         5.32646         2.76936         5.71558 
        1.59535         5.28747         2.74471         5.67674 
         1.6015         5.24326         2.72033         5.63906 
        1.60764         5.22212         2.69626         5.61291 
        1.61376         5.18863         2.67255         5.58956 
        1.61989          5.1412          2.6491         5.55257 
        1.62604         5.11687         2.62589         5.51754 
        1.63218         5.09109         2.60297         5.48976 
        1.63831         5.07111         2.58038         5.45939 
        1.64444          5.0286         2.55806         5.42149 
        1.65059          5.0047         2.53594         5.39391 
        1.65673         4.96961         2.51412         5.36554 
        1.66285         4.93965         2.49261         5.33486 
        1.66898         4.90667         2.47135         5.30562 
        1.67512         4.87357          2.4503         5.27731 
        1.68127         4.84094         2.42947         5.25362 
         1.6874         4.83116         2.40894         5.22629 
        1.69353          4.7784         2.38865         5.18763 
        1.69967          4.7629         2.36856         5.15748 
        1.70581         4.73531          2.3487          5.1391 
        1.71193         4.70324         2.32915         5.11968 
        1.71806         4.67898         2.30979         5.08483 
        1.72421         4.65023          2.2906         5.05352 
        1.73035         4.62059         2.27166         5.02705 
        1.73649         4.59883         2.25294         4.99996 
        1.74262         4.57198         2.23444         4.97166 
        1.74876          4.5473         2.21615          4.9517 
        1.75489         4.52374         2.19809         4.92762 
        1.76101         4.49042         2.18025         4.89261 
        1.76715         4.47829         2.16258         4.86411 
        1.77329          4.4455         2.14508         4.84515 
        1.77943         4.41721         2.12778         4.82464 
        1.78557         4.39361         2.11069         4.79631 
        1.79171         4.37907         2.09378         4.76974 
        1.79785         4.34729         2.07706         4.74596 
        1.80399         4.31855         2.06053         4.72246 
        1.81012         4.29624          2.0442         4.70348 
        1.81625         4.27435         2.02806         4.68056 
        1.82239          4.2519         2.01207         4.65635 
        1.82853         4.22596         1.99626         4.64272 
        1.83466         4.19384         1.98063         4.62415 
        1.84078         4.17559         1.96519         4.59385 
        1.84692         4.15494         1.94989         4.56022 
        1.85306         4.13328         1.93474         4.53747 
         1.8592         4.11678         1.91977         4.52189 
        1.86533         4.08901         1.90497         4.50212 
        1.87147         4.07093         1.89031         4.48342 
        1.87761         4.05411          1.8758         4.46391 
