# k  (h/Mpc)    Pcb(k)  (Mpc/h)^3    Pcb_linear(k) (Mpc/h)^3    Pcb_NL(k) (Mpc/h)^3   ShotnoiseSubtracted = false
     0.00783031         466.705         469.638         469.293 
       0.013688         622.585          628.09         626.113 
       0.019231         676.074         678.576         675.517 
      0.0249154         665.893         666.574         664.415 
      0.0312784          612.28         613.257         612.264 
      0.0375637         547.365         548.572         547.958 
      0.0433917         494.344         493.778         493.542 
      0.0492413         449.491         449.934         449.786 
      0.0555754         415.744         415.029         414.745 
      0.0619321         386.784         389.013          388.66 
       0.067871         367.289         367.972         367.438 
      0.0738098         345.805         346.252         345.494 
      0.0800417           320.8         320.734         320.029 
      0.0862327         292.556         292.965         292.477 
      0.0921407         265.648         266.126         265.782 
      0.0982031         240.898         240.634         240.538 
       0.104506         217.641          218.32         218.417 
       0.110769         200.704         201.208         201.217 
       0.116806         189.533           189.1         189.042 
       0.122832         179.692         180.109          180.07 
       0.129052         172.447         172.445         172.366 
       0.135211         165.294         164.949         164.855 
       0.141259         156.519          156.72         156.689 
       0.147318         146.605         147.374         147.475 
       0.153489         136.895         137.131          137.15 
       0.159709         127.064         126.889         127.068 
       0.165845         117.064         117.692         118.123 
       0.171974         110.491         109.966         110.389 
       0.178125          104.36         103.847          104.43 
       0.184229         99.2221         99.1923          99.786 
        0.19034         96.0717         95.4983         96.0693 
       0.196428         92.6422         92.2374         92.6746 
       0.202534         88.5941         88.9105         89.3762 
       0.208729         85.4203         85.1794         85.6299 
       0.214876         81.7455          81.072         81.6972 
       0.220989         76.6193         76.7477          77.444 
       0.227147         73.2222         72.4301         73.1375 
        0.23329         69.3824         68.4439         69.3097 
       0.239377         66.0832         65.0058         65.9642 
       0.245482         63.0584         62.1344         63.0187 
       0.251667         60.4103         59.7512         60.7185 
       0.257832         58.8146         57.7488         58.7015 
       0.263955          56.639         55.9407         56.8495 
       0.270079         54.8185         54.1409         55.0145 
        0.27624         52.6342         52.2347         53.0657 
       0.282372         50.7193          50.214         51.1019 
        0.28843         49.1425         48.1419         49.0562 
       0.294538         46.9745         46.0662         47.0381 
       0.300721          44.772         44.0762         45.1271 
        0.30691         43.3306         42.2728         43.3447 
       0.313033         41.6544         40.7039         41.7609 
       0.319153         40.6848         39.3402         40.4659 
       0.325316         38.9299         38.1229         39.2869 
        0.33145         37.8018         37.0061         38.1066 
       0.337538         36.8075         35.9283         36.9974 
       0.343633         35.7908         34.8405         35.9095 
       0.349808         34.6022         33.7117         34.8135 
       0.355968         33.4124          32.568         33.7843 
       0.362074         32.4879         31.4441         32.6201 
       0.368217         31.3979         30.3543         31.4536 
       0.374374         30.6216         29.3327          30.514 
       0.380519         29.3988         28.3963         29.5497 
       0.386598         28.5028         27.5535         28.7401 
       0.392688         27.6829         26.7795         27.9677 
        0.39888         27.0629         26.0427         27.2107 
       0.405048         26.3887         25.3391          26.464 
       0.411186         25.6546         24.6509         25.8726 
       0.417313         24.9734         23.9657         25.1349 
       0.423458         24.1859         23.2824         24.4742 
       0.429607         23.6836         22.6073         23.7702 
       0.435692         23.1166         21.9577         23.1621 
       0.441815         22.3289         21.3332         22.5997 
       0.447964         21.6385         20.7412         21.9725 
       0.454126         21.2264         20.1841         21.3996 
       0.460267         20.8786         19.6635         20.9089 
       0.466387         20.2777         19.1725         20.3756 
        0.47254         19.8804         18.6982          19.915 
       0.478662          19.347         18.2398         19.4385 
       0.484765         18.9077         17.7926         18.9958 
       0.490885          18.391         17.3515          18.621 
       0.497035         17.9259         16.9159         18.1933 
       0.503198         17.5503         16.4907          17.692 
       0.509342         17.0694         16.0815         17.3143 
       0.515458         16.7813         15.6905         16.9728 
       0.521598         16.3934         15.3146         16.5176 
       0.527764         16.1287         14.9542         16.1475 
       0.533884         15.6425         14.6124         15.8127 
           0.54         15.3439         14.2838         15.4686 
       0.546137         14.9233         13.9641         15.1737 
       0.552299         14.6569         13.6511         14.8031 
       0.558452         14.3503         13.3461         14.5058 
       0.564573         14.1031         13.0502         14.2754 
       0.570708          13.788         12.7611         13.9689 
       0.576825         13.5179         12.4808         13.6754 
       0.582926         13.2219         12.2097         13.4209 
       0.589034         12.9919         11.9473         13.1795 
       0.595184         12.7871         11.6925         12.8473 
       0.601379         12.4529         11.4453         12.6586 
       0.607522         12.2246         11.2082         12.4021 
       0.613639         11.9426         10.9792         12.1605 
       0.619772         11.7742         10.7556         11.9637 
       0.625918         11.5254         10.5372         11.7177 
       0.632068         11.3622         10.3242         11.4903 
       0.638161         11.1255         10.1187         11.2771 
         0.6443         10.9128         9.91718          11.061 
       0.650464         10.6682         9.72054         10.8987 
       0.656582         10.5627          9.5308         10.6954 
       0.662703         10.3829         9.34626         10.4996 
       0.668861         10.1104         9.16578         10.3423 
       0.675024         9.95533         8.99017         10.1379 
       0.681124         9.90379         8.82119         9.96264 
       0.687237         9.67541         8.65643         9.76596 
       0.693381         9.43087         8.49526         9.59264 
       0.699536         9.35776           8.338         9.43908 
       0.705665         9.18308         8.18541         9.33172 
       0.711789          8.9872         8.03673         9.16375 
       0.717957          8.8178         7.89063         8.99153 
        0.72409         8.71066         7.74893         8.85525 
       0.730186         8.61804         7.61154         8.69577 
       0.736317         8.43485         7.47675         8.55452 
       0.742472          8.3218         7.34478         8.46525 
       0.748622         8.19304         7.21619         8.32159 
        0.75476         8.00029         7.09107         8.16654 
       0.760888          7.9251          6.9692         8.05175 
       0.767043         7.73335          6.8498         7.94238 
       0.773185         7.63992         6.73353          7.8302 
       0.779291         7.59151         6.62067         7.71127 
       0.785407         7.43523         6.51029         7.58592 
       0.791564         7.33431         6.40176         7.47766 
       0.797719         7.20315         6.29577         7.34247 
       0.803834         7.11251         6.19288          7.2438 
       0.809972         6.99092         6.09194          7.1686 
       0.816124         6.89479         5.99305         7.03955 
       0.822261         6.80349         5.89664         6.93928 
       0.828378         6.68898         5.80267          6.8426 
       0.834502         6.60526         5.71069         6.73992 
       0.840667         6.53296         5.62014         6.64991 
       0.846816         6.41477         5.53183         6.57638 
       0.852925         6.32175           5.446         6.48345 
       0.859047         6.23903         5.36184         6.40504 
       0.865192         6.14855         5.27921         6.30896 
       0.871341         6.06098         5.19829          6.2264 
       0.877463         5.97553         5.11946         6.13307 
       0.883569          5.9001         5.04249         6.06475 
       0.889708         5.82494         4.96673          5.9836 
       0.895864         5.74634         4.89235          5.8972 
       0.902008         5.65099         4.81967         5.82603 
       0.908149         5.58563         4.74853         5.75399 
       0.914301         5.52737         4.67873         5.67671 
       0.920448            5.45         4.61042         5.59132 
       0.926574          5.4076         4.54373         5.53231 
       0.932687         5.31685         4.47851         5.43825 
       0.938823         5.22734         4.41436         5.40158 
       0.944975         5.18202         4.35134         5.31252 
       0.951105         5.08991         4.28978         5.24682 
       0.957225         5.04382         4.22954         5.20318 
       0.963368         4.99462         4.17026         5.12934 
       0.969511         4.93376         4.11214         5.07103 
       0.975621         4.85965         4.05544         4.98697 
       0.981748         4.77225         3.99968          4.9334 
       0.987916         4.72812         3.94463         4.89413 
        0.99406         4.69498         3.89084         4.83627 
        1.00019         4.63453         3.83817          4.7862 
        1.00632         4.58902         3.78653         4.72079 
        1.01246         4.51983         3.73578         4.66513 
        1.01859         4.46628         3.68605         4.60828 
        1.02471           4.396          3.6373          4.5518 
        1.03085         4.36336         3.58927         4.49499 
        1.03698         4.31331         3.54222           4.448 
        1.04314         4.26915         3.49582         4.39982 
        1.04929         4.21224         3.45038          4.3521 
        1.05541         4.15586         3.40593         4.31086 
        1.06154         4.12235         3.36217         4.26334 
        1.06769         4.09167         3.31911         4.21885 
        1.07382         4.02478         3.27696         4.17076 
        1.07993         3.97426         3.23565         4.12335 
        1.08607         3.94514         3.19489         4.07738 
        1.09222         3.88565         3.15479         4.02756 
        1.09836         3.87129         3.11544         3.98972 
        1.10449         3.79253         3.07681         3.94973 
        1.11063         3.76456         3.03881         3.89995 
        1.11677         3.72858         3.00146         3.86631 
         1.1229         3.67857         2.96482         3.83053 
        1.12903         3.65507         2.92876         3.78867 
        1.13518         3.59933         2.89328         3.75293 
        1.14131         3.56557         2.85841         3.70934 
        1.14745         3.52478         2.82414         3.66278 
        1.15359         3.49219         2.79044         3.63637 
        1.15973         3.45449         2.75728         3.59959 
        1.16584         3.41764         2.72481         3.56425 
        1.17197         3.37812         2.69282         3.52596 
        1.17811         3.34375         2.66125         3.49299 
        1.18424         3.30889         2.63029         3.45341 
        1.19038         3.27377         2.59973         3.42143 
        1.19652         3.25104         2.56968         3.39484 
        1.20267         3.22181         2.54011         3.34808 
        1.20881         3.18012         2.51101         3.32273 
        1.21495         3.15303         2.48242         3.29955 
        1.22108         3.12371         2.45428         3.26412 
         1.2272         3.07814         2.42665         3.22376 
        1.23334         3.06487         2.39939         3.19955 
        1.23949         3.03235         2.37249         3.17877 
        1.24562         3.00195         2.34607         3.14743 
        1.25174         2.97538         2.32011         3.10854 
        1.25789         2.93721         2.29446         3.07899 
        1.26402         2.90751         2.26924          3.0481 
        1.27014         2.87924         2.24447         3.02751 
        1.27628         2.85431            2.22         3.00283 
        1.28244         2.83321         2.19585         2.96986 
        1.28858         2.80323          2.1721         2.93879 
        1.29471         2.76779         2.14875         2.91313 
        1.30084         2.74787         2.12577         2.89651 
        1.30697         2.72796          2.1031         2.86972 
        1.31312           2.702         2.08072         2.84296 
        1.31925         2.67693         2.05875         2.82158 
        1.32537          2.6548         2.03712         2.79567 
        1.33151         2.62507         2.01572         2.77086 
        1.33765         2.60415         1.99465         2.74544 
        1.34378         2.57918         1.97392         2.72698 
        1.34992         2.56172         1.95348         2.70325 
        1.35606         2.53553         1.93328         2.67051 
         1.3622          2.5153         1.91341          2.6514 
        1.36833         2.48774         1.89387         2.63617 
        1.37445         2.46513         1.87461         2.61292 
        1.38059         2.44475         1.85557         2.59001 
        1.38675         2.42514         1.83674         2.56352 
        1.39288         2.40682         1.81826         2.54712 
        1.39901         2.38143         1.80004         2.52774 
        1.40515         2.35877         1.78203         2.50173 
         1.4113         2.34757         1.76427         2.48334 
        1.41742         2.31902         1.74683         2.47167 
        1.42355         2.29666         1.72959         2.43793 
         1.4297         2.28667         1.71254         2.43061 
        1.43585          2.2622         1.69572         2.41294 
        1.44198         2.24493          1.6792         2.38013 
        1.44809         2.22707         1.66293         2.37213 
        1.45423         2.21049         1.64682         2.34492 
        1.46036         2.19185         1.63095         2.32808 
        1.46649         2.16348         1.61529         2.31649 
        1.47263         2.15513         1.59982         2.29743 
        1.47877         2.14255         1.58456          2.2747 
        1.48491         2.11355         1.56948          2.2609 
        1.49104         2.10341         1.55463         2.24118 
        1.49718         2.08221         1.53997         2.22715 
        1.50333         2.06736         1.52547         2.20623 
        1.50947         2.05194         1.51118         2.18829 
         1.5156          2.0347         1.49711         2.17509 
        1.52172          2.0206         1.48321         2.15853 
        1.52787          2.0024         1.46946         2.14013 
          1.534         1.98934         1.45591         2.12501 
        1.54013         1.97124         1.44254         2.10904 
        1.54627         1.95553         1.42932         2.09204 
        1.55241          1.9372         1.41626         2.07665 
        1.55855         1.92588         1.40339         2.06211 
        1.56467         1.91141         1.39071         2.04905 
         1.5708         1.89481         1.37815         2.03033 
        1.57695         1.87741         1.36573         2.01717 
        1.58308         1.86109          1.3535         2.00865 
        1.58922          1.8559          1.3414         1.99127 
        1.59535         1.83356         1.32946         1.97528 
         1.6015         1.81876         1.31765         1.95998 
        1.60764         1.80884         1.30599         1.94829 
        1.61376         1.79269         1.29451          1.9385 
        1.61989          1.7822         1.28315         1.92274 
        1.62604         1.76415         1.27191         1.90973 
        1.63218         1.75821         1.26081          1.8977 
        1.63831         1.74202         1.24987         1.88312 
        1.64444         1.72816         1.23905         1.86823 
        1.65059         1.71887         1.22834         1.85512 
        1.65673         1.70204         1.21777         1.84463 
        1.66285         1.69019         1.20735          1.8324 
        1.66898         1.68058         1.19705         1.81683 
        1.67512         1.66251         1.18686         1.80571 
        1.68127         1.64967         1.17677         1.79611 
         1.6874         1.64526         1.16682         1.78434 
        1.69353         1.62857           1.157         1.76979 
        1.69967         1.61821         1.14726         1.75737 
        1.70581         1.61033         1.13765         1.74838 
        1.71193         1.59308         1.12818         1.73889 
        1.71806         1.58273          1.1188         1.72445 
        1.72421         1.57345         1.10951         1.71321 
        1.73035         1.55633         1.10033         1.70258 
        1.73649         1.55555         1.09126         1.68995 
        1.74262         1.53962          1.0823         1.67834 
        1.74876         1.52964         1.07344          1.6696 
        1.75489         1.51978          1.0647         1.65985 
        1.76101          1.5051         1.05605         1.64736 
        1.76715          1.4971         1.04749         1.63659 
        1.77329         1.48744         1.03902         1.62671 
        1.77943         1.47755         1.03064         1.61667 
        1.78557         1.47014         1.02236         1.60658 
        1.79171         1.46002         1.01417         1.59612 
        1.79785         1.44761         1.00607          1.5857 
        1.80399         1.43702        0.998066         1.57549 
        1.81012         1.42735        0.990157         1.56414 
        1.81625          1.4168        0.982337         1.55478 
        1.82239         1.40811        0.974591         1.54846 
        1.82853         1.39937        0.966933         1.54179 
        1.83466         1.38809        0.959365         1.53183 
        1.84078         1.37857        0.951886         1.52006 
        1.84692         1.37131        0.944475         1.51049 
        1.85306          1.3649        0.937135         1.50085 
         1.8592         1.35233        0.929885         1.49155 
        1.86533         1.34594        0.922716         1.48374 
        1.87147         1.33261        0.915615         1.47428 
