# k  (h/Mpc)    P(k)  (Mpc/h)^3    P_linear(k)  (Mpc/h)^3     P_NL(k)  ShotnoiseSubtracted = false
     0.00783031         2534.99         2548.19         2546.96 
       0.013688         3360.37         3407.03         3394.74 
       0.019231          3655.4         3680.47          3660.4 
      0.0249154         3614.56         3615.13         3597.83 
      0.0312784         3311.49         3325.83         3312.11 
      0.0375637         2952.58         2974.95            2962 
      0.0433917         2674.91         2677.75         2665.37 
      0.0492413         2425.24         2439.96         2427.88 
      0.0555754         2248.39         2250.65         2237.95 
      0.0619321         2073.43         2109.56         2096.18 
       0.067871         1977.86         1995.45         1981.36 
      0.0738098         1864.96         1877.66         1859.53 
      0.0800417         1731.76         1739.27         1721.77 
      0.0862327         1576.59         1588.68         1575.68 
      0.0921407         1432.24         1443.14         1431.32 
      0.0982031         1303.69         1304.89         1298.54 
       0.104506         1173.31         1183.89         1182.01 
       0.110769         1083.67          1091.1         1086.92 
       0.116806         1030.54         1025.43         1021.22 
       0.122832         972.128         976.678         973.826 
       0.129052         934.091         935.119         932.264 
       0.135211         899.781          894.47         891.885 
       0.141259         848.426         849.847         849.091 
       0.147318         790.731         799.163         801.446 
       0.153489         742.146          743.62         743.002 
       0.159709         695.324         688.079         691.284 
       0.165845         636.103         638.207         647.681 
       0.171974         609.625         596.312         605.834 
       0.178125          578.65         563.127         577.057 
       0.184229         545.144         537.888         552.008 
        0.19034         531.535         517.857         531.778 
       0.196428         514.023         500.175         511.205 
       0.202534         486.835         482.133         494.178 
       0.208729         474.338           461.9         473.184 
       0.214876         456.249         439.627         455.342 
       0.220989         424.848         416.178         433.651 
       0.227147           412.1         392.765         410.736 
        0.23329         393.586         371.149          392.96 
       0.239377         379.212         352.506         376.196 
       0.245482         360.454         336.935         358.882 
       0.251667          345.79         324.012         348.125 
       0.257832         340.842         313.153             337 
       0.263955         324.735         303.348         326.499 
       0.270079         314.732         293.588         316.216 
        0.27624         301.643         283.251          305.06 
       0.282372         292.873         272.294         295.043 
        0.28843         288.825         261.057         284.116 
       0.294538         275.304         249.802         274.479 
       0.300721         263.282         239.011         265.589 
        0.30691         258.058         229.231         256.669 
       0.313033         247.711         220.722         247.654 
       0.319153         243.368         213.329         241.504 
       0.325316         234.524         206.728         235.947 
        0.33145         228.249         200.671         228.338 
       0.337538          221.78         194.828         222.039 
       0.343633         215.394         188.929         217.013 
       0.349808         209.202         182.807         211.533 
       0.355968         203.557         176.605         206.736 
       0.362074         199.392         170.511         200.437 
       0.368217         194.629         164.601         193.409 
       0.374374          190.46         159.062         189.058 
       0.380519         182.364         153.984         183.769 
       0.386598         178.324         149.413         179.461 
       0.392688         173.802         145.216         175.806 
        0.39888         170.597         141.221         171.035 
       0.405048         167.055         137.406         167.721 
       0.411186         163.892         133.673         164.646 
       0.417313         159.806         129.958         159.665 
       0.423458         155.848         126.253         156.379 
       0.429607          153.23         122.591         152.699 
       0.435692          150.41         119.069         149.609 
       0.441815         145.836         115.683         147.437 
       0.447964         141.764         112.473         143.661 
       0.454126         139.196         109.451         140.123 
       0.460267          138.22         106.629         138.128 
       0.466387         134.967         103.966         135.023 
        0.47254         133.431         101.394         132.738 
       0.478662         129.104         98.9082         130.043 
       0.484765         127.118         96.4836         127.055 
       0.490885         124.222         94.0915         125.409 
       0.497035          123.26         91.7291         123.445 
       0.503198         120.207         89.4237         120.684 
       0.509342         117.324         87.2047         118.813 
       0.515458         116.121         85.0841         117.544 
       0.521598         113.358         83.0458          114.49 
       0.527764         112.156         81.0916         111.862 
       0.533884         110.889         79.2381         110.259 
           0.54         108.214         77.4562         108.594 
       0.546137         105.484         75.7226         107.315 
       0.552299         104.115          74.025          104.99 
       0.558452         102.217         72.3712         103.121 
       0.564573         101.783         70.7666         102.016 
       0.570708          98.784         69.1993         100.336 
       0.576825         97.8146         67.6794         98.7102 
       0.582926         96.6482         66.2092         97.1862 
       0.589034         95.0404         64.7858         96.0555 
       0.595184         93.8178         63.4045         94.4627 
       0.601379         91.4013         62.0638         93.3647 
       0.607522         90.3114         60.7783         91.3949 
       0.613639          89.365         59.5363         90.3357 
       0.619772         87.8971         58.3241         88.9054 
       0.625918         86.6285         57.1395         88.1857 
       0.632068         85.6812         55.9845         86.4926 
       0.638161         84.0402         54.8701          85.564 
         0.6443         83.3592         53.7775         84.0875 
       0.650464         81.6436         52.7112         82.8842 
       0.656582         81.2404         51.6823         82.1479 
       0.662703         80.3052         50.6816         80.7043 
       0.668861         78.5291         49.7029         79.9077 
       0.675024         78.1606         48.7506         78.7099 
       0.681124         77.1323         47.8343         77.6619 
       0.687237         75.6097         46.9409         76.6018 
       0.693381         74.9299         46.0669         75.6249 
       0.699536         74.3317         45.2141         75.1033 
       0.705665         73.0518         44.3867         74.2624 
       0.711789         72.0061         43.5804         72.8218 
       0.717957         71.0049         42.7882         72.3099 
        0.72409         70.4217         42.0198         71.7146 
       0.730186         69.9795         41.2748         70.6696 
       0.736317         68.7425         40.5439         69.7362 
       0.742472         68.0405         39.8282         69.0776 
       0.748622         67.0105          39.131          68.117 
        0.75476         65.9268         38.4524         67.4489 
       0.760888         65.7838         37.7916         66.7301 
       0.767043         64.6499         37.1442         66.2242 
       0.773185         64.1574         36.5136         65.5086 
       0.779291         63.3755         35.9016         64.8549 
       0.785407         62.4016         35.3031         63.9985 
       0.791564         62.3873         34.7145         63.2844 
       0.797719         61.4669         34.1398         62.7392 
       0.803834         60.8875         33.5819         61.9918 
       0.809972         60.1446         33.0345         61.4617 
       0.816124         59.5642         32.4983         60.8283 
       0.822261         58.8626         31.9755         60.0214 
       0.828378         58.5185         31.4659         59.3279 
       0.834502         57.8484         30.9671         59.2004 
       0.840667         57.3861         30.4761         58.4033 
       0.846816         56.3952         29.9972         57.8988 
       0.852925         56.2892         29.5318          57.629 
       0.859047         55.7751         29.0755         56.7292 
       0.865192         54.9438         28.6274         56.2665 
       0.871341          54.413         28.1886         55.8346 
       0.877463         54.0272         27.7611         55.2919 
       0.883569         53.7776         27.3437         54.9499 
       0.889708         53.1634         26.9329         54.2551 
       0.895864         52.5778         26.5295         53.7869 
       0.902008         51.9849         26.1354         53.3638 
       0.908149         51.6634         25.7497         52.9648 
       0.914301         51.3183         25.3712         52.6323 
       0.920448         50.7876         25.0007         52.0116 
       0.926574         50.0185         24.6391         51.4619 
       0.932687         49.7408         24.2854         51.1341 
       0.938823         49.2239         23.9376          50.652 
       0.944975         48.8233         23.5958         50.1344 
       0.951105         48.3747          23.262         49.8324 
       0.957225         48.2028         22.9354         49.4373 
       0.963368         47.5851         22.6139         48.9598 
       0.969511         47.2473         22.2987         48.5992 
       0.975621         46.8227         21.9913         48.2869 
       0.981748         46.3353         21.6889         47.9317 
       0.987916         46.0647         21.3904         47.4456 
        0.99406         45.6106         21.0987         47.1505 
        1.00019         45.2991         20.8131          46.766 
        1.00632         44.9354         20.5331         46.4828 
        1.01246         44.6329         20.2578         46.1526 
        1.01859         44.1677         19.9882         45.7467 
        1.02471         43.7594         19.7238         45.4133 
        1.03085         43.6488         19.4634         45.0773 
        1.03698         43.2489         19.2082         44.7077 
        1.04314         42.9108         18.9567         44.2745 
        1.04929         42.4639         18.7102          44.087 
        1.05541          42.293         18.4692           43.89 
        1.06154         42.0751         18.2319         43.3699 
        1.06769          41.494         17.9984         43.0827 
        1.07382          41.266         17.7699         42.8865 
        1.07993         40.8908         17.5458         42.4784 
        1.08607         40.6636         17.3248          42.186 
        1.09222         40.3636         17.1074         41.9888 
        1.09836         40.0473          16.894         41.6679 
        1.10449         39.8279         16.6845         41.3074 
        1.11063         39.5078         16.4784         41.1402 
        1.11677         39.4357         16.2759         40.8105 
         1.1229         39.0248         16.0772         40.5086 
        1.12903         38.8136         15.8817         40.2813 
        1.13518         38.5757         15.6893         39.8983 
        1.14131         38.2503         15.5002         39.7018 
        1.14745         37.8107         15.3144         39.4832 
        1.15359         37.5425         15.1316          39.257 
        1.15973         37.2902         14.9518          39.004 
        1.16584         37.0755         14.7757         38.7871 
        1.17197         36.6946         14.6022         38.4978 
        1.17811          36.526         14.4311         38.1313 
        1.18424         36.2016         14.2631         37.9845 
        1.19038         36.0491         14.0975         37.8241 
        1.19652         35.8006         13.9345         37.4782 
        1.20267         35.5877         13.7741         37.3009 
        1.20881         35.3558         13.6163         37.1278 
        1.21495         35.0967         13.4613         36.9444 
        1.22108         35.0428         13.3087         36.6263 
         1.2272         34.7978         13.1589         36.4307 
        1.23334         34.5383         13.0111         36.2723 
        1.23949         34.2831         12.8652         35.9665 
        1.24562         33.9585          12.722         35.7733 
        1.25174         33.8198         12.5811         35.6011 
        1.25789         33.6858         12.4421          35.359 
        1.26402         33.4938         12.3053         35.1377 
        1.27014         33.2496          12.171         34.9659 
        1.27628         32.9386         12.0383         34.7283 
        1.28244         32.9195         11.9074         34.6619 
        1.28858          32.575         11.7785         34.3576 
        1.29471         32.3672         11.6519          34.161 
        1.30084           32.15         11.5273          34.048 
        1.30697         32.0432         11.4044          33.788 
        1.31312          31.754          11.283          33.596 
        1.31925          31.591         11.1639         33.4781 
        1.32537         31.3944         11.0466         33.3323 
        1.33151         31.2048         10.9306         33.1103 
        1.33765          31.121         10.8163         32.9459 
        1.34378         30.9065         10.7039         32.7815 
        1.34992         30.7382          10.593         32.6071 
        1.35606         30.5227         10.4835         32.4139 
         1.3622         30.2594         10.3758         32.2683 
        1.36833         30.1709         10.2698         32.1281 
        1.37445         30.0406         10.1654         31.8843 
        1.38059         29.8295         10.0621         31.6998 
        1.38675         29.5755         9.96002         31.5914 
        1.39288         29.4578         9.85978         31.4174 
        1.39901         29.3017         9.76097         31.2815 
        1.40515         29.1508         9.66331         31.1312 
         1.4113          29.033         9.56704         30.9852 
        1.41742          28.874         9.47245         30.8312 
        1.42355         28.6419         9.37898         30.5783 
         1.4297         28.4764          9.2865         30.4831 
        1.43585         28.3312         9.19532          30.393 
        1.44198         28.2123         9.10572         30.2068 
        1.44809          28.054         9.01749         30.0884 
        1.45423         27.8999         8.93012         29.9107 
        1.46036         27.7489         8.84408         29.7362 
        1.46649         27.5672         8.75914         29.5983 
        1.47263          27.453         8.67527         29.5056 
        1.47877         27.3654         8.59254         29.4263 
        1.48491         27.1849         8.51077         29.1657 
        1.49104         27.0042         8.43024         29.0764 
        1.49718         26.8859         8.35071         28.9633 
        1.50333         26.7825         8.27208         28.8348 
        1.50947         26.6285         8.19463         28.7242 
         1.5156         26.4735          8.1183         28.5753 
        1.52172         26.3038         8.04294         28.3904 
        1.52787          26.153          7.9684          28.257 
          1.534         26.1057          7.8949         28.1441 
        1.54013         25.9759         7.82241         27.9616 
        1.54627         25.7842         7.75071         27.8342 
        1.55241         25.6523          7.6799         27.7755 
        1.55855         25.5395         7.61008         27.6542 
        1.56467          25.468         7.54133         27.5041 
         1.5708         25.3388         7.47324          27.417 
        1.57695          25.163          7.4059          27.299 
        1.58308         24.9755         7.33955         27.1567 
        1.58922         24.8841         7.27397         27.0844 
        1.59535         24.7381         7.20922         26.9695 
         1.6015         24.6118         7.14518          26.827 
        1.60764          24.528         7.08195         26.6862 
        1.61376         24.4486         7.01967         26.5591 
        1.61989         24.2584          6.9581         26.4712 
        1.62604         24.1796         6.89713         26.4215 
        1.63218         24.0497         6.83694         26.3009 
        1.63831         23.9242          6.7776         26.1375 
        1.64444         23.8166         6.71896         26.0588 
        1.65059         23.6828         6.66087         25.9329 
        1.65673         23.6126         6.60354         25.8411 
        1.66285         23.4413         6.54705         25.7529 
        1.66898         23.3862         6.49121          25.615 
        1.67512         23.3082         6.43591         25.4909 
        1.68127         23.1276         6.38122         25.3775 
         1.6874         23.0607         6.32728         25.2687 
        1.69353         22.8979         6.27401         25.1708 
        1.69967         22.7951         6.22122          25.095 
        1.70581         22.7334         6.16907          25.024 
        1.71193         22.5409         6.11772         24.9227 
        1.71806         22.5107         6.06685         24.7821 
        1.72421         22.4067         6.01647         24.7071 
        1.73035         22.2636         5.96671         24.6019 
        1.73649         22.1812         5.91754         24.4573 
        1.74262          22.041         5.86896         24.4098 
        1.74876         21.9679          5.8209         24.3186 
        1.75489         21.8868         5.77348         24.1902 
        1.76101         21.7787         5.72661         24.0905 
        1.76715         21.6664          5.6802         24.0091 
        1.77329         21.5739         5.63425         23.8982 
        1.77943         21.4467         5.58879         23.8144 
        1.78557         21.3983          5.5439         23.7888 
        1.79171         21.2593         5.49951         23.6829 
        1.79785         21.2042         5.45559         23.5543 
        1.80399         21.0791         5.41217         23.4999 
        1.81012         21.0123         5.36928         23.3897 
        1.81625          20.859         5.32688         23.3009 
        1.82239         20.7847         5.28487         23.2548 
        1.82853         20.7181         5.24334         23.1389 
        1.83466         20.5829          5.2023          23.034 
        1.84078          20.548         5.16175         22.9645 
        1.84692         20.4831         5.12156         22.8766 
        1.85306         20.3664         5.08176         22.7852 
         1.8592         20.2797         5.04244         22.7035 
        1.86533         20.1178         5.00357         22.6276 
        1.87147         20.0611         4.96506         22.5594 
        1.87761         19.9635         4.92695         22.4812 
