# k  (h/Mpc)    P(k)  (Mpc/h)^3    P_linear(k)  (Mpc/h)^3     P_NL(k)  ShotnoiseSubtracted = false
     0.00783031         10630.7         10670.6         10659.7 
       0.013688         13920.8         14262.6         14181.6 
       0.019231         15176.3         15404.9         15266.1 
      0.0249154         15094.2         15130.1         14963.3 
      0.0312784         13713.7         13918.5         13721.5 
      0.0375637         12160.4         12449.6         12243.4 
      0.0433917         11056.5         11205.6         10977.1 
      0.0492413          9972.9         10210.4          9977.9 
      0.0555754          9246.4         9418.04         9185.99 
      0.0619321         8400.37         8827.53          8587.2 
       0.067871         8046.04         8349.95         8112.26 
      0.0738098         7615.01         7857.01         7558.11 
      0.0800417         7056.29         7277.89         6988.21 
      0.0862327         6417.23         6647.74         6425.56 
      0.0921407         5849.76         6038.69         5830.53 
      0.0982031         5364.59         5460.21         5329.72 
       0.104506         4818.29         4953.88         4889.67 
       0.110769            4465         4565.57         4475.72 
       0.116806         4278.03         4290.81         4201.71 
       0.122832         4028.15         4086.79         4016.65 
       0.129052          3845.8         3912.88         3847.75 
       0.135211         3743.15         3742.79         3676.76 
       0.141259         3502.42         3556.06          3523.1 
       0.147318         3260.25         3343.98         3340.84 
       0.153489         3086.75         3111.57         3080.09 
       0.159709         2956.25         2879.16         2898.33 
       0.165845         2698.99         2670.48         2765.06 
       0.171974         2625.53         2495.17         2603.38 
       0.178125         2537.09         2356.31         2519.34 
       0.184229         2348.26         2250.71         2404.27 
        0.19034          2317.9         2166.89         2324.79 
       0.196428         2258.58          2092.9         2232.95 
       0.202534         2132.54          2017.4         2170.46 
       0.208729         2094.09         1932.74         2069.72 
       0.214876         2012.86         1839.55         2017.99 
       0.220989         1908.16         1741.42         1947.99 
       0.227147         1861.05         1643.46         1870.82 
        0.23329         1790.26         1553.01         1813.29 
       0.239377         1774.05            1475         1745.31 
       0.245482         1693.18         1409.84         1671.37 
       0.251667         1632.11         1355.77          1637.9 
       0.257832         1612.55         1310.33         1590.91 
       0.263955         1542.02         1269.31         1549.52 
       0.270079          1506.4         1228.47          1509.2 
        0.27624         1444.61         1185.21         1465.06 
       0.282372         1428.19         1139.36            1432 
        0.28843         1408.21         1092.35         1393.98 
       0.294538         1343.98         1045.25         1356.57 
       0.300721         1316.86          1000.1         1317.77 
        0.30691         1289.89         959.176         1297.36 
       0.313033         1241.65         923.572         1259.22 
       0.319153         1228.04         892.635         1227.86 
       0.325316         1213.23         865.015         1212.11 
        0.33145         1190.79         839.672          1172.1 
       0.337538         1152.91          815.22          1153.9 
       0.343633         1125.76         790.538         1141.44 
       0.349808         1105.38         764.921          1120.8 
       0.355968         1084.93         738.972         1101.54 
       0.362074         1054.15         713.471         1077.92 
       0.368217         1050.89         688.741         1049.88 
       0.374374         1035.42         665.564          1032.6 
       0.380519         1000.42         644.315          1012.7 
       0.386598          994.86         625.192         999.876 
       0.392688         972.956         607.629         978.013 
        0.39888         951.191         590.911         966.695 
       0.405048         935.779         574.948         955.191 
       0.411186         931.952         559.331         934.076 
       0.417313         929.283         543.784         919.564 
       0.423458         900.252         528.283         905.636 
       0.429607         876.341         512.961         887.714 
       0.435692         869.196         498.221         872.899 
       0.441815         854.295         484.053         869.241 
       0.447964         843.345          470.62         855.425 
       0.454126         832.463         457.976         834.625 
       0.460267         821.888         446.167         833.293 
       0.466387         810.755         435.025         817.573 
        0.47254          795.88         424.265           808.8 
       0.478662         785.493         413.862         797.311 
       0.484765         778.904         403.717         785.653 
       0.490885         769.951         393.708         773.395 
       0.497035         756.909         383.823         766.632 
       0.503198         755.652         374.176         756.949 
       0.509342         741.764         364.891         745.915 
       0.515458         727.611         356.018           742.2 
       0.521598         723.192         347.489         733.258 
       0.527764          708.22         339.312          724.85 
       0.533884          703.59         331.557         716.733 
           0.54         696.669           324.1         708.515 
       0.546137         686.947         316.847         700.099 
       0.552299         683.872         309.743         690.829 
       0.558452         675.991         302.823         685.477 
       0.564573         668.773         296.109         679.526 
       0.570708         663.913         289.551         673.512 
       0.576825         650.741         283.191         663.216 
       0.582926         648.211         277.039         657.089 
       0.589034         640.181         271.084         647.471 
       0.595184         633.936         265.304         642.654 
       0.601379         624.189         259.694         637.658 
       0.607522         615.544         254.315         629.853 
       0.613639         614.046         249.118         626.505 
       0.619772         610.142         244.046         625.147 
       0.625918         600.285         239.089         616.852 
       0.632068         596.234         234.256         611.449 
       0.638161         589.076         229.593         602.283 
         0.6443         584.089         225.021         599.778 
       0.650464         578.682          220.56         590.475 
       0.656582         573.938         216.255         586.071 
       0.662703         567.621         212.067         583.698 
       0.668861         561.853         207.972         579.811 
       0.675024         557.465         203.987         575.324 
       0.681124         550.254         200.153         566.172 
       0.687237         548.386         196.415         561.702 
       0.693381         540.452         192.758         557.332 
       0.699536         538.146          189.19         553.741 
       0.705665         532.606         185.727         548.545 
       0.711789           531.5         182.354         543.969 
       0.717957         523.279         179.039         541.723 
        0.72409         518.906         175.824         537.068 
       0.730186         519.265         172.706          532.75 
       0.736317         511.185         169.648         527.257 
       0.742472          505.54         166.653         522.859 
       0.748622         502.268         163.736         518.898 
        0.75476         498.432         160.897          518.99 
       0.760888          495.15         158.132         512.505 
       0.767043         492.166         155.422         508.051 
       0.773185         489.187         152.784         504.627 
       0.779291         482.501         150.223         500.245 
       0.785407         479.784         147.719         497.518 
       0.791564         475.929         145.256         494.932 
       0.797719         469.254         142.851         490.128 
       0.803834         471.445         140.517         487.754 
       0.809972          464.41         138.226         484.721 
       0.816124         460.012         135.983         477.968 
       0.822261         456.697         133.795         475.907 
       0.828378          454.79         131.663          472.74 
       0.834502         447.974         129.576         470.897 
       0.840667         447.829         127.521         467.329 
       0.846816         441.603         125.517         464.168 
       0.852925         441.299          123.57         461.106 
       0.859047         437.184         121.661         457.449 
       0.865192         435.214         119.786          454.41 
       0.871341         429.194          117.95         451.968 
       0.877463         426.323         116.161         448.946 
       0.883569         422.903         114.414         446.146 
       0.889708         419.228         112.695         442.386 
       0.895864         416.102         111.008         440.034 
       0.902008         414.386         109.359         437.324 
       0.908149         411.022         107.744         433.319 
       0.914301         408.974         106.161         430.781 
       0.920448          405.07         104.611         427.542 
       0.926574         403.002         103.097         424.939 
       0.932687         400.361         101.618         421.914 
       0.938823         395.907         100.162          421.29 
       0.944975         394.266          98.732         418.015 
       0.951105         391.186         97.3353         414.394 
       0.957225         385.733         95.9684         412.845 
       0.963368         386.483         94.6235         409.975 
       0.969511         379.665         93.3046             407 
       0.975621         380.167         92.0182         405.132 
       0.981748         377.188          90.753         402.256 
       0.987916         374.675         89.5039          400.94 
        0.99406         371.362         88.2833         398.249 
        1.00019         367.767         87.0882         393.972 
        1.00632         367.747         85.9165         392.013 
        1.01246         364.521         84.7649         389.586 
        1.01859         360.027         83.6366         386.903 
        1.02471         357.947         82.5304         385.699 
        1.03085         357.173         81.4406          384.12 
        1.03698         354.204         80.3731         382.019 
        1.04314         353.012         79.3204         379.213 
        1.04929         350.192         78.2892          376.33 
        1.05541         345.722         77.2807         374.015 
        1.06154         344.641         76.2877         371.874 
        1.06769         341.094         75.3108         369.548 
        1.07382         340.269         74.3544          367.33 
        1.07993         337.371          73.417          365.72 
        1.08607         334.909         72.4921         362.988 
        1.09222         332.781         71.5823         360.726 
        1.09836         331.109         70.6894         359.844 
        1.10449         328.789          69.813         357.296 
        1.11063         325.522         68.9506          354.86 
        1.11677         322.915         68.1033         353.102 
         1.1229         321.818         67.2718         351.476 
        1.12903         319.824         66.4536         349.598 
        1.13518         317.151         65.6486         347.229 
        1.14131          316.37         64.8574         345.433 
        1.14745         311.772         64.0799         343.434 
        1.15359         309.797         63.3152         341.596 
        1.15973          308.77         62.5627         339.662 
        1.16584         307.208         61.8259         337.156 
        1.17197         304.627         61.1001         335.791 
        1.17811         301.814         60.3839         334.371 
        1.18424         300.103         59.6813         332.882 
        1.19038         298.591          58.988         330.931 
        1.19652         295.153         58.3061         329.224 
        1.20267         294.971         57.6351         326.388 
        1.20881         292.605         56.9749         325.365 
        1.21495         290.855         56.3262         322.998 
        1.22108         288.865         55.6878         321.013 
         1.2272         285.423         55.0609         318.755 
        1.23334         284.511         54.4423         317.276 
        1.23949         283.253         53.8318         316.566 
        1.24562         281.462         53.2325         314.683 
        1.25174         279.115         52.6433          313.18 
        1.25789         276.829         52.0613          311.45 
        1.26402         276.352         51.4892         309.812 
        1.27014         274.642         50.9272          307.89 
        1.27628         271.588         50.3719         307.003 
        1.28244         270.594          49.824          305.48 
        1.28858         268.703          49.285         303.435 
        1.29471         267.415         48.7552          300.98 
        1.30084         265.731         48.2338         299.731 
        1.30697          262.91         47.7193         298.763 
        1.31312         261.266         47.2117         296.983 
        1.31925         259.999         46.7131         294.839 
        1.32537         258.787         46.2222         293.395 
        1.33151         256.466         45.7368          292.24 
        1.33765         254.772         45.2586         290.475 
        1.34378         253.011         44.7883         289.105 
        1.34992         251.116         44.3244         287.061 
        1.35606         250.029         43.8662          285.49 
         1.3622         248.421         43.4153         284.283 
        1.36833         246.483         42.9719         283.342 
        1.37445         245.582          42.535         280.933 
        1.38059         243.415         42.1028         280.225 
        1.38675         241.826         41.6757         279.107 
        1.39288         240.663         41.2563         276.242 
        1.39901         238.593         40.8428         275.458 
        1.40515          237.46         40.4342           274.2 
         1.4113         235.507         40.0314         272.311 
        1.41742         233.487         39.6356         271.091 
        1.42355         233.954         39.2445         269.854 
         1.4297          231.37         38.8575         268.492 
        1.43585         229.454          38.476         267.475 
        1.44198         227.939         38.1011         265.648 
        1.44809         226.906         37.7319         264.621 
        1.45423         225.551         37.3663          262.66 
        1.46036         224.041         37.0063         261.393 
        1.46649         222.949         36.6509          260.66 
        1.47263          221.29         36.2999         259.541 
        1.47877         219.837         35.9538         257.673 
        1.48491         217.882         35.6116         256.335 
        1.49104         216.323         35.2747         255.237 
        1.49718         215.109         34.9419         253.952 
        1.50333         213.451         34.6129         253.013 
        1.50947         212.811         34.2888          251.92 
         1.5156         211.233         33.9694         250.282 
        1.52172         209.802         33.6541         248.532 
        1.52787         208.486         33.3422         247.718 
          1.534          207.72         33.0346         246.524 
        1.54013         206.075         32.7313         245.218 
        1.54627         204.955         32.4313         244.195 
        1.55241         203.495          32.135         242.996 
        1.55855         202.759         31.8429         241.632 
        1.56467         200.943         31.5552         240.367 
         1.5708         199.503         31.2703         239.245 
        1.57695         198.551         30.9885         238.189 
        1.58308          197.09         30.7109         237.014 
        1.58922         195.931         30.4365         235.752 
        1.59535          194.12         30.1655          234.71 
         1.6015         193.273         29.8976          233.38 
        1.60764         192.256          29.633         232.019 
        1.61376         190.443         29.3724         231.141 
        1.61989         189.336         29.1148         230.198 
        1.62604         188.001         28.8597         229.097 
        1.63218         187.197         28.6078         228.088 
        1.63831         186.432         28.3595         227.007 
        1.64444         184.798         28.1141         225.678 
        1.65059         184.046         27.8711         224.804 
        1.65673         182.337         27.6312         223.687 
        1.66285         181.539         27.3948         222.376 
        1.66898         180.402         27.1612         221.281 
        1.67512         179.083         26.9298         220.335 
        1.68127         178.009         26.7009         219.364 
         1.6874         176.955         26.4752         218.491 
        1.69353         176.048         26.2523          217.71 
        1.69967         174.619         26.0315         216.358 
        1.70581         173.996         25.8132         215.212 
        1.71193         172.402         25.5984         214.278 
        1.71806         171.339         25.3855         212.924 
        1.72421         170.518         25.1747         212.164 
        1.73035         169.214         24.9665         211.257 
        1.73649         167.993         24.7607         210.012 
        1.74262         167.198         24.5575         209.412 
        1.74876         166.256         24.3564         208.507 
        1.75489         165.227          24.158         207.364 
        1.76101         163.888         23.9618         206.407 
        1.76715         162.927         23.7676         205.478 
        1.77329         161.972         23.5754         204.403 
        1.77943         160.726         23.3852         203.308 
        1.78557         160.177         23.1973         202.381 
        1.79171         159.095         23.0116         201.595 
        1.79785         158.133         22.8278         200.715 
        1.80399         157.018         22.6461         199.636 
        1.81012         155.731         22.4667         198.823 
        1.81625         155.299         22.2892         198.059 
        1.82239         153.822         22.1135         197.121 
        1.82853         153.267         21.9397         196.169 
        1.83466         152.003          21.768         195.106 
        1.84078         151.377         21.5983          194.12 
        1.84692         150.547         21.4301         193.494 
        1.85306         149.161         21.2636         192.562 
         1.8592         148.688         21.0991         191.587 
        1.86533         147.184         20.9364         191.094 
        1.87147         146.684         20.7753          190.37 
        1.87761         145.516         20.6158         189.343 
