# k  (h/Mpc)    P(k)  (Mpc/h)^3    P_linear(k)  (Mpc/h)^3     P_NL(k)  ShotnoiseSubtracted = false
     0.00783031         14122.4         14184.7           14166 
       0.013688           18417         18951.9         18827.3 
       0.019231         20085.5         20467.5         20252.1 
      0.0249154         20005.6         20101.3         19828.2 
      0.0312784         18125.2           18491         18153.9 
      0.0375637         16045.1         16539.2         16184.7 
      0.0433917         14597.3         14886.4         14490.3 
      0.0492413         13149.4         13564.1         13160.7 
      0.0555754         12180.8         12511.5         12111.5 
      0.0619321         11024.2         11726.9         11314.7 
       0.067871         10562.2         11092.5         10686.9 
      0.0738098         10012.5         10437.6          9928.7 
      0.0800417         9265.03         9668.23         9177.32 
      0.0862327         8428.95         8831.09         8453.98 
      0.0921407         7695.89            8022          7671.6 
      0.0982031         7075.02         7253.52         7030.98 
       0.104506         6357.14         6580.88         6469.92 
       0.110769         5898.08         6065.04         5918.34 
       0.116806         5655.98         5700.03         5554.12 
       0.122832         5334.29            5429         5313.08 
       0.129052         5075.37         5197.98         5093.02 
       0.135211         4953.09         4972.02         4862.33 
       0.141259         4627.14         4723.97          4673.1 
       0.147318         4318.99         4442.23         4433.79 
       0.153489         4097.91         4133.48         4086.08 
       0.159709         3949.11         3824.75         3858.32 
       0.165845         3613.94         3547.53         3699.02 
       0.171974         3514.98         3314.64         3493.63 
       0.178125         3415.38         3130.18         3393.85 
       0.184229         3155.13         2989.89         3235.33 
        0.19034         3123.63         2878.54         3132.99 
       0.196428         3050.29         2780.25          3015.8 
       0.202534         2891.84         2679.96         2935.43 
       0.208729         2833.84          2567.5          2799.7 
       0.214876         2724.86         2443.69         2731.42 
       0.220989         2606.82         2313.34         2648.49 
       0.227147         2539.44          2183.2         2557.84 
        0.23329         2443.56         2063.05         2480.67 
       0.239377         2433.84         1959.42         2389.66 
       0.245482         2331.96         1872.87         2295.22 
       0.251667         2248.98         1801.03          2251.6 
       0.257832         2216.29         1740.67          2191.6 
       0.263955         2130.59         1686.17         2140.57 
       0.270079         2091.46         1631.92         2086.53 
        0.27624         2004.84         1574.46         2028.48 
       0.282372         1991.65         1513.55         1995.68 
        0.28843         1950.93          1451.1         1952.23 
       0.294538         1874.54         1388.53         1897.47 
       0.300721         1847.84         1328.55         1843.01 
        0.30691         1800.29         1274.19         1821.28 
       0.313033         1742.46         1226.89         1771.92 
       0.319153         1728.88         1185.79         1725.69 
       0.325316         1708.54          1149.1         1707.96 
        0.33145          1676.1         1115.44          1653.3 
       0.337538          1629.4         1082.95         1633.33 
       0.343633         1596.07         1050.17         1615.45 
       0.349808         1574.37         1016.14         1589.48 
       0.355968         1539.74         981.665         1565.27 
       0.362074         1505.71         947.788         1534.86 
       0.368217         1501.05         914.937         1500.31 
       0.374374         1476.46         884.147         1476.35 
       0.380519          1433.2         855.921         1452.91 
       0.386598         1432.29         830.517          1432.5 
       0.392688         1394.72         807.186         1407.84 
        0.39888         1374.16         784.978         1391.44 
       0.405048         1348.65         763.772         1371.67 
       0.411186         1339.31         743.026         1348.08 
       0.417313         1340.22         722.373         1333.87 
       0.423458         1300.86         701.781         1309.15 
       0.429607         1269.44         681.427         1288.36 
       0.435692         1261.45         661.847         1264.91 
       0.441815         1238.38         643.025          1264.7 
       0.447964         1229.94         625.181         1248.68 
       0.454126         1213.44         608.384         1216.08 
       0.460267          1200.9         592.697         1216.67 
       0.466387         1183.47         577.895         1194.02 
        0.47254         1161.52         563.601         1180.27 
       0.478662         1151.48         549.782         1168.27 
       0.484765          1141.5         536.305         1156.75 
       0.490885         1127.99         523.008         1135.46 
       0.497035         1109.78         509.877         1127.12 
       0.503198         1109.35         497.063         1115.82 
       0.509342         1089.02         484.728         1096.12 
       0.515458         1068.25         472.941         1090.99 
       0.521598         1071.41         461.611         1082.94 
       0.527764         1044.94         450.749         1072.76 
       0.533884         1034.87         440.446         1061.85 
           0.54         1027.75         430.541          1052.2 
       0.546137         1018.03         420.905         1040.97 
       0.552299         1008.17         411.469         1027.02 
       0.558452          1000.9         402.276         1019.68 
       0.564573         995.114         393.357         1009.27 
       0.570708         983.678         384.645         997.902 
       0.576825         965.354         376.196         986.386 
       0.582926         962.915         368.024         980.146 
       0.589034         954.219         360.113         966.687 
       0.595184          941.79         352.435         959.888 
       0.601379         927.454         344.982         952.616 
       0.607522         918.024         337.837         939.225 
       0.613639         916.325         330.933         935.927 
       0.619772         905.155         324.195         933.018 
       0.625918         898.125          317.61          922.87 
       0.632068         890.022          311.19         917.362 
       0.638161         877.249         304.996         901.125 
         0.6443         870.763         298.923         897.007 
       0.650464         865.395         292.995         887.561 
       0.656582         859.462         287.276         881.154 
       0.662703         846.332         281.714         874.449 
       0.668861         838.871         276.274         871.271 
       0.675024         833.813         270.981         867.869 
       0.681124         820.581         265.887         853.027 
       0.687237          821.39         260.921         847.604 
       0.693381         805.786         256.063         839.026 
       0.699536          808.57         251.323         833.533 
       0.705665           797.3         246.724         826.008 
       0.711789         793.993         242.242         819.004 
       0.717957         785.791         237.839         817.539 
        0.72409         778.928         233.567         811.353 
       0.730186         774.739         229.426         802.665 
       0.736317         766.671         225.363          796.03 
       0.742472         756.731         221.385          791.26 
       0.748622         754.337          217.51         784.215 
        0.75476         745.146         213.738         784.007 
       0.760888         741.271         210.065         776.455 
       0.767043         738.452         206.466         766.013 
       0.773185          733.21         202.961         761.779 
       0.779291         724.824         199.559         755.039 
       0.785407         718.942         196.232         750.518 
       0.791564         714.138         192.961         750.147 
       0.797719         703.434         189.766         742.528 
       0.803834         703.566         186.665         737.544 
       0.809972         695.201         183.623         734.495 
       0.816124         690.833         180.642         725.759 
       0.822261         686.033         177.736         720.983 
       0.828378           683.6         174.903          716.68 
       0.834502         672.629         172.131         714.569 
       0.840667         671.012         169.401         709.888 
       0.846816         666.571          166.74         704.525 
       0.852925         661.648         164.153         699.653 
       0.859047         655.889         161.616         692.695 
       0.865192         651.786         159.125         689.426 
       0.871341         645.447         156.686          685.66 
       0.877463         644.411          154.31         681.992 
       0.883569         637.304          151.99          676.13 
       0.889708         629.958         149.706         670.536 
       0.895864         624.488         147.465         666.691 
       0.902008         623.072         145.274         663.138 
       0.908149         617.073          143.13          656.93 
       0.914301         614.492         141.026         652.387 
       0.920448         607.474         138.967         650.653 
       0.926574         604.128         136.956         645.887 
       0.932687         601.421         134.991         641.688 
       0.938823         594.923         133.057         638.647 
       0.944975          590.86         131.157         635.053 
       0.951105          587.02         129.302         628.781 
       0.957225         579.146         127.486         627.637 
       0.963368         579.917           125.7         622.958 
       0.969511         572.553         123.947         618.515 
       0.975621         569.753         122.239         614.781 
       0.981748         565.522         120.558         610.232 
       0.987916         562.585         118.899          609.15 
        0.99406          557.12         117.277         604.235 
        1.00019         552.342          115.69          598.26 
        1.00632          548.43         114.133         595.123 
        1.01246         545.096         112.603         592.369 
        1.01859         540.594         111.104         587.459 
        1.02471         538.904         109.635         585.051 
        1.03085         533.059         108.187          584.15 
        1.03698         531.935         106.769         580.957 
        1.04314         525.198         105.371         576.867 
        1.04929         524.091         104.001         571.694 
        1.05541         517.171         102.661         567.526 
        1.06154          515.48         101.342         564.001 
        1.06769         511.311         100.044          560.14 
        1.07382         506.081         98.7738         557.445 
        1.07993          506.25         97.5285         554.426 
        1.08607         501.705         96.2998          550.83 
        1.09222         497.693         95.0912         546.958 
        1.09836          492.85         93.9051          545.71 
        1.10449         488.403         92.7408         543.213 
        1.11063         486.902         91.5952         537.624 
        1.11677         482.114         90.4696         536.311 
         1.1229          479.27         89.3651         532.376 
        1.12903         474.692         88.2782         528.978 
        1.13518         473.738         87.2088          525.77 
        1.14131         470.308         86.1578         523.314 
        1.14745         465.287         85.1249         519.539 
        1.15359         462.553          84.109         517.957 
        1.15973         459.816         83.1094         514.656 
        1.16584         457.556         82.1307          511.95 
        1.17197         454.074         81.1665         508.798 
        1.17811         448.538          80.215         505.622 
        1.18424         447.034         79.2817          503.37 
        1.19038         444.383         78.3607         500.407 
        1.19652         439.623         77.4549         496.938 
        1.20267          437.95         76.5635         494.432 
        1.20881         435.377         75.6865         491.008 
        1.21495         429.925         74.8247         488.727 
        1.22108         430.022         73.9766         485.925 
         1.2272         424.255         73.1438          483.23 
        1.23334         423.092         72.3221         479.893 
        1.23949         418.641         71.5111         477.376 
        1.24562         418.279          70.715         475.218 
        1.25174         414.394         69.9323         472.958 
        1.25789         411.214         69.1591         470.384 
        1.26402         408.506         68.3992         468.081 
        1.27014         406.133         67.6526          464.16 
        1.27628          402.16          66.915         463.037 
        1.28244         399.689         66.1871         461.033 
        1.28858         397.503          65.471         457.925 
        1.29471         395.863         64.7673          455.45 
        1.30084         392.915         64.0747         452.162 
        1.30697         389.031         63.3912         450.199 
        1.31312         386.776         62.7168         448.324 
        1.31925         383.871         62.0545         445.318 
        1.32537         382.091         61.4024          442.81 
        1.33151         378.351         60.7575         441.379 
        1.33765         375.579         60.1223         439.217 
        1.34378         373.354         59.4976         435.476 
        1.34992         370.247         58.8814         432.829 
        1.35606         367.699         58.2726         431.061 
         1.3622         365.993         57.6737          429.49 
        1.36833         364.513         57.0847         427.399 
        1.37445         361.976         56.5042         424.602 
        1.38059         357.968         55.9302         422.761 
        1.38675         356.169         55.3628         421.152 
        1.39288          353.96         54.8056         418.081 
        1.39901         351.416         54.2564         415.437 
        1.40515         349.647         53.7135         412.881 
         1.4113         347.082         53.1784         410.661 
        1.41742         343.866         52.6526         409.128 
        1.42355         342.758         52.1331         407.123 
         1.4297         340.792          51.619         404.428 
        1.43585         336.096         51.1122         403.063 
        1.44198         335.857         50.6141         400.962 
        1.44809         333.473         50.1237         398.947 
        1.45423         330.383         49.6381         395.572 
        1.46036         329.054         49.1598         394.034 
        1.46649         326.798         48.6877         392.317 
        1.47263         323.502         48.2215         389.448 
        1.47877         322.658         47.7616         387.551 
        1.48491         319.255         47.3071          385.29 
        1.49104         316.741         46.8595         383.213 
        1.49718         314.897         46.4174         382.911 
        1.50333         313.239         45.9803         380.584 
        1.50947         311.738         45.5498         378.061 
         1.5156         308.064         45.1255         376.219 
        1.52172         306.628         44.7067         374.109 
        1.52787         304.307         44.2924          372.14 
          1.534         303.424         43.8838         370.459 
        1.54013         300.733         43.4809         368.615 
        1.54627         298.486         43.0823         366.902 
        1.55241         297.247         42.6887         365.534 
        1.55855         294.369         42.3006         363.951 
        1.56467         292.625         41.9185         361.176 
         1.5708         290.926           41.54         358.907 
        1.57695         289.216         41.1657         357.178 
        1.58308         287.877         40.7969         355.204 
        1.58922         285.482         40.4323         353.865 
        1.59535         282.496         40.0724         352.585 
         1.6015         281.527         39.7165         351.177 
        1.60764         279.711          39.365         349.056 
        1.61376         277.695         39.0188         346.805 
        1.61989         276.068         38.6766         345.426 
        1.62604         274.036         38.3377         343.312 
        1.63218          272.15         38.0031         341.653 
        1.63831         270.622         37.6733         340.443 
        1.64444         268.753         37.3473         338.165 
        1.65059         267.354         37.0245         336.755 
        1.65673         265.277         36.7058         335.469 
        1.66285         263.551         36.3918         333.457 
        1.66898         261.959         36.0814         331.134 
        1.67512         259.406          35.774          330.15 
        1.68127         258.079           35.47          328.77 
         1.6874         256.485         35.1702         326.965 
        1.69353         255.998          34.874         325.653 
        1.69967         253.691         34.5806         323.772 
        1.70581          251.19         34.2908         322.076 
        1.71193         250.353         34.0054         320.747 
        1.71806         248.213         33.7226           319.1 
        1.72421         246.888         33.4425         317.323 
        1.73035         244.843          33.166         315.529 
        1.73649         243.363         32.8926         313.949 
        1.74262         242.034         32.6226         312.844 
        1.74876         240.163         32.3555         311.255 
        1.75489         238.932         32.0919         309.714 
        1.76101         237.328         31.8313         308.639 
        1.76715         235.572         31.5734         307.192 
        1.77329          233.58         31.3179         305.805 
        1.77943          232.26         31.0653         304.376 
        1.78557         231.162         30.8158         302.615 
        1.79171         229.682          30.569         301.112 
        1.79785         227.632         30.3249         299.721 
        1.80399         226.799         30.0835         298.164 
        1.81012         224.977         29.8451          297.09 
        1.81625         223.664         29.6094         295.769 
        1.82239         221.917         29.3759         294.084 
        1.82853          221.03         29.1451         292.897 
        1.83466         219.277          28.917         291.578 
        1.84078          217.79         28.6916         290.098 
        1.84692         216.609         28.4682         289.012 
        1.85306         214.932         28.2469         287.645 
         1.8592         213.999         28.0284         286.102 
        1.86533         211.952         27.8123          284.88 
        1.87147         211.357         27.5983         283.522 
        1.87761         209.593         27.3864         282.331 
