# k  (h/Mpc)    Pcb(k)  (Mpc/h)^3    Pcb_linear(k) (Mpc/h)^3    Pcb_NL(k) (Mpc/h)^3   ShotnoiseSubtracted = false
     0.00783031         8804.13         8839.18         8831.62 
       0.013688           11556         11815.9         11754.7 
       0.019231         12594.4         12762.8         12658.4 
      0.0249154         12514.5         12535.4           12415 
      0.0312784         11388.8         11531.7         11394.7 
      0.0375637         10109.2         10314.8         10172.1 
      0.0433917         9187.22         9284.16         9127.27 
      0.0492413         8294.12         8459.59         8300.38 
      0.0555754         7692.61         7803.14         7643.52 
      0.0619321         7006.29          7313.9         7148.13 
       0.067871          6708.2         6918.22         6753.53 
      0.0738098         6343.62         6509.82         6302.37 
      0.0800417         5882.42            6030         5828.63 
      0.0862327         5349.26          5507.9         5353.83 
      0.0921407         4872.08         5003.28          4858.5 
      0.0982031         4461.67            4524         4434.33 
       0.104506         4007.23         4104.48         4061.27 
       0.110769         3710.87         3782.76         3719.93 
       0.116806         3552.82         3555.11         3492.98 
       0.122832         3343.32         3386.07         3337.54 
       0.129052         3197.86         3241.98         3196.39 
       0.135211         3107.12         3101.05         3055.65 
       0.141259         2910.76         2946.34         2923.58 
       0.147318         2707.05         2770.62         2770.73 
       0.153489         2559.19         2578.06         2556.02 
       0.159709         2441.25          2385.5         2399.97 
       0.165845         2227.23          2212.6          2282.4 
       0.171974         2164.58         2067.35         2145.33 
       0.178125         2084.33         1952.31         2070.56 
       0.184229         1933.49          1864.8         1977.47 
        0.19034         1904.53         1795.36         1910.38 
       0.196428         1853.43         1734.05         1833.45 
       0.202534         1747.42          1671.5         1780.37 
       0.208729         1716.55         1601.36         1698.67 
       0.214876         1650.51         1524.14         1654.16 
       0.220989         1556.15         1442.84         1592.52 
       0.227147         1518.81         1361.67         1524.47 
        0.23329         1460.32         1286.73         1475.91 
       0.239377          1440.9          1222.1         1419.97 
       0.245482         1372.56         1168.11         1357.74 
       0.251667         1322.54         1123.31         1329.09 
       0.257832         1308.41         1085.67         1289.78 
       0.263955         1247.66         1051.67         1254.46 
       0.270079         1215.54         1017.84         1220.73 
        0.27624         1165.87         982.001         1183.58 
       0.282372         1149.01         944.012         1153.18 
        0.28843         1136.58         905.056         1119.18 
       0.294538         1081.79         866.035         1089.45 
       0.300721         1055.55         828.622         1058.95 
        0.30691         1036.59         794.718         1039.31 
       0.313033         995.724         765.223         1007.23 
       0.319153         982.638         739.585         982.868 
       0.325316         969.191         716.701         968.637 
        0.33145         951.188         695.704         936.265 
       0.337538         919.422         675.444         919.441 
       0.343633         895.734         654.993         909.153 
       0.349808         877.384         633.771         891.743 
       0.355968         861.922          612.27         875.314 
       0.362074         836.339         591.141         855.308 
       0.368217         832.781         570.653          831.32 
       0.374374         819.698         551.447         816.867 
       0.380519         790.412         533.844         799.986 
       0.386598         783.749         517.998         789.335 
       0.392688          768.28         503.447         771.557 
        0.39888          748.85         489.595          761.44 
       0.405048         737.335         476.369         753.221 
       0.411186         734.287          463.43         734.689 
       0.417313         729.067         450.548         720.699 
       0.423458         706.766         437.703         710.213 
       0.429607         688.618          425.01         695.518 
       0.435692         680.413         412.798         683.843 
       0.441815         669.818         401.059         679.547 
       0.447964         658.498         389.928         667.766 
       0.454126          650.61         379.454         652.203 
       0.460267         640.988         369.668         649.903 
       0.466387         632.386         360.437         637.564 
        0.47254         621.846         351.521         630.535 
       0.478662         610.739         342.903         620.019 
       0.484765         605.623         334.496         609.016 
       0.490885         599.341         326.204         600.871 
       0.497035          588.45         318.013           595.2 
       0.503198         587.691         310.021         586.648 
       0.509342         575.045         302.328         579.469 
       0.515458         565.418         294.976         575.965 
       0.521598         558.635          287.91         566.775 
       0.527764         549.038         281.135         559.587 
       0.533884         546.831         274.709         553.368 
           0.54         539.933         268.531         546.458 
       0.546137         530.344         262.521          540.16 
       0.552299         529.405         256.636         533.096 
       0.558452         521.927         250.902         528.238 
       0.564573         515.884         245.339         523.743 
       0.570708         511.631         239.906         519.212 
       0.576825          502.02         234.636         510.286 
       0.582926         498.892         229.539         504.922 
       0.589034         492.437         224.605         498.367 
       0.595184         488.629         219.816         493.075 
       0.601379         480.757         215.167         489.824 
       0.607522         473.505         210.711         484.406 
       0.613639         471.457         206.405         480.471 
       0.619772         469.245         202.202         478.587 
       0.625918         461.736         198.096         472.743 
       0.632068         457.043         194.091         466.843 
       0.638161          452.46         190.228         461.975 
         0.6443         449.035          186.44         459.046 
       0.650464         443.495         182.743         451.633 
       0.656582         439.466         179.176         447.851 
       0.662703         435.961         175.707         446.491 
       0.668861         430.368         172.314          442.39 
       0.675024         427.098         169.012         438.297 
       0.681124         422.717         165.836          432.08 
       0.687237         419.547         162.738         428.445 
       0.693381         414.985         159.708         425.084 
       0.699536         411.281         156.752         422.367 
       0.705665         407.236         153.883         418.787 
       0.711789         405.961         151.088         414.918 
       0.717957         399.896         148.341         412.387 
        0.72409         396.526         145.677         409.348 
       0.730186          398.05         143.095          406.04 
       0.736317         390.914         140.561         401.622 
       0.742472         386.596          138.08         398.016 
       0.748622         382.821         135.662         394.749 
        0.75476         381.872          133.31         394.033 
       0.760888         378.145         131.019         389.269 
       0.767043         375.007         128.774         386.776 
       0.773185         373.159         126.588         383.757 
       0.779291         367.262         124.467         380.241 
       0.785407         366.113         122.391         377.875 
       0.791564         362.324         120.351         375.316 
       0.797719         357.179         118.359          372.49 
       0.803834         359.881         116.424          370.11 
       0.809972         354.619         114.527         367.371 
       0.816124         350.752         112.667         363.388 
       0.822261         347.179         110.855         361.384 
       0.828378         346.992         109.088         358.608 
       0.834502         341.596         107.359         356.926 
       0.840667         341.427         105.657         354.279 
       0.846816         336.215         103.997          351.95 
       0.852925         335.681         102.383         349.192 
       0.859047         332.133         100.801         346.848 
       0.865192         331.831         99.2475           344.7 
       0.871341          327.06         97.7263         342.288 
       0.877463         323.944         96.2443         340.262 
       0.883569         322.712         94.7972         338.262 
       0.889708         320.033         93.3729          335.36 
       0.895864         317.749         91.9746         333.476 
       0.902008         315.512         90.6083         330.993 
       0.908149         313.008         89.2709         328.104 
       0.914301         311.294         87.9586         326.777 
       0.920448         309.355         86.6744         323.577 
       0.926574         307.136         85.4206          321.75 
       0.932687         304.727         84.1946         319.063 
       0.938823         302.135         82.9886          318.69 
       0.944975         300.501         81.8037         316.871 
       0.951105         297.961         80.6465         314.378 
       0.957225          295.16          79.514         312.166 
       0.963368         294.686         78.3996         309.664 
       0.969511         289.728         77.3068         307.836 
       0.975621         289.403          76.241         307.103 
       0.981748         287.384         75.1928         304.746 
       0.987916          285.82         74.1578         303.295 
        0.99406         283.251         73.1465         301.558 
        1.00019         281.295         72.1563         298.753 
        1.00632         280.785         71.1855         296.599 
        1.01246         278.479         70.2314         294.784 
        1.01859         275.079         69.2965         293.511 
        1.02471          273.08           68.38         292.293 
        1.03085           272.6          67.477         290.522 
        1.03698         270.178         66.5926         289.049 
        1.04314         269.733         65.7203         286.973 
        1.04929         267.495          64.866         284.856 
        1.05541         265.004         64.0304         283.278 
        1.06154         263.389         63.2076         281.743 
        1.06769         260.761         62.3982         280.282 
        1.07382         260.793         61.6058         278.311 
        1.07993          257.78         60.8292         276.989 
        1.08607         255.708         60.0628         275.599 
        1.09222         254.685          59.309         273.805 
        1.09836         253.351         58.5692         272.911 
        1.10449         251.012         57.8431         270.958 
        1.11063         249.157         57.1285         269.251 
        1.11677         248.158         56.4265         267.687 
         1.1229         246.083         55.7376         266.538 
        1.12903         245.325         55.0597         265.213 
        1.13518         243.345         54.3927         263.468 
        1.14131         242.381         53.7372         262.055 
        1.14745         239.346          53.093           260.6 
        1.15359         237.402         52.4593         259.075 
        1.15973         236.952         51.8359         257.429 
        1.16584         236.003         51.2254         255.456 
        1.17197         234.074         50.6241         254.438 
        1.17811         231.951         50.0306         253.634 
        1.18424         230.635         49.4485         252.169 
        1.19038         229.236         48.8741         250.808 
        1.19652         226.977         48.3091         249.884 
        1.20267         226.447         47.7531         247.833 
        1.20881          224.54         47.2061         247.165 
        1.21495          223.98         46.6687         245.007 
        1.22108         222.126         46.1397         244.185 
         1.2272         220.203         45.6203         242.122 
        1.23334         219.346         45.1078         241.325 
        1.23949         218.565          44.602          240.71 
        1.24562           216.8         44.1054         238.862 
        1.25174         215.128         43.6172          238.07 
        1.25789         213.516          43.135          236.64 
        1.26402         213.188          42.661         235.033 
        1.27014         211.787         42.1954          234.53 
        1.27628         209.276         41.7353         233.608 
        1.28244         208.699         41.2813         231.763 
        1.28858         207.289         40.8347         230.514 
        1.29471         206.172         40.3958         229.325 
        1.30084         204.782         39.9638         228.171 
        1.30697         203.324         39.5375         227.139 
        1.31312         202.029         39.1169         225.472 
        1.31925         200.631         38.7038         224.279 
        1.32537         200.075         38.2971         223.587 
        1.33151         198.448         37.8949         222.441 
        1.33765         196.727         37.4987          221.12 
        1.34378         196.132          37.109         219.924 
        1.34992         195.029         36.7247         218.782 
        1.35606          193.72          36.345         217.398 
         1.3622         192.877         35.9715         216.447 
        1.36833         190.687         35.6041         215.457 
        1.37445         190.499         35.2421         214.001 
        1.38059         188.854          34.884         213.391 
        1.38675         187.742         34.5301         212.213 
        1.39288         186.551         34.1826         210.678 
        1.39901         185.421         33.8401         210.139 
        1.40515         184.431         33.5015         209.304 
         1.4113         183.232         33.1677         208.006 
        1.41742         181.652         32.8398         207.051 
        1.42355           181.8         32.5157         206.466 
         1.4297          179.94         32.1951          205.13 
        1.43585          178.78          31.879         204.016 
        1.44198         177.076         31.5684         203.005 
        1.44809         176.108         31.2625         201.914 
        1.45423         175.699         30.9596         200.916 
        1.46036         174.383         30.6613          199.95 
        1.46649         173.195         30.3668         199.273 
        1.47263         172.537         30.0761         198.644 
        1.47877         171.259         29.7892         197.369 
        1.48491         169.807         29.5057          196.35 
        1.49104         168.104         29.2266         195.628 
        1.49718         167.984         28.9508         194.127 
        1.50333         166.975         28.6782          193.35 
        1.50947         165.947         28.4097         192.579 
         1.5156         164.805         28.1451         191.566 
        1.52172         163.846         27.8839         190.749 
        1.52787         163.051         27.6254         189.734 
          1.534         162.052         27.3706         188.718 
        1.54013         161.108         27.1193         187.959 
        1.54627         160.076         26.8707         187.196 
        1.55241         159.072         26.6252         186.229 
        1.55855         158.262         26.3832         185.136 
        1.56467         156.918         26.1448         184.227 
         1.5708          156.03         25.9088         183.782 
        1.57695         155.353         25.6753         182.897 
        1.58308          154.32         25.4453         181.662 
        1.58922         153.615         25.2179         180.904 
        1.59535         152.667         24.9935         180.091 
         1.6015         151.042         24.7714         179.171 
        1.60764         150.393         24.5522          178.33 
        1.61376         149.509         24.3363         177.674 
        1.61989         148.772         24.1228         176.989 
        1.62604         147.737         23.9115         176.026 
        1.63218         147.078         23.7028         175.131 
        1.63831         145.942         23.4971         174.342 
        1.64444         145.069         23.2938         173.408 
        1.65059         144.178         23.0924         172.772 
        1.65673         143.487         22.8936         171.933 
        1.66285         142.989         22.6978         171.068 
        1.66898         141.579         22.5042         170.452 
        1.67512         141.016         22.3125         169.683 
        1.68127         139.886         22.1229         168.875 
         1.6874         139.207         21.9359         168.189 
        1.69353         138.337         21.7512         167.548 
        1.69967         137.511         21.5682         166.542 
        1.70581         136.992         21.3874         165.711 
        1.71193         135.787         21.2094         165.045 
        1.71806         134.978          21.033         164.073 
        1.72421         134.341         20.8583         163.405 
        1.73035         133.532         20.6858         162.747 
        1.73649         132.437         20.5153         161.956 
        1.74262         131.973         20.3469         161.389 
        1.74876         130.956         20.1803         160.585 
        1.75489         130.334         20.0159         159.685 
        1.76101         129.593         19.8534          158.95 
        1.76715         128.444         19.6925         158.246 
        1.77329         128.115         19.5332          157.54 
        1.77943         126.921         19.3756         156.866 
        1.78557         126.459           19.22         156.251 
        1.79171         125.731         19.0661         155.688 
        1.79785           124.7         18.9138         155.027 
        1.80399         124.272         18.7633         154.177 
        1.81012         123.174         18.6146         153.406 
        1.81625         122.764         18.4676         152.822 
        1.82239         122.044          18.322         152.248 
        1.82853         121.489          18.178         151.502 
        1.83466         120.402         18.0357         150.707 
        1.84078         119.714         17.8951         150.049 
        1.84692         119.435         17.7558         149.589 
        1.85306          118.43         17.6178         148.898 
         1.8592          117.84         17.4815         148.199 
        1.86533         116.905         17.3467         147.722 
        1.87147         116.394         17.2132         146.817 
