# k  (h/Mpc)    Pcb(k)  (Mpc/h)^3    Pcb_linear(k) (Mpc/h)^3    Pcb_NL(k) (Mpc/h)^3   ShotnoiseSubtracted = false
     0.00783031         8038.79          8071.6         8065.23 
       0.013688         10561.9         10790.2         10736.5 
       0.019231         11509.3           11655         11563.6 
      0.0249154         11431.5         11447.4         11344.2 
      0.0312784         10410.4         10530.9         10415.6 
      0.0375637         9244.95         9419.64         9299.87 
      0.0433917         8399.83         8478.46         8347.45 
      0.0492413         7586.27         7725.46          7592.7 
      0.0555754         7036.85         7125.98          6992.6 
      0.0619321         6416.26         6679.21         6540.51 
       0.067871         6141.94         6317.87         6179.76 
      0.0738098         5806.22         5944.91          5770.8 
      0.0800417         5385.53         5506.73         5337.66 
      0.0862327         4897.47         5029.94         4900.75 
      0.0921407         4459.08         4569.11         4447.64 
      0.0982031         4080.96         4131.42         4056.67 
       0.104506         3665.43         3748.31         3712.76 
       0.110769         3393.41          3454.5         3401.88 
       0.116806         3247.57         3246.61          3194.6 
       0.122832         3055.63         3092.24          3051.8 
       0.129052         2924.79         2960.65         2922.49 
       0.135211          2839.6         2831.96         2794.25 
       0.141259         2661.68         2690.67         2671.88 
       0.147318         2474.84          2530.2         2531.43 
       0.153489         2338.11         2354.35         2336.06 
       0.159709         2226.44          2178.5         2191.38 
       0.165845         2030.92          2020.6         2081.09 
       0.171974         1972.44         1887.96         1954.79 
       0.178125         1896.47         1782.89         1884.37 
       0.184229         1761.28         1702.98         1800.21 
        0.19034         1733.23         1639.56          1738.5 
       0.196428         1685.78         1583.58          1668.1 
       0.202534         1588.83         1526.46         1619.09 
       0.208729         1560.58          1462.4         1545.31 
       0.214876         1500.84         1391.88         1503.73 
       0.220989         1411.97         1317.64         1446.05 
       0.227147         1378.31         1243.51          1382.4 
        0.23329         1324.83         1175.08         1337.44 
       0.239377         1304.46         1116.05         1286.45 
       0.245482         1241.72         1066.75         1229.37 
       0.251667         1196.18         1025.83         1202.74 
       0.257832         1183.95         991.457          1166.8 
       0.263955         1127.79         960.414         1134.23 
       0.270079         1097.67         929.514          1103.2 
        0.27624         1052.77         896.788            1069 
       0.282372         1036.12         862.095         1040.33 
        0.28843         1026.05          826.52         1008.42 
       0.294538         975.803         790.884         981.573 
       0.300721         950.294         756.718         954.317 
        0.30691         934.026         725.756         935.196 
       0.313033         896.638          698.82         905.777 
       0.319153         884.037         675.408         884.134 
       0.325316         870.937          654.51         870.716 
        0.33145         854.552         635.335         841.499 
       0.337538         825.757         616.832         825.405 
       0.343633         803.659         598.156         815.862 
       0.349808         786.476         578.775         799.874 
       0.355968         772.596          559.14         784.686 
       0.362074         749.721         539.845         766.274 
       0.368217         745.921         521.134         744.193 
       0.374374         733.556         503.595          730.89 
       0.380519         706.851         487.519         715.371 
       0.386598         700.083         473.048         705.368 
       0.392688         686.583          459.76         689.645 
        0.39888         668.796         447.111         679.792 
       0.405048         658.645         435.032         672.624 
       0.411186         655.642         423.216         655.634 
       0.417313          649.57         411.452         642.163 
       0.423458         630.123         399.722         632.678 
       0.429607         614.444          388.13         619.592 
       0.435692         605.959         376.977         609.038 
       0.441815         596.913         366.257         604.774 
       0.447964         585.712         356.092         593.946 
       0.454126         578.727         346.527         580.168 
       0.460267         569.981          337.59         577.615 
       0.466387         562.176          329.16         566.624 
        0.47254         553.345         321.018         560.129 
       0.478662         542.206         313.147         550.365 
       0.484765         537.571          305.47         539.933 
       0.490885         532.211         297.897         533.147 
       0.497035         522.504         290.418         527.916 
       0.503198         521.605         283.119         520.043 
       0.509342          509.53         276.094         513.988 
       0.515458         501.738         269.379         510.639 
       0.521598         494.519         262.926         501.768 
       0.527764         486.804         256.739         495.044 
       0.533884         485.275         250.871         489.598 
           0.54         478.474         245.229         483.411 
       0.546137         469.257          239.74         477.966 
       0.552299         468.691         234.366          471.52 
       0.558452         461.679          229.13         466.891 
       0.564573         456.451          224.05         462.904 
       0.570708         452.018         219.088         458.702 
       0.576825         443.827         214.276         450.575 
       0.582926         440.562         209.621         445.698 
       0.589034         434.952         205.115         440.315 
       0.595184         431.902         200.741         434.889 
       0.601379         424.655         196.496         432.431 
       0.607522         418.151         192.427          427.66 
       0.613639          415.98         188.494         423.713 
       0.619772         414.066         184.656         421.389 
       0.625918         407.831         180.906         416.713 
       0.632068         402.759         177.249         410.879 
       0.638161         398.899         173.721         407.387 
         0.6443         396.246         170.262         404.275 
       0.650464         390.791         166.886         397.756 
       0.656582         387.179         163.628         394.422 
       0.662703         384.421          160.46         392.986 
       0.668861         378.984         157.361         389.058 
       0.675024         376.476         154.346         385.228 
       0.681124         372.663         151.445         380.292 
       0.687237         369.444         148.617           376.9 
       0.693381         365.798          145.85         373.815 
       0.699536         362.022          143.15         371.291 
       0.705665         358.465          140.53         368.489 
       0.711789         356.821         137.977         364.631 
       0.717957         351.879         135.469         362.211 
        0.72409         348.944         133.036         359.851 
       0.730186         350.242         130.678         356.847 
       0.736317         343.967         128.363         352.901 
       0.742472         339.947         126.098         349.721 
       0.748622         336.242          123.89         346.652 
        0.75476         336.183         121.742         345.613 
       0.760888         332.449          119.65         341.456 
       0.767043         329.322           117.6         339.492 
       0.773185         327.621         115.603         336.895 
       0.779291         322.438         113.666         333.719 
       0.785407         321.481         111.771         331.356 
       0.791564         318.052         109.908         329.118 
       0.797719         313.586         108.088         326.924 
       0.803834         315.826         106.321         324.448 
       0.809972          311.74         104.588         322.023 
       0.816124         308.102         102.891         319.027 
       0.822261         304.735         101.236         316.969 
       0.828378         304.964         99.6222         314.289 
       0.834502         300.034         98.0431         312.868 
       0.840667          299.79         96.4884         310.625 
       0.846816         295.456         94.9723         308.337 
       0.852925         294.474         93.4988         305.851 
       0.859047         291.272          92.054         303.886 
       0.865192         291.191         90.6353         302.027 
       0.871341         287.059         89.2461         299.732 
       0.877463           284.4         87.8927         298.142 
       0.883569         283.706         86.5712         296.295 
       0.889708         281.306         85.2705          293.86 
       0.895864         279.168         83.9935          292.26 
       0.902008         276.872         82.7457         289.767 
       0.908149         274.604         81.5244         287.335 
       0.914301         273.323          80.326         286.347 
       0.920448         271.748         79.1532           283.5 
       0.926574         269.441         78.0082         281.635 
       0.932687         267.556         76.8886         279.367 
       0.938823         265.444         75.7872          278.93 
       0.944975         263.672         74.7052         277.543 
       0.951105         261.477         73.6484         275.344 
       0.957225         259.596         72.6141         273.233 
       0.963368         258.581         71.5965         270.879 
       0.969511         254.654         70.5985         269.471 
       0.975621          253.86         69.6252         269.033 
       0.981748         252.137         68.6679         266.736 
       0.987916         250.872         67.7228         265.496 
        0.99406         248.708         66.7992         263.992 
        1.00019         247.222         65.8949         261.623 
        1.00632         246.479         65.0084         259.515 
        1.01246         244.404         64.1371         257.875 
        1.01859          241.76         63.2833         257.051 
        1.02471          239.94         62.4463         255.992 
        1.03085         239.229         61.6217         254.249 
        1.03698         237.131          60.814         252.826 
        1.04314         236.718         60.0175         251.215 
        1.04929         234.941         59.2372         249.427 
        1.05541         232.999         58.4741          248.08 
        1.06154         231.531         57.7228         246.812 
        1.06769         229.161         56.9836         245.537 
        1.07382         228.995           56.26         243.844 
        1.07993         226.659         55.5507         242.527 
        1.08607         224.746         54.8509         241.569 
        1.09222         223.843         54.1625         240.068 
        1.09836         222.536         53.4869         238.979 
        1.10449         220.388         52.8237         237.273 
        1.11063          219.07         52.1712         235.712 
        1.11677         218.279         51.5301         234.518 
         1.1229         216.296         50.9009         233.423 
        1.12903         215.696         50.2819         232.226 
        1.13518         214.005         49.6727         230.792 
        1.14131         212.867         49.0741         229.419 
        1.14745         210.633         48.4858         228.226 
        1.15359         208.748         47.9072         226.878 
        1.15973           208.4         47.3378         225.497 
        1.16584         207.518         46.7804         223.927 
        1.17197         206.015         46.2312         222.775 
        1.17811         204.018         45.6892          222.26 
        1.18424         202.931         45.1576         220.819 
        1.19038          201.68          44.633         219.708 
        1.19652         199.949         44.1171         218.888 
        1.20267         199.191         43.6094         217.332 
        1.20881         197.633         43.1098         216.642 
        1.21495         197.182          42.619         214.673 
        1.22108         195.467         42.1359         214.234 
         1.2272         193.981         41.6616         212.449 
        1.23334         193.275         41.1935         211.723 
        1.23949          192.59         40.7316          210.88 
        1.24562         190.946         40.2782         209.376 
        1.25174         189.353         39.8323         208.627 
        1.25789         188.348          39.392         207.463 
        1.26402         187.857         38.9591         206.027 
        1.27014         186.529         38.5339         205.838 
        1.27628         184.317         38.1137         205.028 
        1.28244         183.882         37.6991          203.17 
        1.28858         182.675         37.2913         202.123 
        1.29471         181.592         36.8904         201.353 
        1.30084          180.42         36.4959         200.291 
        1.30697         179.472         36.1066         199.244 
        1.31312         178.191         35.7225         197.793 
        1.31925         176.752         35.3453         196.944 
        1.32537         176.339         34.9739         196.241 
        1.33151         175.046         34.6065         195.199 
        1.33765         173.357         34.2448         194.231 
        1.34378          173.25         33.8889         193.026 
        1.34992         172.285         33.5379         192.187 
        1.35606         170.976         33.1912         190.962 
         1.3622         170.387           32.85         190.115 
        1.36833          168.38         32.5145         189.174 
        1.37445         168.176         32.1839         188.005 
        1.38059         166.797         31.8569         187.478 
        1.38675          165.89         31.5338          186.38 
        1.39288         164.738         31.2164         185.301 
        1.39901          163.67         30.9036         184.701 
        1.40515         162.956         30.5944         183.887 
         1.4113         162.068         30.2896         182.899 
        1.41742         160.682         29.9901          182.19 
        1.42355         160.487         29.6942         181.511 
         1.4297         159.035         29.4014         180.354 
        1.43585         157.925         29.1127         179.405 
        1.44198         156.602          28.829         178.564 
        1.44809         155.599         28.5497         177.627 
        1.45423          155.37         28.2731         176.684 
        1.46036         154.176         28.0007         175.878 
        1.46649         153.097         27.7318         175.292 
        1.47263         152.633         27.4662         174.672 
        1.47877         151.254         27.2043         173.602 
        1.48491         150.301         26.9454         172.797 
        1.49104         148.727         26.6904         172.138 
        1.49718         148.877         26.4386         170.737 
        1.50333         147.909         26.1897         170.165 
        1.50947         147.001         25.9445         169.497 
         1.5156         145.925         25.7028         168.635 
        1.52172         145.094         25.4642          168.08 
        1.52787         144.316         25.2282          166.99 
          1.534         143.671         24.9955         166.182 
        1.54013         142.721          24.766         165.514 
        1.54627         141.682          24.539         164.798 
        1.55241          140.87         24.3148         164.077 
        1.55855         140.154         24.0938         163.084 
        1.56467         139.041         23.8761         162.261 
         1.5708         138.409         23.6605         161.851 
        1.57695         137.742         23.4473         161.091 
        1.58308         136.821         23.2373         160.041 
        1.58922         136.369         23.0296          159.35 
        1.59535         135.679         22.8246         158.688 
         1.6015         134.119         22.6219         157.942 
        1.60764         133.418         22.4217         157.253 
        1.61376         132.754         22.2245         156.677 
        1.61989         132.122         22.0296         155.974 
        1.62604         131.268         21.8365         155.097 
        1.63218         130.717          21.646         154.374 
        1.63831         129.576         21.4581          153.82 
        1.64444         128.889         21.2725         153.049 
        1.65059         127.987         21.0886         152.286 
        1.65673         127.506          20.907         151.627 
        1.66285         127.011         20.7282         151.014 
        1.66898         125.757         20.5514         150.373 
        1.67512         125.387         20.3763         149.729 
        1.68127         124.392         20.2031         148.986 
         1.6874         123.737         20.0324         148.273 
        1.69353         122.832         19.8637         147.708 
        1.69967         122.386         19.6966         146.957 
        1.70581         121.843         19.5315         146.225 
        1.71193          120.88         19.3689         145.621 
        1.71806         120.115         19.2079         145.027 
        1.72421         119.463         19.0483          144.37 
        1.73035         118.927         18.8908         143.655 
        1.73649          118.03         18.7351         142.994 
        1.74262         117.451         18.5813         142.509 
        1.74876         116.598         18.4292         141.808 
        1.75489         116.112          18.279         141.017 
        1.76101          115.36         18.1306         140.353 
        1.76715         114.474         17.9837         139.747 
        1.77329         114.063         17.8382         139.231 
        1.77943         113.141         17.6943         138.708 
        1.78557         112.693         17.5522         138.098 
        1.79171         112.098         17.4116         137.549 
        1.79785         111.214         17.2726             137 
        1.80399         110.826         17.1351         136.339 
        1.81012         109.951         16.9993          135.68 
        1.81625         109.499         16.8651         135.097 
        1.82239         109.003         16.7321         134.543 
        1.82853         108.316         16.6006          133.94 
        1.83466         107.363         16.4707         133.294 
        1.84078         106.864         16.3423         132.735 
        1.84692         106.564          16.215         132.363 
        1.85306         105.831          16.089         131.741 
         1.8592         105.368         15.9645          131.09 
        1.86533         104.547         15.8415         130.646 
        1.87147         103.901         15.7196         129.758 
