# k  (h/Mpc)    P(k)  (Mpc/h)^3    P_linear(k)  (Mpc/h)^3     P_NL(k)  ShotnoiseSubtracted = false
     0.00783031         2830.69         2845.16          2843.8 
       0.013688         3749.97         3804.04         3790.06 
       0.019231         4079.83         4109.31         4086.37 
      0.0249154         4035.69         4036.34         4016.11 
      0.0312784         3695.84         3713.32         3696.63 
      0.0375637         3294.35         3321.55         3305.56 
      0.0433917         2985.32         2989.72         2974.12 
      0.0492413         2705.89         2724.22          2708.9 
      0.0555754         2508.93         2512.86         2496.86 
      0.0619321          2311.7         2355.32          2338.5 
       0.067871         2205.93         2227.92         2210.35 
      0.0738098         2080.35          2096.4         2073.88 
      0.0800417         1931.78         1941.89         1920.12 
      0.0862327         1758.46         1773.76         1757.53 
      0.0921407         1597.63         1611.26          1596.4 
      0.0982031         1454.79         1456.91         1448.78 
       0.104506         1308.94         1321.81         1319.19 
       0.110769         1209.13         1218.21         1212.77 
       0.116806         1150.56          1144.9         1139.44 
       0.122832         1084.91         1090.46          1086.7 
       0.129052         1042.39         1044.06         1040.33 
       0.135211         1004.66         998.675          995.27 
       0.141259         946.905         948.853         947.732 
       0.147318          882.16         892.264         894.836 
       0.153489         828.375          830.25         829.269 
       0.159709         776.982         768.239         771.959 
       0.165845         710.452         712.557         723.956 
       0.171974         681.805         665.781         677.296 
       0.178125         647.652          628.73         645.666 
       0.184229         609.476         600.552         617.665 
        0.19034         594.665         578.186         595.087 
       0.196428         575.306         558.444         571.869 
       0.202534         544.455           538.3         552.985 
       0.208729         530.988         515.711         529.399 
       0.214876         510.854         490.843         509.934 
       0.220989         475.686         464.662         485.939 
       0.227147         461.893         438.521         460.465 
        0.23329         441.474         414.387         440.993 
       0.239377         425.963         393.572         422.406 
       0.245482           404.8         376.187         402.925 
       0.251667         388.464         361.759         391.136 
       0.257832         383.259         349.635         378.691 
       0.263955         364.869         338.688         366.944 
       0.270079         353.671          327.79         355.455 
        0.27624         338.962          316.25          342.96 
       0.282372         329.423         304.016         331.824 
        0.28843         325.276          291.47         319.628 
       0.294538         309.924         278.903         309.042 
       0.300721         296.678         266.855         299.275 
        0.30691         291.039         255.936          289.47 
       0.313033         279.333         246.436         279.348 
       0.319153         274.452         238.181         272.527 
       0.325316         264.956         230.812         266.438 
        0.33145         258.035         224.049         257.781 
       0.337538         250.569         217.525         250.762 
       0.343633         243.268         210.939         245.338 
       0.349808         236.411         204.103         239.271 
       0.355968         230.272          197.18         233.913 
       0.362074         225.496         190.375         226.925 
       0.368217         220.446         183.777         219.061 
       0.374374         215.714         177.592          214.22 
       0.380519          206.62         171.922         208.347 
       0.386598         202.268          166.82         203.556 
       0.392688         197.255         162.133         199.511 
        0.39888         193.516         157.673         194.161 
       0.405048         189.605         153.413         190.638 
       0.411186         186.294         149.246         187.028 
       0.417313         181.752         145.098         181.417 
       0.423458          177.28         140.961         177.754 
       0.429607         174.261         136.873         173.711 
       0.435692         171.015          132.94         170.243 
       0.441815         166.157          129.16         167.903 
       0.447964         161.538         125.575         163.696 
       0.454126         158.619         122.202         159.672 
       0.460267         157.482         119.051         157.538 
       0.466387         153.929         116.078         154.065 
        0.47254         152.209         113.206         151.502 
       0.478662         147.267         110.431          148.49 
       0.484765         145.129         107.724         145.065 
       0.490885          142.02         105.053         143.225 
       0.497035         140.994         102.415         141.089 
       0.503198         137.602         99.8414         138.077 
       0.509342         134.274         97.3638         135.979 
       0.515458         132.938         94.9962         134.596 
       0.521598         129.769         92.7205         131.187 
       0.527764         128.415         90.5386         128.214 
       0.533884         127.233         88.4692         126.455 
           0.54         124.083         86.4796         124.619 
       0.546137         121.055         84.5441         123.201 
       0.552299         119.577         82.6488         120.582 
       0.558452         117.415         80.8023         118.485 
       0.564573         116.962         79.0108         117.258 
       0.570708          113.56         77.2609         115.367 
       0.576825          112.43         75.5639         113.509 
       0.582926         111.164         73.9224         111.783 
       0.589034         109.376         72.3332         110.553 
       0.595184         108.028          70.791         108.806 
       0.601379         105.264         69.2941         107.601 
       0.607522         104.009         67.8589         105.342 
       0.613639         102.991         66.4722         104.205 
       0.619772         101.336         65.1187         102.531 
       0.625918         100.027         63.7961         101.772 
       0.632068         98.7576         62.5065         99.8551 
       0.638161         96.9392         61.2623         98.8905 
         0.6443         96.2767         60.0425         97.2037 
       0.650464         94.3782         58.8519         95.7354 
       0.656582         93.9318         57.7032         94.9959 
       0.662703         92.8262         56.5859         93.3498 
       0.668861         90.8315         55.4932         92.4557 
       0.675024         90.5279           54.43         91.1265 
       0.681124         89.2427         53.4069         89.9557 
       0.687237          87.472         52.4094         88.7602 
       0.693381         86.8764         51.4336         87.6484 
       0.699536         86.0673         50.4815         87.1066 
       0.705665         84.6143         49.5576         86.1668 
       0.711789          83.459         48.6575         84.4815 
       0.717957         82.4015          47.773          83.944 
        0.72409         81.7609          46.915         83.3313 
       0.730186         81.1896         46.0832         82.1372 
       0.736317         79.7606         45.2672          81.047 
       0.742472         78.9775         44.4681         80.2783 
       0.748622         77.7946         43.6896         79.2259 
        0.75476         76.7241         42.9321         78.4681 
       0.760888         76.5307         42.1942         77.6183 
       0.767043         75.1938         41.4714         77.0936 
       0.773185         74.5764         40.7674         76.3258 
       0.779291         73.6852         40.0841         75.5545 
       0.785407         72.5754         39.4158          74.561 
       0.791564         72.6069         38.7587         73.7582 
       0.797719         71.6506         38.1171         73.1735 
       0.803834         70.8903         37.4941         72.3147 
       0.809972         70.1576          36.883         71.7068 
       0.816124         69.4684         36.2842         71.0475 
       0.822261           68.61         35.7006         70.1129 
       0.828378         68.2774         35.1316         69.2849 
       0.834502          67.423         34.5747         69.1703 
       0.840667          66.948         34.0265         68.3094 
       0.846816          65.902         33.4918         67.7091 
       0.852925         65.6985         32.9722         67.3498 
       0.859047         65.1802         32.4627         66.3622 
       0.865192         64.1704         31.9624         65.8658 
       0.871341         63.5666         31.4725         65.3337 
       0.877463          63.159         30.9952         64.7542 
       0.883569         62.8686         30.5292         64.3598 
       0.889708         62.2066         30.0705         63.5891 
       0.895864         61.5471         29.6202         63.0699 
       0.902008         60.8928         29.1802         62.5749 
       0.908149         60.5009         28.7494          62.105 
       0.914301         60.0895         28.3269         61.7309 
       0.920448         59.5626         27.9133         61.0407 
       0.926574         58.5747         27.5095         60.3849 
       0.932687         58.2966         27.1146         60.0728 
       0.938823         57.7238         26.7263         59.4808 
       0.944975          57.235         26.3447         58.8954 
       0.951105         56.7106          25.972         58.6223 
       0.957225         56.5503         25.6073         58.1274 
       0.963368         55.8712         25.2484         57.5677 
       0.969511          55.464         24.8965         57.1583 
       0.975621         54.9907         24.5532         56.8623 
       0.981748         54.4179         24.2156         56.3985 
       0.987916         54.0804         23.8823         55.8913 
        0.99406         53.6031         23.5567         55.5586 
        1.00019         53.2176         23.2378         55.1219 
        1.00632         52.8146         22.9251         54.7778 
        1.01246           52.44         22.6178         54.3632 
        1.01859         51.9704         22.3168         53.9258 
        1.02471         51.4454         22.0216         53.5721 
        1.03085         51.3153         21.7308         53.1731 
        1.03698           50.86          21.446         52.7483 
        1.04314         50.5236         21.1651         52.2595 
        1.04929         49.9869         20.8899         52.0588 
        1.05541         49.7571         20.6208         51.8409 
        1.06154         49.5307         20.3559         51.2419 
        1.06769         48.8177         20.0952         50.9236 
        1.07382          48.637           19.84         50.6874 
        1.07993          48.198         19.5899         50.2037 
        1.08607         47.8977         19.3431         49.8719 
        1.09222         47.5958         19.1003         49.6539 
        1.09836         47.2062         18.8621         49.2995 
        1.10449         46.9607         18.6282         48.8659 
        1.11063         46.5691         18.3981         48.6635 
        1.11677         46.5188          18.172         48.3161 
         1.1229         46.0188         17.9501         47.9609 
        1.12903         45.8076         17.7318         47.6873 
        1.13518         45.5765          17.517         47.2602 
        1.14131         45.1305         17.3059         47.0569 
        1.14745         44.6412         17.0985         46.7858 
        1.15359         44.3248         16.8944          46.561 
        1.15973         44.0727         16.6936         46.2513 
        1.16584         43.8254          16.497         45.9678 
        1.17197         43.3425         16.3034         45.6257 
        1.17811         43.1663         16.1122         45.2218 
        1.18424         42.7371         15.9248         45.0412 
        1.19038         42.5836         15.7398         44.8976 
        1.19652         42.3395         15.5578         44.4791 
        1.20267         42.0832         15.3788         44.3096 
        1.20881         41.8194         15.2026         44.0609 
        1.21495          41.532         15.0295         43.8785 
        1.22108         41.4331         14.8592         43.4935 
         1.2272         41.1635         14.6919         43.2996 
        1.23334         40.8653         14.5268         43.0921 
        1.23949         40.5723          14.364         42.7341 
        1.24562         40.1888          14.204         42.5262 
        1.25174          40.021         14.0468         42.3249 
        1.25789         39.9135         13.8915         42.0347 
        1.26402         39.6545         13.7389         41.7981 
        1.27014         39.3564         13.5889         41.5906 
        1.27628         39.0099         13.4408         41.3123 
        1.28244         38.9628         13.2945         41.2398 
        1.28858         38.5856         13.1507         40.9001 
        1.29471         38.4044         13.0094         40.6813 
        1.30084         38.1063         12.8702         40.5002 
        1.30697         37.9587          12.733         40.2081 
        1.31312         37.6393         12.5975         40.0208 
        1.31925         37.4277         12.4645         39.8522 
        1.32537         37.2203         12.3335         39.6789 
        1.33151         36.9897         12.2039         39.4436 
        1.33765         36.8909         12.0764         39.2578 
        1.34378         36.6525         11.9509         39.0498 
        1.34992         36.4561         11.8271         38.8522 
        1.35606         36.2327         11.7048         38.6669 
         1.3622         35.9094         11.5845         38.4913 
        1.36833         35.7691         11.4662         38.3051 
        1.37445         35.6116         11.3496         38.0272 
        1.38059         35.3743         11.2343         37.8385 
        1.38675         35.0661         11.1203         37.7075 
        1.39288         34.9793         11.0084         37.5126 
        1.39901         34.7527         10.8981          37.346 
        1.40515         34.6064         10.7891         37.1505 
         1.4113         34.4988         10.6816         36.9788 
        1.41742         34.2937          10.576         36.8226 
        1.42355         34.0084         10.4716         36.5128 
         1.4297         33.8032         10.3684         36.3805 
        1.43585         33.6119         10.2666         36.2898 
        1.44198         33.4827         10.1665         36.0736 
        1.44809         33.3073          10.068         35.9226 
        1.45423          33.145         9.97046         35.7089 
        1.46036         32.9507         9.87439         35.5193 
        1.46649          32.749         9.77956         35.3683 
        1.47263         32.5837         9.68592         35.2547 
        1.47877         32.4931         9.59355          35.159 
        1.48491         32.3146         9.50225         34.8607 
        1.49104         32.0731         9.41235         34.7565 
        1.49718         31.9372         9.32354         34.6088 
        1.50333         31.8377         9.23576         34.4742 
        1.50947         31.6274         9.14929         34.3563 
         1.5156         31.4586         9.06406         34.1753 
        1.52172         31.2294         8.97993         33.9524 
        1.52787         31.0643          8.8967         33.7989 
          1.534         30.9961         8.81464         33.6739 
        1.54013         30.8484         8.73371         33.4716 
        1.54627          30.613         8.65365         33.3169 
        1.55241         30.4945         8.57459         33.2357 
        1.55855         30.3374         8.49664         33.1044 
        1.56467         30.2717         8.41988         32.9306 
         1.5708          30.099         8.34386         32.8141 
        1.57695         29.9006         8.26867         32.6623 
        1.58308         29.6702         8.19459         32.4942 
        1.58922         29.5438         8.12137         32.4224 
        1.59535         29.4095         8.04908         32.3027 
         1.6015         29.2704         7.97758         32.1184 
        1.60764         29.1641         7.90699         31.9485 
        1.61376         29.0459         7.83745         31.8188 
        1.61989         28.8233          7.7687         31.6928 
        1.62604          28.724         7.70063         31.6452 
        1.63218         28.5685         7.63342         31.5275 
        1.63831         28.4522         7.56718         31.3225 
        1.64444         28.3138          7.5017         31.2069 
        1.65059         28.1552         7.43685         31.0801 
        1.65673         28.0718         7.37284         30.9685 
        1.66285         27.8736         7.30977         30.8568 
        1.66898         27.7908         7.24742         30.7139 
        1.67512         27.7081         7.18568         30.5625 
        1.68127         27.5097         7.12461         30.4326 
         1.6874         27.4117          7.0644         30.3069 
        1.69353         27.2346         7.00491         30.1646 
        1.69967          27.115         6.94598         30.0665 
        1.70581         26.9966         6.88776         29.9927 
        1.71193          26.762         6.83043         29.8846 
        1.71806          26.743         6.77363         29.7157 
        1.72421          26.658         6.71737         29.6144 
        1.73035         26.4682         6.66182         29.5009 
        1.73649          26.342         6.60692         29.3468 
        1.74262         26.2091         6.55268         29.2547 
        1.74876         26.0872         6.49902         29.1515 
        1.75489         26.0063         6.44608         29.0273 
        1.76101         25.8864         6.39375         28.9088 
        1.76715         25.7468         6.34193         28.7931 
        1.77329         25.6382         6.29062         28.6627 
        1.77943         25.5115         6.23987         28.5718 
        1.78557         25.4247         6.18976         28.5344 
        1.79171         25.2615         6.14019         28.4107 
        1.79785         25.1674         6.09116         28.2666 
        1.80399         25.0659         6.04267         28.2013 
        1.81012         24.9665         5.99479         28.0623 
        1.81625         24.7897         5.94745         27.9431 
        1.82239         24.7078         5.90055         27.8855 
        1.82853         24.6166         5.85418         27.7696 
        1.83466         24.4707         5.80836         27.6504 
        1.84078         24.4042         5.76308          27.561 
        1.84692         24.3248         5.71821         27.4739 
        1.85306         24.1851         5.67377         27.3543 
         1.8592         24.0881         5.62988         27.2339 
        1.86533         23.8847         5.58647         27.1541 
        1.87147         23.8189         5.54348         27.0767 
        1.87761         23.7284         5.50093         26.9759 
