# k  (h/Mpc)    P(k)  (Mpc/h)^3    P_linear(k)  (Mpc/h)^3     P_NL(k)  ShotnoiseSubtracted = false
     0.00783031         5868.07         5893.96         5890.28 
       0.013688         7732.84          7879.6         7844.73 
       0.019231          8422.3         8511.43         8452.64 
      0.0249154         8354.01            8360         8298.32 
      0.0312784         7623.73         7690.77         7626.79 
      0.0375637         6779.35         6879.26         6813.77 
      0.0433917         6154.73         6191.94         6121.82 
      0.0492413         5565.53         5642.04         5571.41 
      0.0555754         5163.18         5204.25         5132.72 
      0.0619321         4724.69         4877.97         4803.31 
       0.067871         4518.92         4614.09         4539.05 
      0.0738098         4267.89         4341.71         4246.82 
      0.0800417         3961.17          4021.7         3929.52 
      0.0862327         3602.92          3673.5         3603.44 
      0.0921407         3277.37         3336.94         3271.16 
      0.0982031         2993.94         3017.29         2977.85 
       0.104506         2689.88         2737.49         2719.89 
       0.110769         2488.26         2522.92         2495.05 
       0.116806         2377.59         2371.09         2343.56 
       0.122832         2237.25         2258.35         2237.45 
       0.129052         2145.48         2162.25         2142.22 
       0.135211         2077.71         2068.26         2048.97 
       0.141259         1951.27         1965.08         1955.89 
       0.147318         1814.13         1847.88         1851.15 
       0.153489         1710.36         1719.45         1710.44 
       0.159709         1619.86         1591.02         1599.98 
       0.165845         1477.63         1475.71         1512.73 
       0.171974         1430.79         1378.83         1418.36 
       0.178125         1369.36          1302.1         1361.96 
       0.184229         1277.07         1243.74         1302.22 
        0.19034         1252.91         1197.42         1256.22 
       0.196428         1216.46         1156.54         1205.15 
       0.202534         1146.55         1114.82         1168.19 
       0.208729         1124.74         1068.04         1116.26 
       0.214876         1082.35         1016.53         1083.08 
       0.220989         1012.57         962.312         1037.98 
       0.227147         988.058         908.176         988.553 
        0.23329         948.597         858.194         953.739 
       0.239377         927.348         815.085         916.509 
       0.245482         881.308         779.082         874.678 
       0.251667         848.125           749.2         853.816 
       0.257832         840.048         724.092         827.652 
       0.263955         798.304          701.42         803.402 
       0.270079          775.28         678.852         780.164 
        0.27624         743.311         654.951         754.559 
       0.282372         728.394         629.614         732.342 
        0.28843         722.537         603.632         707.695 
       0.294538         686.604         577.607         688.046 
       0.300721         664.415         552.654         668.922 
        0.30691         653.877         530.042         652.343 
       0.313033         627.216         510.367         630.818 
       0.319153         616.978         493.272         616.116 
       0.325316         604.559         478.009         605.442 
        0.33145         592.226         464.004         585.028 
       0.337538         572.431         450.492         571.816 
       0.343633         555.716         436.853         563.859 
       0.349808          542.49         422.696         551.987 
       0.355968         532.103         408.357         540.628 
       0.362074         517.691         394.265         526.878 
       0.368217         512.659           380.6         510.659 
       0.374374         502.691         367.792         500.718 
       0.380519         483.426          356.05         489.176 
       0.386598         477.149         345.482         480.758 
       0.392688         467.704         335.777         470.906 
        0.39888         455.766         326.539         461.805 
       0.405048         448.637         317.718          456.66 
       0.411186         445.498         309.087         445.252 
       0.417313         438.308         300.496         434.168 
       0.423458         426.259          291.93         426.976 
       0.429607         417.047         283.463         418.468 
       0.435692          409.36         275.318         410.893 
       0.441815         403.173         267.489         407.244 
       0.447964         393.569         260.066         399.084 
       0.454126         388.181         253.078          389.66 
       0.460267         383.043         246.553          386.83 
       0.466387         376.928         240.396         379.343 
        0.47254         372.074          234.45         374.132 
       0.478662         362.275         228.701         367.281 
       0.484765         358.658         223.095         359.316 
       0.490885         354.787         217.564         355.225 
       0.497035         349.481         212.101         351.295 
       0.503198         346.727         206.771         345.648 
       0.509342         337.626          201.64         341.518 
       0.515458         334.006         196.736         338.911 
       0.521598         327.203         192.023         332.036 
       0.527764         323.264         187.505         326.543 
       0.533884          322.83         183.219         322.946 
           0.54         316.403         179.099         318.854 
       0.546137         309.548          175.09         315.501 
       0.552299         308.555         171.165         310.339 
       0.558452         303.482         167.341         306.527 
       0.564573         300.931         163.631         303.916 
       0.570708         295.836         160.007         300.267 
       0.576825         291.299         156.492         294.851 
       0.582926         288.371         153.093         291.432 
       0.589034         284.932         149.801         288.583 
       0.595184         283.086         146.608         284.082 
       0.601379         277.408         143.507         283.005 
       0.607522         273.224         140.535         279.035 
       0.613639         271.199         137.663         276.103 
       0.619772         269.183          134.86         272.893 
       0.625918         266.436         132.121         270.786 
       0.632068         261.209          129.45         266.313 
       0.638161          258.51         126.874         264.919 
         0.6443          257.54         124.347         261.853 
       0.650464         253.167         121.882         257.542 
       0.656582         251.356         119.503         255.686 
       0.662703         249.355         117.189          253.38 
       0.668861         244.969         114.926         250.813 
       0.675024         244.529         112.724         247.788 
       0.681124         241.259         110.605         245.696 
       0.687237         238.357         108.539         242.856 
       0.693381         236.767         106.519         240.551 
       0.699536         233.792         104.547         238.707 
       0.705665         231.037         102.633         237.457 
       0.711789         228.882         100.769         233.758 
       0.717957         226.462         98.9373         232.043 
        0.72409         224.992         97.1606         231.128 
       0.730186         224.615         95.4379         228.756 
       0.736317         220.889         93.7479         226.088 
       0.742472         218.114         92.0931         224.151 
       0.748622         215.127         90.4808         221.803 
        0.75476         215.638         88.9119         220.166 
       0.760888         213.365         87.3839         217.608 
       0.767043          210.48         85.8868         216.544 
       0.773185         208.521         84.4289          215.23 
       0.779291         206.058         83.0138         213.135 
       0.785407          204.59         81.6297         210.798 
       0.791564         203.133         80.2689         209.486 
       0.797719         200.712         78.9401         208.222 
       0.803834         200.558         77.6499         205.831 
       0.809972         199.358         76.3843         204.447 
       0.816124         196.754         75.1443         203.223 
       0.822261         194.526         73.9355         201.383 
       0.828378         194.644         72.7572         199.059 
       0.834502          191.11         71.6039         198.496 
       0.840667         190.705         70.4685         197.441 
       0.846816         188.901         69.3613         195.252 
       0.852925         187.195         68.2851         193.675 
       0.859047         185.359         67.2299          192.28 
       0.865192         184.545         66.1938         191.255 
       0.871341         182.264         65.1792         189.449 
       0.877463         181.101         64.1908           188.7 
       0.883569          180.76         63.2257         187.139 
       0.889708          179.36         62.2757         185.955 
       0.895864         177.524         61.3431         184.888 
       0.902008         176.094         60.4318         182.962 
       0.908149         174.023         59.5398         181.605 
       0.914301         174.123         58.6646          180.99 
       0.920448         172.852         57.8081         179.528 
       0.926574         170.535         56.9719         177.537 
       0.932687         169.959         56.1542         176.393 
       0.938823         168.593         55.3498         175.649 
       0.944975         166.763         54.5595         174.745 
       0.951105          165.74         53.7878         173.327 
       0.957225         165.543         53.0324         172.284 
       0.963368         163.642         52.2892         170.411 
       0.969511         162.059         51.5603         169.637 
       0.975621         161.088         50.8495         169.927 
       0.981748         159.757         50.1503         167.919 
       0.987916         158.859         49.4601         167.297 
        0.99406          158.04         48.7856         166.046 
        1.00019         156.651         48.1252         164.648 
        1.00632         156.049         47.4777          163.61 
        1.01246         154.689         46.8413         162.376 
        1.01859         153.602         46.2178         161.801 
        1.02471         152.443         45.6065         161.229 
        1.03085         151.394         45.0043         160.025 
        1.03698         150.374         44.4144         158.697 
        1.04314         149.539         43.8326         158.068 
        1.04929         148.953         43.2628         157.405 
        1.05541         147.933         42.7055         156.503 
        1.06154         147.011         42.1568         155.691 
        1.06769         145.508         41.6169         154.782 
        1.07382          144.66         41.0885         153.814 
        1.07993         144.053         40.5704         152.826 
        1.08607         142.678         40.0593         152.061 
        1.09222         142.265         39.5566         151.021 
        1.09836         140.728         39.0632         150.092 
        1.10449         139.942         38.5788         149.252 
        1.11063          139.02         38.1023         148.109 
        1.11677         138.306          37.634         147.486 
         1.1229         137.238         37.1746         146.985 
        1.12903          136.85         36.7225         145.913 
        1.13518         135.881         36.2776         145.206 
        1.14131         135.104         35.8404         144.241 
        1.14745         133.922         35.4107         143.544 
        1.15359          132.74         34.9881         142.722 
        1.15973         132.267         34.5723         142.175 
        1.16584         131.458         34.1652          141.33 
        1.17197         130.684         33.7641         140.483 
        1.17811         129.759         33.3683          139.81 
        1.18424         128.886           32.98         139.076 
        1.19038         128.689         32.5969         138.554 
        1.19652         127.522         32.2201         137.516 
        1.20267         126.654         31.8493          136.87 
        1.20881         125.883         31.4845         136.265 
        1.21495         125.478          31.126         135.279 
        1.22108         124.453         30.7732         134.855 
         1.2272         123.546         30.4268         134.089 
        1.23334         123.097         30.0849         133.468 
        1.23949         122.495         29.7476         132.555 
        1.24562         121.349         29.4164           132.1 
        1.25174         120.457         29.0908         131.385 
        1.25789         120.489         28.7692         130.781 
        1.26402         119.473         28.4531         130.037 
        1.27014         118.833         28.1425         129.797 
        1.27628         117.613         27.8357         129.236 
        1.28244         117.366         27.5329         127.988 
        1.28858         116.468          27.235         127.367 
        1.29471          115.79         26.9423         127.101 
        1.30084         115.093         26.6541         126.191 
        1.30697         115.018         26.3698         125.544 
        1.31312         113.942         26.0893         125.077 
        1.31925         113.275         25.8138         124.413 
        1.32537         112.586         25.5425         123.747 
        1.33151         112.384         25.2742         123.254 
        1.33765         111.199           25.01          122.73 
        1.34378          111.16         24.7501          121.98 
        1.34992         110.409         24.4938         121.525 
        1.35606         109.599         24.2406          120.83 
         1.3622         109.193         23.9914         120.348 
        1.36833         108.189         23.7464         119.532 
        1.37445         107.532         23.5049         118.951 
        1.38059         107.172         23.2661         118.724 
        1.38675         106.272         23.0301          117.82 
        1.39288         106.044         22.7983         117.544 
        1.39901          104.91         22.5699         116.928 
        1.40515         104.786          22.344         116.401 
         1.4113         104.185         22.1214         116.014 
        1.41742         103.512         21.9027         115.407 
        1.42355         102.865         21.6866         114.557 
         1.4297         102.314         21.4728         114.057 
        1.43585         101.596         21.2619         113.704 
        1.44198         101.088         21.0548         113.339 
        1.44809         100.483         20.8507         112.463 
        1.45423         99.8946         20.6487         111.967 
        1.46036         99.1102         20.4498         111.588 
        1.46649         98.8475         20.2534         111.249 
        1.47263         98.3592         20.0594         110.787 
        1.47877         97.8602         19.8681         109.982 
        1.48491         97.1635         19.6791         109.758 
        1.49104         96.3854         19.4929         109.039 
        1.49718         96.1755          19.309          108.46 
        1.50333         95.6609         19.1272          108.09 
        1.50947         95.2425         18.9481         107.634 
         1.5156          94.673         18.7716          107.19 
        1.52172         94.0361         18.5973         106.784 
        1.52787         93.3708          18.425         106.179 
          1.534         93.1924          18.255         105.805 
        1.54013         92.6639         18.0874         105.274 
        1.54627         91.8506         17.9216         104.786 
        1.55241         91.3303         17.7579         104.438 
        1.55855         91.0586         17.5964         103.781 
        1.56467         90.1829         17.4375         103.272 
         1.5708         89.9956           17.28         102.999 
        1.57695         89.5144         17.1243         102.619 
        1.58308         88.9914         16.9709         102.151 
        1.58922         88.5924         16.8193          101.72 
        1.59535         88.1448         16.6696         101.242 
         1.6015         87.9008         16.5215         100.724 
        1.60764         87.3183         16.3753           100.4 
        1.61376         86.6714         16.2313         100.143 
        1.61989         85.9623         16.0889         99.5542 
        1.62604         85.7206         15.9479         98.9985 
        1.63218         85.3859         15.8087         98.6047 
        1.63831         84.9135         15.6715         98.3136 
        1.64444         84.4335         15.5359         97.8961 
        1.65059          84.031         15.4016          97.276 
        1.65673         83.2713         15.2691         96.9228 
        1.66285         82.9052         15.1385         96.6254 
        1.66898         82.3135         15.0093         96.1517 
        1.67512         82.2927         14.8815         95.9094 
        1.68127         81.6815          14.755         95.4592 
         1.6874         81.1892         14.6303         94.8228 
        1.69353          80.852         14.5071         94.4075 
        1.69967         80.4725         14.3851          94.228 
        1.70581         79.9935         14.2645           93.87 
        1.71193         79.5023         14.1457         93.3982 
        1.71806         78.9609         14.0281         93.1615 
        1.72421         78.6914         13.9116         92.6435 
        1.73035         78.4359         13.7966         92.2479 
        1.73649         77.9044         13.6829          92.062 
        1.74262         77.1967         13.5705         91.5178 
        1.74876          77.017         13.4594         91.0547 
        1.75489         76.3721         13.3498         90.7565 
        1.76101         76.0114         13.2414         90.4067 
        1.76715         75.9629         13.1341         89.8733 
        1.77329         75.1774         13.0278         89.5344 
        1.77943         75.0218         12.9227         89.2279 
        1.78557         74.7291         12.8189         88.6994 
        1.79171         74.1595         12.7163         88.3432 
        1.79785         73.8254         12.6147         88.1236 
        1.80399         73.3847         12.5143         87.7961 
        1.81012         72.9936         12.4151          87.393 
        1.81625         72.7395         12.3171         86.9877 
        1.82239         72.4377           12.22         86.6895 
        1.82853         71.9203         12.1239         86.5149 
        1.83466         71.5024          12.029         86.0826 
        1.84078         71.1036         11.9353         85.5648 
        1.84692          70.771         11.8424         85.4655 
        1.85306         70.4521         11.7503         85.1425 
         1.8592         70.1403         11.6594          84.646 
        1.86533         69.5716         11.5695         84.4075 
        1.87147          69.304         11.4805         84.0056 
        1.87761         68.8312         11.3924         83.5468 
