# k  (h/Mpc)    Pcb(k)  (Mpc/h)^3    Pcb_linear(k) (Mpc/h)^3    Pcb_NL(k) (Mpc/h)^3   ShotnoiseSubtracted = false
     0.00783031         970.246         975.974          975.38 
       0.013688         1291.61          1305.1         1300.85 
       0.019231         1403.44         1409.94         1403.23 
      0.0249154         1384.19         1384.97         1379.96 
      0.0312784         1271.31         1274.17         1271.35 
      0.0375637         1135.57         1139.76         1137.58 
      0.0433917         1026.73         1025.91          1024.4 
      0.0492413         932.698         934.812         933.486 
      0.0555754         863.493         862.287         860.685 
      0.0619321         800.996         808.234         806.486 
       0.067871         761.899         764.517          762.41 
      0.0738098         717.669          719.39         716.558 
      0.0800417         666.097          666.37         663.687 
      0.0862327         607.058         608.677         606.754 
      0.0921407         551.234         552.914         551.334 
      0.0982031         500.483          499.95          499.28 
       0.104506         451.487          453.59         453.655 
       0.110769         416.544         418.037         417.738 
       0.116806          394.31          392.88         392.478 
       0.122832         373.163           374.2         373.969 
       0.129052         358.392         358.277         357.987 
       0.135211         344.033         342.704          342.43 
       0.141259         325.325         325.607         325.603 
       0.147318         304.179         306.188         306.704 
       0.153489         284.505         284.908         284.996 
       0.159709         264.751         263.628         264.338 
       0.165845         243.266         244.521         246.249 
       0.171974         230.792         228.469          230.17 
       0.178125         218.218         215.755         218.143 
       0.184229         206.942         206.085         208.534 
        0.19034         200.847          198.41         200.798 
       0.196428         193.786         191.635         193.506 
       0.202534         184.681         184.723         186.737 
       0.208729         178.682         176.971         178.909 
       0.214876         171.367         168.438         171.101 
       0.220989         160.091         159.453         162.393 
       0.227147         153.852         150.483         153.466 
        0.23329         146.135         142.201         145.832 
       0.239377         139.614         135.058         139.051 
       0.245482         133.034         129.092         132.781 
       0.251667         127.427         124.141         128.182 
       0.257832         124.611         119.981         123.972 
       0.263955         119.556         116.224         120.058 
       0.270079         115.768         112.485         116.193 
        0.27624         111.032         108.524         112.066 
       0.282372          107.21         104.326         108.078 
        0.28843         104.529         100.021         103.859 
       0.294538         99.8575         95.7085         99.7941 
       0.300721          95.158          91.574         95.9867 
        0.30691         92.5288         87.8271         92.3351 
       0.313033         88.9029         84.5675         89.0043 
       0.319153         87.1162         81.7342         86.4384 
       0.325316         83.3008         79.2052         84.0742 
        0.33145         80.8905         76.8848         81.4971 
       0.337538         78.7908         74.6457          79.142 
       0.343633         76.6462         72.3856         76.9268 
       0.349808         74.1807         70.0403         74.7052 
       0.355968         71.7406         67.6642         72.7248 
       0.362074         70.0358         65.3292         70.2683 
       0.368217         67.8285         63.0649         67.7256 
       0.374374         66.3154         60.9424         65.8982 
       0.380519         63.5212          58.997         63.8635 
       0.386598         61.6932         57.2458         62.2096 
       0.392688         59.9667         55.6378         60.6504 
        0.39888         58.7837          54.107         59.0031 
       0.405048         57.4002         52.6453         57.4537 
       0.411186         55.8866         51.2154         56.3484 
       0.417313         54.3959         49.7918         54.6895 
       0.423458         52.7946         48.3722         53.3658 
       0.429607         51.8442         46.9695         51.8776 
       0.435692         50.7827         45.6198         50.6672 
       0.441815         48.9285         44.3225         49.6072 
       0.447964         47.4699         43.0925         48.2385 
       0.454126          46.642         41.9349         47.0139 
       0.460267         46.1055         40.8534         46.0592 
       0.466387         44.7791         39.8332          44.903 
        0.47254         44.0618         38.8479         43.9831 
       0.478662         42.7921         37.8955         42.9698 
       0.484765         41.8882         36.9664         42.0151 
       0.490885         40.7366           36.05         41.3193 
       0.497035         39.9472         35.1449         40.4558 
       0.503198         39.0538         34.2616         39.3436 
       0.509342         38.0373         33.4114         38.6044 
       0.515458         37.5215         32.5989         37.9809 
       0.521598         36.6528          31.818         36.9208 
       0.527764         36.1618         31.0693         36.0906 
       0.533884         35.1928         30.3591         35.4089 
           0.54         34.5232         29.6764          34.694 
       0.546137          33.527         29.0122          34.133 
       0.552299         32.9825         28.3618         33.3073 
       0.558452         32.3248         27.7281         32.6652 
       0.564573          31.927         27.1134         32.2361 
       0.570708         31.1433         26.5129         31.5936 
       0.576825         30.6561         25.9305         30.9839 
       0.582926         30.0786         25.3672          30.465 
       0.589034         29.5225          24.822         29.9717 
       0.595184         29.1261         24.2927         29.2463 
       0.601379          28.348          23.779         28.8862 
       0.607522          27.916         23.2865         28.3016 
       0.613639         27.3672         22.8106         27.7941 
       0.619772         26.9675         22.3462         27.3894 
       0.625918         26.3996         21.8923         26.9114 
       0.632068         26.1536         21.4498         26.3946 
       0.638161         25.6091         21.0228         25.9437 
         0.6443         25.1811         20.6042         25.4731 
       0.650464         24.5626         20.1957          25.161 
       0.656582         24.4085         19.8015         24.7345 
       0.662703          24.091          19.418         24.3019 
       0.668861         23.4512         19.0431         23.9893 
       0.675024         23.1366         18.6782         23.5189 
       0.681124         23.0169         18.3271         23.1608 
       0.687237         22.5466         17.9848         22.7306 
       0.693381         22.0146           17.65         22.3856 
       0.699536         21.9162         17.3232         22.0631 
       0.705665          21.507         17.0062         21.8407 
       0.711789         21.0946         16.6973         21.4464 
       0.717957           20.67         16.3938         21.0952 
        0.72409         20.4993         16.0994          20.828 
       0.730186         20.3502         15.8139         20.4787 
       0.736317         19.9258         15.5339         20.1776 
       0.742472         19.6736         15.2597         20.0138 
       0.748622         19.3664         14.9926         19.6624 
        0.75476         18.8861         14.7326         19.3464 
       0.760888         18.7788         14.4794         19.1094 
       0.767043         18.4318         14.2313         18.8917 
       0.773185         18.2223         13.9898         18.6364 
       0.779291         18.1055         13.7553          18.397 
       0.785407         17.7552         13.5259          18.121 
       0.791564         17.5787         13.3005         17.8924 
       0.797719         17.2272         13.0803         17.6011 
       0.803834         17.1151         12.8665         17.3659 
       0.809972          16.797         12.6568         17.2354 
       0.816124         16.6051         12.4513         16.9415 
       0.822261         16.4072          12.251          16.717 
       0.828378         16.1846         12.0558         16.5169 
       0.834502         16.0159         11.8647         16.3335 
       0.840667         15.8563         11.6765         16.1024 
       0.846816         15.5304         11.4931          15.937 
       0.852925         15.4116         11.3148         15.7943 
       0.859047         15.2213         11.1399         15.5599 
       0.865192         15.0103         10.9682         15.3651 
       0.871341         14.7929         10.8001         15.2136 
       0.877463         14.6445         10.6363         14.9979 
       0.883569         14.5206         10.4764         14.8557 
       0.889708         14.2888          10.319         14.6691 
       0.895864         14.1144         10.1645          14.476 
       0.902008         13.9273         10.0135         14.3378 
       0.908149         13.7505         9.86567         14.1731 
       0.914301         13.6641         9.72066         14.0437 
       0.920448         13.4573         9.57873         13.8216 
       0.926574         13.3787         9.44017         13.6922 
       0.932687          13.167         9.30468         13.4728 
       0.938823         12.9895         9.17139         13.3889 
       0.944975         12.8785         9.04045         13.2192 
       0.951105         12.7023         8.91257         13.0468 
       0.957225         12.6242          8.7874         12.9838 
       0.963368          12.464         8.66425         12.8065 
       0.969511         12.3224         8.54348         12.6928 
       0.975621         12.1816         8.42569         12.5081 
       0.981748         11.9972         8.30985         12.3949 
       0.987916         11.9041         8.19548         12.2867 
        0.99406         11.8237         8.08371         12.1593 
        1.00019         11.6993         7.97428         12.0605 
        1.00632         11.5828         7.86699          11.923 
        1.01246         11.4452         7.76155         11.8308 
        1.01859         11.3094         7.65823         11.6747 
        1.02471         11.1581         7.55694          11.528 
        1.03085         11.1214         7.45716         11.4305 
        1.03698         10.9969         7.35941         11.3362 
        1.04314         10.8787         7.26302         11.2105 
        1.04929         10.7175          7.1686         11.1131 
        1.05541         10.6544         7.07625         11.0176 
        1.06154         10.5561         6.98533         10.9069 
        1.06769         10.5044         6.89588         10.8179 
        1.07382         10.3172         6.80831         10.7143 
        1.07993         10.2116         6.72247         10.6101 
        1.08607         10.1628         6.63778         10.4901 
        1.09222         10.0226         6.55448         10.3905 
        1.09836         10.0081         6.47272         10.2883 
        1.10449         9.80759         6.39247         10.1996 
        1.11063         9.77877          6.3135         10.1103 
        1.11677         9.69059         6.23592          10.024 
         1.1229         9.60228         6.15978         9.94472 
        1.12903         9.53222         6.08487         9.87705 
        1.13518         9.38066         6.01115         9.78716 
        1.14131         9.31036         5.93871           9.676 
        1.14745         9.19496         5.86752         9.56415 
        1.15359         9.13161         5.79749         9.50712 
        1.15973         9.04307         5.72859         9.42788 
        1.16584         8.97247         5.66113         9.37363 
        1.17197         8.88477         5.59467           9.271 
        1.17811         8.80037         5.52908         9.18356 
        1.18424         8.72884         5.46475         9.11069 
        1.19038         8.66407         5.40127         9.03486 
        1.19652         8.60015         5.33883         8.97662 
        1.20267         8.52187         5.27739           8.867 
        1.20881         8.43627         5.21694         8.82472 
        1.21495         8.36428         5.15754         8.75095 
        1.22108         8.30873         5.09908         8.68186 
         1.2272         8.21558         5.04168           8.587 
        1.23334         8.19947         4.98504         8.53171 
        1.23949         8.09781         4.92914         8.48077 
        1.24562          8.0293         4.87427         8.40446 
        1.25174         7.97896         4.82031         8.32798 
        1.25789         7.86544         4.76702         8.26291 
        1.26402         7.83052         4.71464         8.18136 
        1.27014         7.77782         4.66318         8.13449 
        1.27628         7.68374         4.61234         8.08886 
        1.28244         7.66005         4.56216          8.0233 
        1.28858         7.60847         4.51281         7.95194 
        1.29471         7.49904          4.4643         7.89075 
        1.30084          7.4422         4.41656         7.84538 
        1.30697         7.40859         4.36945         7.77906 
        1.31312         7.34256         4.32296         7.72716 
        1.31925         7.28377         4.27731         7.67669 
        1.32537         7.23827         4.23237         7.62095 
        1.33151         7.17074         4.18791          7.5627 
        1.33765         7.11467         4.14413         7.49339 
        1.34378         7.08916         4.10107         7.45648 
        1.34992         7.02133         4.05859         7.39729 
        1.35606         6.96882         4.01664         7.32097 
         1.3622         6.91343         3.97535         7.27966 
        1.36833         6.85306         3.93475         7.25515 
        1.37445         6.79339         3.89474         7.19246 
        1.38059         6.75493         3.85517         7.13687 
        1.38675         6.69744         3.81606          7.0833 
        1.39288          6.6577         3.77766         7.04251 
        1.39901         6.59007          3.7398         6.99896 
        1.40515         6.55084         3.70238         6.94479 
         1.4113         6.50378          3.6655         6.89652 
        1.41742          6.4574         3.62926         6.85631 
        1.42355         6.40542         3.59345         6.79318 
         1.4297         6.37401         3.55801         6.76454 
        1.43585         6.32769         3.52308         6.72869 
        1.44198         6.27716         3.48875         6.65992 
        1.44809         6.24579         3.45495         6.63771 
        1.45423         6.19438         3.42147         6.58092 
        1.46036         6.15543          3.3885         6.53853 
        1.46649         6.10017         3.35596         6.50653 
        1.47263         6.07573         3.32383         6.46483 
        1.47877         6.02842         3.29213         6.41594 
        1.48491         5.99163          3.2608          6.3765 
        1.49104         5.94241         3.22995         6.33132 
        1.49718         5.91308         3.19947          6.2956 
        1.50333         5.86713         3.16935         6.26143 
        1.50947         5.81088         3.13968         6.22092 
         1.5156         5.79647         3.11043         6.18132 
        1.52172         5.75782         3.08156         6.14426 
        1.52787         5.71792           3.053         6.09722 
          1.534         5.67787         3.02484         6.05815 
        1.54013         5.63908         2.99706         6.02479 
        1.54627           5.604         2.96959         5.99189 
        1.55241         5.55842         2.94246         5.95385 
        1.55855         5.53763         2.91571         5.90652 
        1.56467         5.49614         2.88937         5.88557 
         1.5708         5.46021         2.86328         5.85208 
        1.57695         5.40919         2.83748         5.80924 
        1.58308         5.37646         2.81206         5.78513 
        1.58922         5.36026         2.78693         5.75185 
        1.59535         5.32103         2.76213         5.71277 
         1.6015         5.27654         2.73759         5.67485 
        1.60764         5.25526         2.71337         5.64852 
        1.61376         5.22156          2.6895         5.62503 
        1.61989         5.17382         2.66591          5.5878 
        1.62604         5.14934         2.64255         5.55255 
        1.63218         5.12339         2.61949          5.5246 
        1.63831         5.10329         2.59676         5.49404 
        1.64444         5.06051         2.57429         5.45589 
        1.65059         5.03646         2.55204         5.42814 
        1.65673         5.00115         2.53007         5.39959 
        1.66285           4.971         2.50843         5.36871 
        1.66898          4.9378         2.48703         5.33929 
        1.67512          4.9045         2.46584         5.31079 
        1.68127         4.87166         2.44489         5.28696 
         1.6874         4.86182         2.42422         5.25946 
        1.69353         4.80873         2.40381         5.22055 
        1.69967         4.79313         2.38359         5.19021 
        1.70581         4.76536         2.36361         5.17171 
        1.71193         4.73308         2.34393         5.15216 
        1.71806         4.70867         2.32444          5.1171 
        1.72421         4.67974         2.30514         5.08559 
        1.73035         4.64992         2.28608         5.05895 
        1.73649         4.62802         2.26723         5.03169 
        1.74262         4.60099         2.24862         5.00321 
        1.74876         4.57616         2.23021         4.98312 
        1.75489         4.55244         2.21204         4.95889 
        1.76101         4.51891         2.19408         4.92365 
        1.76715         4.50671          2.1763         4.89498 
        1.77329         4.47371          2.1587         4.87589 
        1.77943         4.44524         2.14128         4.85525 
        1.78557         4.42149         2.12408         4.82674 
        1.79171         4.40686         2.10707         4.80001 
        1.79785         4.37488         2.09025         4.77608 
        1.80399         4.34596         2.07361         4.75243 
        1.81012         4.32351         2.05718         4.73333 
        1.81625         4.30147         2.04093         4.71026 
        1.82239         4.27889         2.02484          4.6859 
        1.82853         4.25278         2.00892         4.67218 
        1.83466         4.22045          1.9932          4.6535 
        1.84078         4.20209         1.97766           4.623 
        1.84692         4.18131         1.96227         4.58916 
        1.85306         4.15951         1.94702         4.56627 
         1.8592         4.14291         1.93195         4.55059 
        1.86533         4.11496         1.91706         4.53069 
        1.87147         4.09676         1.90231         4.51187 
