# k  (h/Mpc)    P(k)  (Mpc/h)^3    P_linear(k)  (Mpc/h)^3     P_NL(k)  ShotnoiseSubtracted = false
     0.00783031         1833.94         1843.96         1843.03 
       0.013688          2435.1         2465.57         2457.06 
       0.019231         2647.78         2663.51          2649.8 
      0.0249154         2615.66         2616.26         2605.12 
      0.0312784         2398.78         2406.92         2399.06 
      0.0375637         2140.33         2152.99         2145.97 
      0.0433917         1937.64         1937.92          1931.7 
      0.0492413         1758.12         1765.83          1759.9 
      0.0555754         1629.18         1628.83         1622.41 
      0.0619321         1505.84         1526.72         1519.92 
       0.067871         1434.97         1444.14         1436.75 
      0.0738098          1352.5         1358.89         1349.28 
      0.0800417         1255.78         1258.74         1249.51 
      0.0862327         1143.69         1149.76         1142.98 
      0.0921407         1038.74         1044.42         1038.41 
      0.0982031         944.564         944.376         941.336 
       0.104506         850.783         856.804         856.194 
       0.110769         785.443         789.647         787.789 
       0.116806         745.662         742.126         740.177 
       0.122832         704.215         706.841           705.6 
       0.129052         676.663         676.763         675.471 
       0.135211          650.89         647.345         646.196 
       0.141259         614.438         615.051         614.858 
       0.147318         573.319          578.37         579.872 
       0.153489         537.372         538.172         538.108 
       0.159709         502.041         497.976          499.99 
       0.165845          459.98         461.883         467.326 
       0.171974         439.163         431.563         436.975 
       0.178125         416.111         407.546          415.34 
       0.184229         393.105         389.281         397.234 
        0.19034         382.608         374.783         382.594 
       0.196428         369.631         361.986         368.148 
       0.202534         350.865         348.929         355.623 
       0.208729          340.95         334.287         340.634 
       0.214876         327.671         318.167         326.959 
       0.220989         305.314         301.196         310.923 
       0.227147         295.211         284.252         294.192 
        0.23329         281.352         268.608          280.69 
       0.239377         270.111         255.115         268.308 
       0.245482         256.951         243.847          256.05 
       0.251667           246.3         234.494         247.892 
       0.257832         242.105         226.635          239.88 
       0.263955         231.225         219.539         232.344 
       0.270079         224.029         212.476         224.936 
        0.27624         214.734         204.995         216.954 
       0.282372         207.996         197.065         209.612 
        0.28843         204.317         188.933         201.691 
       0.294538          194.95         180.787         194.422 
       0.300721         186.058         172.977         187.693 
        0.30691         181.874         165.899         181.016 
       0.313033         174.646         159.741         174.589 
       0.319153         171.503         154.391         170.018 
       0.325316         164.583         149.613          165.81 
        0.33145         159.967          145.23         160.572 
       0.337538         155.648         141.001         156.028 
       0.343633         151.303         136.732         152.115 
       0.349808         146.736         132.301         148.056 
       0.355968         142.393         127.813         144.544 
       0.362074         139.443         123.402         139.922 
       0.368217         135.624         119.125         134.904 
       0.374374         132.724         115.116         131.681 
       0.380519         127.015         111.441         127.823 
       0.386598         123.838         108.134         124.701 
       0.392688         120.547         105.096         121.948 
        0.39888         118.378         102.204           118.6 
       0.405048         115.776         99.4434         115.925 
       0.411186         113.175         96.7422         113.886 
       0.417313         110.227         94.0532         110.426 
       0.423458          107.36         91.3721         108.022 
       0.429607         105.576          88.722         105.259 
       0.435692         103.645         86.1727         103.034 
       0.441815         100.051         83.7221         101.303 
       0.447964         97.2085         81.3988         98.5917 
       0.454126         95.4871         79.2118         96.1479 
       0.460267         94.7541         77.1693         94.5489 
       0.466387         92.2868         75.2422         92.3131 
        0.47254         91.1265         73.3811         90.6526 
       0.478662         88.2555         71.5819          88.708 
       0.484765          86.683         69.8272         86.7055 
       0.490885         84.4647         68.0959         85.4977 
       0.497035         83.5329         66.3862         83.9808 
       0.503198         81.4515         64.7178         81.8862 
       0.509342         79.4795         63.1118         80.5403 
       0.515458         78.5987         61.5771         79.5428 
       0.521598         76.7434          60.102         77.3657 
       0.527764         75.8719         58.6877         75.5796 
       0.533884          74.542         57.3463         74.3603 
           0.54         72.9168         56.0566         73.0915 
       0.546137         70.9088          54.802         72.1342 
       0.552299         69.8801         53.5734         70.4947 
       0.558452         68.5712         52.3765         69.1838 
       0.564573         68.1309         51.2153         68.3864 
       0.570708          66.173          50.081         67.1836 
       0.576825         65.4605          48.981         66.0392 
       0.582926         64.5206         47.9169         64.9985 
       0.589034         63.3644         46.8868         64.1191 
       0.595184          62.521         45.8872          62.866 
       0.601379         60.8812         44.9169          62.106 
       0.607522         60.1172         43.9865         60.8128 
       0.613639         59.3128         43.0877         59.9463 
       0.619772         58.3461         42.2103          59.047 
       0.625918         57.2943          41.353         58.3929 
       0.632068         56.8371         40.5171         57.2484 
       0.638161         55.6796         39.7106         56.4679 
         0.6443         55.0263         38.9199         55.4832 
       0.650464         53.7572         38.1482         54.7918 
       0.656582         53.4709         37.4036         54.1053 
       0.662703         52.8825         36.6793         53.1542 
       0.668861         51.6097          35.971         52.5778 
       0.675024           51.17         35.2818         51.6777 
       0.681124         50.6641         34.6187         50.9568 
       0.687237         49.6964         33.9721         50.1789 
       0.693381         48.9205         33.3396         49.5156 
       0.699536         48.6782         32.7224         49.0257 
       0.705665         47.8082         32.1236         48.4754 
       0.711789         47.0271         31.5401         47.5669 
       0.717957         46.2161         30.9667         47.0815 
        0.72409         45.8289         30.4106         46.5953 
       0.730186         45.5979         29.8714         45.8895 
       0.736317         44.7524         29.3425         45.2796 
       0.742472         44.2377         28.8245         44.8837 
       0.748622         43.5493         28.3199         44.1653 
        0.75476         42.6145         27.8288         43.6536 
       0.760888         42.5133         27.3506         43.1867 
       0.767043         41.8196          26.882         42.7769 
       0.773185         41.4945         26.4257         42.2391 
       0.779291         41.0259         25.9828         41.8095 
       0.785407         40.3583         25.5496         41.2458 
       0.791564         40.2137         25.1236         40.7642 
       0.797719         39.4619         24.7077         40.2963 
       0.803834         39.2268         24.3039         39.7796 
       0.809972         38.5844         23.9078         39.4618 
       0.816124         38.2026         23.5197         38.9352 
       0.822261         37.7965         23.1413         38.4229 
       0.828378          37.462         22.7725         37.9983 
       0.834502         37.1009         22.4116         37.8128 
       0.840667         36.7374         22.0562         37.2512 
       0.846816         35.9886         21.7096         36.9199 
       0.852925         35.9426         21.3728          36.761 
       0.859047         35.5274         21.0425         36.1316 
       0.865192         35.0499         20.7182         35.7801 
       0.871341         34.6528         20.4007         35.5082 
       0.877463         34.3624         20.0913         35.0981 
       0.883569         34.1933         19.7892         34.8377 
       0.889708         33.6989         19.4919         34.3785 
       0.895864         33.3053            19.2         34.0285 
       0.902008         32.9028         18.9148         33.7485 
       0.908149         32.6196         18.6356         33.4653 
       0.914301         32.4577         18.3616         33.2422 
       0.920448         31.9976         18.0935          32.783 
       0.926574         31.6705         17.8318          32.446 
       0.932687         31.3752         17.5759          32.115 
       0.938823         31.0194         17.3241         31.8575 
       0.944975         30.7617         17.0768         31.5245 
       0.951105         30.4702         16.8352         31.1854 
       0.957225         30.3225         16.5988         31.0269 
       0.963368         29.8726         16.3662         30.6729 
       0.969511         29.6293          16.138         30.4433 
       0.975621         29.3567         15.9155         30.1468 
       0.981748          29.028         15.6967         29.9532 
       0.987916         28.8596         15.4807         29.6119 
        0.99406         28.5601         15.2696         29.3777 
        1.00019         28.3407         15.0629          29.139 
        1.00632         28.0923         14.8602         28.9339 
        1.01246         27.9048          14.661         28.7627 
        1.01859         27.5536         14.4659         28.4447 
        1.02471         27.3053         14.2745         28.1731 
        1.03085         27.2168          14.086         27.9694 
        1.03698         26.9569         13.9014         27.7345 
        1.04314         26.6614         13.7193         27.4481 
        1.04929         26.3771          13.541         27.2886 
        1.05541         26.2933         13.3665         27.1236 
        1.06154          26.108         13.1948         26.8186 
        1.06769         25.8314         13.0258         26.6145 
        1.07382         25.5212         12.8604         26.4567 
        1.07993         25.3166         12.6983         26.2279 
        1.08607         25.2077         12.5383         26.0059 
        1.09222         24.9374         12.3809         25.8357 
        1.09836         24.8079         12.2265         25.6059 
        1.10449         24.5675         12.0749         25.4002 
        1.11063         24.4257         11.9258         25.2668 
        1.11677         24.3089         11.7792         25.0225 
         1.1229         24.0642         11.6354          24.859 
        1.12903         23.9191         11.4939         24.7297 
        1.13518         23.6521         11.3546         24.4887 
        1.14131          23.539         11.2178         24.3073 
        1.14745         23.2248         11.0833         24.1257 
        1.15359         23.0606         10.9511         23.9715 
        1.15973         22.8731         10.8209         23.7998 
        1.16584         22.7162         10.6935         23.6983 
        1.17197          22.518         10.5679         23.5182 
        1.17811          22.367         10.4441         23.2806 
        1.18424         22.2224         10.3225         23.1647 
        1.19038         22.1062         10.2026         23.0003 
        1.19652         21.9069         10.0847         22.8162 
        1.20267         21.7673         9.96862         22.6596 
        1.20881         21.5721         9.85443         22.5898 
        1.21495         21.4078         9.74223         22.4144 
        1.22108          21.386         9.63181         22.2478 
         1.2272         21.2023         9.52338         22.0679 
        1.23334         21.0531         9.41639          21.977 
        1.23949         20.8897          9.3108         21.8071 
        1.24562         20.6989         9.20715         21.6395 
        1.25174          20.602         9.10524         21.5336 
        1.25789         20.4305         9.00457         21.3808 
        1.26402         20.3558         8.90562         21.2089 
        1.27014         20.2314         8.80842         21.1018 
        1.27628         19.9926         8.71238         20.9658 
        1.28244          19.998          8.6176         20.8949 
        1.28858          19.783         8.52438         20.7007 
        1.29471         19.5545         8.43275          20.569 
        1.30084         19.4652         8.34257         20.5189 
        1.30697         19.4409         8.25358          20.345 
        1.31312         19.2299         8.16578         20.2077 
        1.31925         19.1425         8.07954           20.14 
        1.32537          19.011         7.99464         20.0342 
        1.33151         18.8832         7.91067         19.8729 
        1.33765         18.7797         7.82797         19.7438 
        1.34378         18.7017         7.74663          19.657 
        1.34992         18.5452          7.6664         19.5354 
        1.35606         18.3879         7.58714         19.3876 
         1.3622         18.2522         7.50916          19.288 
        1.36833         18.2105         7.43246         19.2273 
        1.37445         18.1188         7.35689         19.0753 
        1.38059         18.0083         7.28215         18.9371 
        1.38675         17.8638         7.20827         18.8683 
        1.39288         17.7136         7.13573         18.7429 
        1.39901         17.6581         7.06422          18.657 
        1.40515         17.5217         6.99354         18.5645 
         1.4113         17.4154         6.92387         18.4623 
        1.41742          17.343         6.85541         18.3553 
        1.42355         17.1822         6.78777         18.2228 
         1.4297         17.1213         6.72084         18.1654 
        1.43585         17.0317         6.65485         18.0816 
        1.44198         16.9446            6.59         17.9589 
        1.44809           16.84         6.52615         17.8842 
        1.45423         16.7121         6.46292         17.7834 
        1.46036         16.6368         6.40064         17.6671 
        1.46649         16.5251         6.33917         17.5711 
        1.47263         16.4645         6.27847         17.5047 
        1.47877          16.365          6.2186          17.434 
        1.48491         16.2658         6.15942          17.289 
        1.49104         16.1545         6.10114         17.2247 
        1.49718         16.0983         6.04358         17.1451 
        1.50333         15.9954         5.98668         17.0572 
        1.50947         15.9025         5.93063           16.98 
         1.5156         15.8385         5.87538         16.8911 
        1.52172         15.7427         5.82085         16.7869 
        1.52787         15.6438          5.7669         16.6913 
          1.534         15.5915         5.71371         16.6168 
        1.54013         15.5041         5.66124         16.5074 
        1.54627         15.4004         5.60935         16.4253 
        1.55241         15.2849          5.5581         16.3838 
        1.55855         15.2623         5.50757         16.3038 
        1.56467          15.157         5.45782         16.2082 
         1.5708         15.1054         5.40854         16.1575 
        1.57695         14.9931          5.3598         16.0869 
        1.58308         14.8934         5.31178          15.995 
        1.58922         14.8432         5.26432         15.9392 
        1.59535         14.7345         5.21746         15.8476 
         1.6015         14.6289         5.17112          15.764 
        1.60764         14.5991         5.12536         15.6961 
        1.61376         14.5483         5.08028         15.6198 
        1.61989         14.4208         5.03572         15.5609 
        1.62604         14.3935          4.9916         15.5007 
        1.63218         14.3241         4.94803         15.4168 
        1.63831         14.2245         4.90509         15.3372 
        1.64444          14.133         4.86265         15.2845 
        1.65059         14.0571         4.82061         15.1925 
        1.65673          14.015         4.77912         15.1347 
        1.66285         13.9384         4.73824          15.085 
        1.66898         13.8778         4.69782          15.002 
        1.67512         13.8016         4.65781         14.9378 
        1.68127         13.6959         4.61822         14.8579 
         1.6874         13.6694         4.57919         14.7823 
        1.69353         13.5923         4.54063         14.7456 
        1.69967         13.5157         4.50243         14.6839 
        1.70581         13.4496         4.46469          14.621 
        1.71193         13.4149         4.42752         14.5607 
        1.71806         13.3583         4.39071         14.4832 
        1.72421         13.2474         4.35424         14.4348 
        1.73035         13.1935         4.31824         14.3646 
        1.73649         13.1571         4.28265         14.2782 
        1.74262         13.0272         4.24749         14.2597 
        1.74876         13.0346         4.21271          14.199 
        1.75489         12.9525         4.17839         14.1061 
        1.76101         12.8742         4.14447         14.0402 
        1.76715         12.8369         4.11088         14.0046 
        1.77329         12.7752         4.07762         13.9454 
        1.77943         12.6847         4.04472         13.8807 
        1.78557         12.6714         4.01224         13.8404 
        1.79171         12.5981         3.98011          13.775 
        1.79785         12.5633         3.94833         13.7012 
        1.80399         12.4479          3.9169         13.6569 
        1.81012         12.4286         3.88586         13.6155 
        1.81625         12.3297         3.85517         13.5699 
        1.82239         12.2789         3.82477         13.5143 
        1.82853         12.2279         3.79472         13.4413 
        1.83466         12.1469         3.76501         13.3942 
        1.84078          12.136         3.73566         13.3578 
        1.84692         12.0803         3.70658         13.2805 
        1.85306         12.0278         3.67778         13.2333 
         1.8592         11.9813         3.64932         13.2041 
        1.86533         11.9199         3.62119         13.1364 
        1.87147         11.8449         3.59332         13.0768 
        1.87761         11.8093         3.56574         13.0311 
