# k  (h/Mpc)    Pcb(k)  (Mpc/h)^3    Pcb_linear(k) (Mpc/h)^3    Pcb_NL(k) (Mpc/h)^3   ShotnoiseSubtracted = false
     0.00783031         2551.08         2564.36         2563.13 
       0.013688         3381.69         3428.65         3416.28 
       0.019231          3678.6         3703.82         3683.63 
      0.0249154          3637.5         3638.07         3620.66 
      0.0312784         3332.51         3346.94         3333.13 
      0.0375637         2971.31         2993.83         2980.79 
      0.0433917         2691.88         2694.75         2682.29 
      0.0492413         2440.63         2455.45         2443.29 
      0.0555754         2262.66         2264.93         2252.15 
      0.0619321         2086.59         2122.95         2109.48 
       0.067871         1990.41         2008.11         1993.93 
      0.0738098         1876.79         1889.57         1871.33 
      0.0800417         1742.75          1750.3          1732.7 
      0.0862327          1586.6         1598.76         1585.68 
      0.0921407         1441.33         1452.29          1440.4 
      0.0982031         1311.97         1313.18         1306.78 
       0.104506         1180.76          1191.4         1189.51 
       0.110769         1090.54         1098.02         1093.82 
       0.116806         1037.08         1031.94          1027.7 
       0.122832         978.297         982.876         980.006 
       0.129052         940.019         941.053          938.18 
       0.135211         905.491         900.147         897.545 
       0.141259          853.81          855.24         854.479 
       0.147318         795.749         804.234         806.531 
       0.153489         746.855         748.339         747.718 
       0.159709         699.736         692.446          695.67 
       0.165845          640.14         642.257         651.791 
       0.171974         613.494         600.096         609.678 
       0.178125         582.322         566.701          580.72 
       0.184229         548.603         541.302         555.511 
        0.19034         534.908         521.143         535.153 
       0.196428         517.285         503.348         514.449 
       0.202534         489.924         485.193         497.315 
       0.208729         477.348         464.832         476.187 
       0.214876         459.145         442.417         458.231 
       0.220989         427.544         418.819         436.403 
       0.227147         414.715         395.257         413.343 
        0.23329         396.083         373.504         395.454 
       0.239377         381.618         354.742         378.583 
       0.245482         362.741         339.073         361.158 
       0.251667         347.984         326.067         350.334 
       0.257832         343.005          315.14         339.138 
       0.263955         326.796         305.273         328.572 
       0.270079         316.729         295.451         318.223 
        0.27624         303.557         285.049         306.996 
       0.282372         294.731         274.022         296.916 
        0.28843         290.658         262.714         285.919 
       0.294538         277.052         251.387         276.221 
       0.300721         264.953         240.527         267.275 
        0.30691         259.696         230.686         258.298 
       0.313033         249.283         222.124         249.226 
       0.319153         244.913         214.682         243.036 
       0.325316         236.012          208.04         237.444 
        0.33145         229.698         201.945         229.787 
       0.337538         223.188         196.064         223.448 
       0.343633         216.761         190.127          218.39 
       0.349808          210.53         183.967         212.876 
       0.355968         204.848         177.726         208.048 
       0.362074         200.657         171.593         201.709 
       0.368217         195.864         165.646         194.637 
       0.374374         191.669         160.071         190.257 
       0.380519         183.521         154.961         184.936 
       0.386598         179.455         150.361         180.599 
       0.392688         174.905         146.138         176.921 
        0.39888         171.679         142.117         172.121 
       0.405048         168.115         138.278         168.786 
       0.411186         164.932         134.522         165.691 
       0.417313          160.82         130.783         160.679 
       0.423458         156.837         127.054         157.371 
       0.429607         154.203          123.37         153.668 
       0.435692         151.365         119.825         150.558 
       0.441815         146.762         116.417         148.373 
       0.447964         142.663         113.186         144.573 
       0.454126          140.08         110.146         141.013 
       0.460267         139.098         107.305         139.005 
       0.466387         135.823         104.626          135.88 
        0.47254         134.277         102.038          133.58 
       0.478662         129.923         99.5359         130.868 
       0.484765         127.924         97.0957         127.861 
       0.490885          125.01         94.6886         126.205 
       0.497035         124.042         92.3112         124.229 
       0.503198          120.97         89.9911          121.45 
       0.509342         118.069         87.7582         119.567 
       0.515458         116.858          85.624          118.29 
       0.521598         114.077         83.5728         115.216 
       0.527764         112.868         81.6062         112.572 
       0.533884         111.593          79.741         110.958 
           0.54         108.901         77.9477         109.283 
       0.546137         106.153         76.2031         107.996 
       0.552299         104.775         74.4948         105.656 
       0.558452         102.866         72.8305         103.775 
       0.564573         102.429         71.2157         102.663 
       0.570708         99.4108         69.6385         100.973 
       0.576825         98.4353         68.1089         99.3366 
       0.582926         97.2615         66.6293         97.8029 
       0.589034         95.6435         65.1971         96.6653 
       0.595184         94.4131         63.8068         95.0621 
       0.601379         91.9813         62.4576         93.9571 
       0.607522         90.8845         61.1641          91.975 
       0.613639         89.9321         59.9141         90.9088 
       0.619772         88.4548         58.6942         89.4696 
       0.625918         87.1782         57.5021         88.7453 
       0.632068          86.225         56.3397         87.0415 
       0.638161         84.5735         55.2183          86.107 
         0.6443         83.8882         54.1188         84.6211 
       0.650464         82.1617         53.0457         83.4102 
       0.656582         81.7559         52.0103         82.6692 
       0.662703         80.8148         51.0032         81.2164 
       0.668861         79.0274         50.0183         80.4147 
       0.675024         78.6566           49.06         79.2094 
       0.681124         77.6218         48.1379         78.1548 
       0.687237         76.0895         47.2388         77.0879 
       0.693381         75.4054         46.3593         76.1048 
       0.699536         74.8034         45.5011         75.5799 
       0.705665         73.5154         44.6684         74.7337 
       0.711789          72.463          43.857         73.2839 
       0.717957         71.4555         43.0597         72.7687 
        0.72409         70.8686         42.2865         72.1697 
       0.730186         70.4235         41.5367         71.1181 
       0.736317         69.1787         40.8012         70.1787 
       0.742472         68.4723          40.081         69.5159 
       0.748622         67.4357         39.3793         68.5493 
        0.75476         66.3451         38.6965          67.877 
       0.760888         66.2013         38.0314         67.1536 
       0.767043         65.0602         37.3799         66.6444 
       0.773185         64.5645         36.7453         65.9243 
       0.779291         63.7777         36.1295         65.2665 
       0.785407         62.7976         35.5271         64.4046 
       0.791564         62.7832         34.9348          63.686 
       0.797719          61.857         34.3565         63.1373 
       0.803834         61.2739          33.795         62.3852 
       0.809972         60.5262         33.2441         61.8518 
       0.816124         59.9422         32.7045         61.2143 
       0.822261         59.2362         32.1784         60.4023 
       0.828378         58.8899         31.6656         59.7044 
       0.834502         58.2155         31.1636          59.576 
       0.840667         57.7502         30.6695         58.7739 
       0.846816          56.753         30.1876         58.2662 
       0.852925         56.6464         29.7192         57.9947 
       0.859047          56.129           29.26         57.0892 
       0.865192         55.2925          28.809         56.6235 
       0.871341         54.7583         28.3675          56.189 
       0.877463           54.37         27.9373         55.6428 
       0.883569         54.1188         27.5172         55.2986 
       0.889708         53.5008         27.1038         54.5994 
       0.895864         52.9115         26.6979         54.1282 
       0.902008         52.3148         26.3013         53.7025 
       0.908149         51.9912         25.9131         53.3009 
       0.914301          51.644         25.5322         52.9663 
       0.920448         51.1098         25.1594         52.3417 
       0.926574          50.336         24.7954         51.7885 
       0.932687         50.0564         24.4396         51.4586 
       0.938823         49.5363         24.0895         50.9734 
       0.944975         49.1331         23.7455         50.4526 
       0.951105         48.6817         23.4096         50.1487 
       0.957225         48.5087         23.0809          49.751 
       0.963368         47.8871         22.7574         49.2705 
       0.969511         47.5471         22.4402         48.9077 
       0.975621         47.1198         22.1308         48.5933 
       0.981748         46.6293         21.8266         48.2359 
       0.987916          46.357         21.5261         47.7467 
        0.99406            45.9         21.2326         47.4497 
        1.00019         45.5866         20.9452         47.0627 
        1.00632         45.2206         20.6634         46.7778 
        1.01246         44.9162         20.3864         46.4455 
        1.01859          44.448          20.115          46.037 
        1.02471         44.0371          19.849         45.7015 
        1.03085         43.9258         19.5869         45.3633 
        1.03698         43.5234         19.3301         44.9914 
        1.04314         43.1831          19.077         44.5554 
        1.04929         42.7334          18.829         44.3668 
        1.05541         42.5614         18.5864         44.1685 
        1.06154         42.3421         18.3476         43.6451 
        1.06769         41.7573         18.1126         43.3561 
        1.07382         41.5279         17.8826         43.1587 
        1.07993         41.1503         17.6572         42.7479 
        1.08607         40.9216         17.4347         42.4537 
        1.09222         40.6198         17.2159         42.2553 
        1.09836         40.3014         17.0012         41.9323 
        1.10449         40.0806         16.7904         41.5695 
        1.11063         39.7585          16.583         41.4013 
        1.11677          39.686         16.3792         41.0695 
         1.1229         39.2724         16.1792         40.7657 
        1.12903         39.0599         15.9824         40.5369 
        1.13518         38.8205         15.7888         40.1515 
        1.14131          38.493         15.5985         39.9537 
        1.14745         38.0506         15.4116         39.7337 
        1.15359         37.7808         15.2276         39.5061 
        1.15973         37.5269         15.0466         39.2515 
        1.16584         37.3108         14.8695         39.0332 
        1.17197         36.9274         14.6949         38.7421 
        1.17811         36.7578         14.5226         38.3732 
        1.18424         36.4313         14.3537         38.2255 
        1.19038         36.2778         14.1869         38.0641 
        1.19652         36.0277         14.0229          37.716 
        1.20267         35.8135         13.8615         37.5377 
        1.20881         35.5801         13.7028         37.3634 
        1.21495         35.3195         13.5467         37.1789 
        1.22108         35.2652         13.3932         36.8587 
         1.2272         35.0186         13.2424         36.6619 
        1.23334         34.7574         13.0936         36.5024 
        1.23949         34.5006         12.9468         36.1948 
        1.24562          34.174         12.8027         36.0003 
        1.25174         34.0344          12.661          35.827 
        1.25789         33.8995          12.521         35.5834 
        1.26402         33.7063         12.3834         35.3607 
        1.27014         33.4606         12.2482         35.1877 
        1.27628         33.1476         12.1147         34.9487 
        1.28244         33.1284         11.9829         34.8818 
        1.28858         32.7818         11.8533         34.5756 
        1.29471         32.5726         11.7259         34.3777 
        1.30084          32.354         11.6005         34.2641 
        1.30697         32.2465         11.4767         34.0024 
        1.31312         31.9555         11.3546         33.8092 
        1.31925         31.7915         11.2347         33.6906 
        1.32537         31.5936         11.1167         33.5438 
        1.33151         31.4029         10.9999         33.3204 
        1.33765         31.3185         10.8849         33.1549 
        1.34378         31.1026         10.7718         32.9896 
        1.34992         30.9333         10.6603          32.814 
        1.35606         30.7164           10.55         32.6196 
         1.3622         30.4514         10.4416         32.4731 
        1.36833         30.3623          10.335          32.332 
        1.37445         30.2312         10.2299         32.0867 
        1.38059         30.0188         10.1259          31.901 
        1.38675         29.7632         10.0232         31.7918 
        1.39288         29.6447         9.92235         31.6168 
        1.39901         29.4877         9.82292           31.48 
        1.40515         29.3358         9.72464         31.3288 
         1.4113         29.2172         9.62775         31.1818 
        1.41742         29.0572         9.53257         31.0269 
        1.42355         28.8237          9.4385         30.7724 
         1.4297         28.6571         9.34544         30.6765 
        1.43585          28.511         9.25367         30.5859 
        1.44198         28.3913          9.1635         30.3985 
        1.44809          28.232         9.07472         30.2794 
        1.45423         28.0769         8.98679         30.1005 
        1.46036          27.925          8.9002         29.9249 
        1.46649         27.7421         8.81473         29.7862 
        1.47263         27.6272         8.73032         29.6929 
        1.47877          27.539         8.64707          29.613 
        1.48491         27.3574         8.56478         29.3507 
        1.49104         27.1756         8.48374         29.2609 
        1.49718         27.0565          8.4037         29.1471 
        1.50333         26.9524         8.32457         29.0177 
        1.50947         26.7975         8.24663         28.9065 
         1.5156         26.6415         8.16982         28.7567 
        1.52172         26.4707         8.09398         28.5706 
        1.52787          26.319         8.01897         28.4363 
          1.534         26.2714           7.945         28.3227 
        1.54013         26.1407         7.87205          28.139 
        1.54627         25.9478         7.79989         28.0108 
        1.55241         25.8151         7.72864         27.9517 
        1.55855         25.7016         7.65837         27.8297 
        1.56467         25.6296         7.58919         27.6787 
         1.5708         25.4996         7.52067         27.5909 
        1.57695         25.3227          7.4529         27.4722 
        1.58308          25.134         7.38612         27.3291 
        1.58922          25.042         7.32013         27.2563 
        1.59535          24.895         7.25497         27.1407 
         1.6015          24.768         7.19052         26.9972 
        1.60764         24.6836          7.1269         26.8555 
        1.61376         24.6038         7.06422         26.7276 
        1.61989         24.4124         7.00225         26.6392 
        1.62604          24.333          6.9409         26.5892 
        1.63218         24.2023         6.88032         26.4678 
        1.63831          24.076         6.82061         26.3034 
        1.64444         23.9678          6.7616         26.2241 
        1.65059         23.8331         6.70314         26.0975 
        1.65673         23.7624         6.64545         26.0051 
        1.66285           23.59          6.5886         25.9164 
        1.66898         23.5346          6.5324         25.7775 
        1.67512         23.4561         6.47676         25.6526 
        1.68127         23.2743         6.42171         25.5385 
         1.6874          23.207         6.36743          25.429 
        1.69353         23.0432         6.31382         25.3305 
        1.69967         22.9397          6.2607         25.2543 
        1.70581         22.8777         6.20822         25.1828 
        1.71193          22.684         6.15655         25.0808 
        1.71806         22.6536         6.10535         24.9394 
        1.72421         22.5488         6.05465         24.8639 
        1.73035         22.4049         6.00458          24.758 
        1.73649          22.322         5.95509         24.6125 
        1.74262         22.1809         5.90621         24.5647 
        1.74876         22.1073         5.85784         24.4729 
        1.75489         22.0257         5.81012         24.3437 
        1.76101         21.9169         5.76295         24.2434 
        1.76715         21.8039         5.71624         24.1614 
        1.77329         21.7108            5.67         24.0499 
        1.77943         21.5828         5.62426         23.9655 
        1.78557         21.5341         5.57909         23.9398 
        1.79171         21.3943         5.53441         23.8331 
        1.79785         21.3387         5.49021         23.7038 
        1.80399         21.2129         5.44651         23.6491 
        1.81012         21.1457         5.40335         23.5381 
        1.81625         20.9914         5.36068         23.4488 
        1.82239         20.9166         5.31841         23.4024 
        1.82853         20.8496         5.27662         23.2857 
        1.83466         20.7136         5.23532         23.1801 
        1.84078         20.6784          5.1945         23.1102 
        1.84692         20.6131         5.15406         23.0217 
        1.85306         20.4957         5.11401         22.9298 
         1.8592         20.4084         5.07444         22.8476 
        1.86533         20.2455         5.03532         22.7712 
        1.87147         20.1884         4.99657         22.7025 
