# k  (h/Mpc)    Pcb(k)  (Mpc/h)^3    Pcb_linear(k) (Mpc/h)^3    Pcb_NL(k) (Mpc/h)^3   ShotnoiseSubtracted = false
     0.00783031         3159.78         3175.64         3174.12 
       0.013688          4183.3         4245.84         4229.93 
       0.019231         4551.94         4586.53         4560.32 
      0.0249154         4504.27         4505.06         4481.42 
      0.0312784         4123.31         4144.52         4124.29 
      0.0375637         3674.34         3707.25         3687.62 
      0.0433917          3330.5         3336.88         3317.38 
      0.0492413         3017.89         3040.56         3021.31 
      0.0555754         2798.56         2804.64         2784.67 
      0.0619321         2576.38         2628.82         2607.84 
       0.067871         2459.33         2486.61         2464.87 
      0.0738098          2319.7         2339.83         2312.01 
      0.0800417         2154.01         2167.38         2140.45 
      0.0862327         1960.52         1979.72         1959.59 
      0.0921407          1781.4         1798.35         1779.82 
      0.0982031         1622.75         1626.08         1615.77 
       0.104506          1459.7          1475.3         1471.73 
       0.110769         1348.62         1359.66         1352.67 
       0.116806         1284.04         1277.84         1270.86 
       0.122832         1210.34         1217.08         1212.19 
       0.129052         1162.78         1165.29         1160.47 
       0.135211         1121.31         1114.64         1110.21 
       0.141259         1056.39         1059.03         1057.43 
       0.147318         983.799         995.868         998.725 
       0.153489         924.278         926.654         925.199 
       0.159709         867.912         857.442          861.73 
       0.165845          793.24         795.295         808.918 
       0.171974          762.24         743.087         756.925 
       0.178125         724.633         701.735         722.189 
       0.184229         681.159         670.284         690.885 
        0.19034         665.055         645.322           665.7 
       0.196428          643.67         623.287         639.523 
       0.202534         608.714         600.805         618.591 
       0.208729         594.201         575.592         592.091 
       0.214876          571.77         547.837          570.87 
       0.220989         532.468         518.615         544.347 
       0.227147         517.511          489.44         516.057 
        0.23329         494.986         462.503         494.733 
       0.239377         478.298         439.271          474.12 
       0.245482         454.451         419.867         452.221 
       0.251667         436.263         403.763         439.308 
       0.257832         430.776         390.232         425.392 
       0.263955         409.836         378.014         412.262 
       0.270079         397.311         365.852         399.439 
        0.27624         380.791         352.971         385.462 
       0.282372         370.436         339.316         373.084 
        0.28843         366.174         325.314         359.478 
       0.294538         348.749         311.288         347.851 
       0.300721           334.2          297.84          337.11 
        0.30691         328.094         285.654         326.352 
       0.313033          314.86         275.052         314.997 
       0.319153         309.365         265.837         307.414 
       0.325316         299.217         257.612         300.748 
        0.33145         291.609         250.064         290.908 
       0.337538         282.991         242.782         283.104 
       0.343633         274.661         235.431         277.268 
       0.349808         267.073         227.803         270.553 
       0.355968           260.4         220.075         264.556 
       0.362074         254.882          212.48         256.809 
       0.368217         249.567         205.116         248.025 
       0.374374         244.203         198.212         242.631 
       0.380519         234.011         191.885         236.116 
       0.386598         229.333          186.19         230.805 
       0.392688          223.79         180.959         226.306 
        0.39888         219.401         175.981         220.338 
       0.405048         215.096         171.226         216.602 
       0.411186         211.658         166.576         212.345 
       0.417313         206.633         161.946         206.049 
       0.423458         201.547         157.329         201.964 
       0.429607          198.05         152.766         197.523 
       0.435692         194.313         148.376         193.628 
       0.441815         189.196         144.157         191.103 
       0.447964         183.959         140.156          186.43 
       0.454126         180.673         136.391         181.858 
       0.460267         179.312         132.874         179.578 
       0.466387         175.437         129.556         175.695 
        0.47254         173.492         126.351         172.814 
       0.478662         167.889         123.253         169.446 
       0.484765         165.582         120.232         165.531 
       0.490885         162.277         117.251         163.473 
       0.497035         161.118         114.307         161.146 
       0.503198         157.416         111.434         157.863 
       0.509342         153.559         108.669         155.514 
       0.515458         152.076         106.026         154.002 
       0.521598         148.453         103.487         150.205 
       0.527764         146.917         101.051         146.867 
       0.533884         145.839         98.7416         144.933 
           0.54         142.168         96.5211         142.898 
       0.546137         138.801         94.3607         141.318 
       0.552299          137.23         92.2454         138.373 
       0.558452         134.765         90.1845         136.034 
       0.564573         134.265         88.1849         134.677 
       0.570708         130.457         86.2319         132.547 
       0.576825         129.113         84.3379         130.407 
       0.582926         127.722         82.5057         128.469 
       0.589034         125.743         80.7323         127.123 
       0.595184         124.283         79.0107         125.182 
       0.601379         121.131           77.34         123.891 
       0.607522         119.669         75.7382         121.326 
       0.613639         118.557         74.1904         120.088 
       0.619772         116.722         72.6799         118.143 
       0.625918         115.386         71.2037         117.324 
       0.632068         113.702         69.7644         115.165 
       0.638161          111.71         68.3757         114.168 
         0.6443         111.072         67.0142         112.256 
       0.650464         108.962         65.6854         110.479 
       0.656582         108.466         64.4033         109.725 
       0.662703         107.174         63.1563         107.871 
       0.668861         104.929         61.9367         106.863 
       0.675024         104.702           60.75         105.374 
       0.681124         103.127         59.6082         104.087 
       0.687237         101.096         58.4948         102.729 
       0.693381         100.583         57.4058         101.472 
       0.699536         99.5222          56.343         100.884 
       0.705665         97.8849         55.3119          99.859 
       0.711789         96.6028         54.3072          97.899 
       0.717957         95.4835           53.32         97.3107 
        0.72409         94.7954         52.3625           96.69 
       0.730186         94.0766         51.4341         95.3352 
       0.736317         92.4198         50.5233          94.065 
       0.742472         91.5369         49.6315         93.1813 
       0.748622         90.1783         48.7626         92.0254 
        0.75476         89.1628         47.9171         91.1482 
       0.760888         88.8888         47.0936         90.1439 
       0.767043         87.3321         46.2867          89.603 
       0.773185         86.5485          45.501         88.7863 
       0.779291         85.5474         44.7384         87.8778 
       0.785407         84.2894         43.9925         86.7291 
       0.791564         84.3488         43.2591         85.8402 
       0.797719          83.353         42.5429         85.1985 
       0.803834         82.4075         41.8477         84.1986 
       0.809972         81.7038         41.1656         83.5177 
       0.816124         80.8768         40.4973         82.8375 
       0.822261         79.8387         39.8459         81.7673 
       0.828378         79.5206         39.2109         80.7814 
       0.834502         78.4404         38.5893         80.6662 
       0.840667         77.9603         37.9774         79.7621 
       0.846816         76.8748         37.3807         79.0342 
       0.852925         76.5236         36.8007         78.5561 
       0.859047         76.0042          36.232         77.4842 
       0.865192         74.8075         35.6737         76.9602 
       0.871341         74.1077         35.1269          76.297 
       0.877463         73.6786         34.5942         75.6907 
       0.883569         73.3496          34.074         75.2185 
       0.889708         72.6282         33.5621         74.3798 
       0.895864          71.886         33.0595         73.8039 
       0.902008         71.1782         32.5684         73.2203 
       0.908149         70.6615         32.0876         72.6624 
       0.914301         70.2064          31.616         72.2481 
       0.920448         69.6845         31.1544          71.479 
       0.926574         68.4599         30.7037         70.6904 
       0.932687         68.1695          30.263         70.3901 
       0.938823         67.5395         29.8295         69.6829 
       0.944975         66.9341         29.4036         69.0375 
       0.951105         66.3317         28.9877         68.7661 
       0.957225         66.1971         28.5806         68.1903 
       0.963368         65.4392         28.1801         67.5137 
       0.969511         64.9356         27.7873         67.0566 
       0.975621         64.4233         27.4042         66.7944 
       0.981748         63.7518         27.0274         66.1929 
       0.987916         63.3299         26.6554         65.6832 
        0.99406         62.8521         26.2919         65.2872 
        1.00019         62.3524          25.936         64.7972 
        1.00632         61.9093          25.587         64.3818 
        1.01246         61.4568         25.2441         63.8701 
        1.01859         61.0003          24.908         63.3914 
        1.02471         60.3304         24.5786         63.0187 
        1.03085         60.1542          24.254         62.5461 
        1.03698         59.6464         23.9361          62.062 
        1.04314          59.302         23.6226         61.5234 
        1.04929         58.6802         23.3155         61.3025 
        1.05541         58.3716         23.0152         61.0514 
        1.06154         58.1277         22.7194         60.3813 
        1.06769         57.2861         22.4285          60.028 
        1.07382         57.1298         22.1437         59.7254 
        1.07993         56.6474         21.8645         59.1749 
        1.08607         56.2549         21.5891         58.7935 
        1.09222           55.95         21.3181          58.523 
        1.09836         55.4902         21.0522         58.1417 
        1.10449         55.1901         20.7912         57.6363 
        1.11063         54.7216         20.5344         57.3663 
        1.11677         54.6871          20.282         57.0026 
         1.1229         54.0742         20.0344         56.6163 
        1.12903         53.8852         19.7907         56.2823 
        1.13518         53.6504          19.551         55.8209 
        1.14131         53.0763         19.3154         55.5972 
        1.14745         52.5222         19.0838         55.2517 
        1.15359          52.148         18.8561         55.0484 
        1.15973         51.9141          18.632         54.6517 
        1.16584         51.6174         18.4125         54.2968 
        1.17197         51.0229         18.1964         53.9037 
        1.17811         50.8335         17.9831         53.4624 
        1.18424         50.2903         17.7738         53.2264 
        1.19038          50.139         17.5674         53.1039 
        1.19652         49.8999         17.3643         52.6056 
        1.20267         49.5863         17.1645         52.4516 
        1.20881          49.265         16.9678          52.109 
        1.21495         48.9677         16.7746         51.9147 
        1.22108         48.8025         16.5845         51.4719 
         1.2272         48.4917         16.3978         51.2737 
        1.23334          48.151         16.2136         51.0048 
        1.23949         47.8302         16.0318         50.5969 
        1.24562         47.3877         15.8533         50.3589 
        1.25174         47.1735         15.6778         50.1346 
        1.25789         47.1068         15.5045         49.7895 
        1.26402         46.7576         15.3341         49.5231 
        1.27014         46.4042         15.1668         49.2759 
        1.27628         46.0131         15.0014          48.962 
        1.28244         45.9309         14.8382         48.8635 
        1.28858         45.5257         14.6777         48.4987 
        1.29471         45.3586         14.5199         48.2571 
        1.30084         44.9745         14.3646         47.9832 
        1.30697         44.7963         14.2114         47.6622 
        1.31312         44.4294         14.0602         47.4886 
        1.31925         44.1655         13.9117         47.2507 
        1.32537         43.9501         13.7656         47.0382 
        1.33151         43.6684          13.621         46.7898 
        1.33765         43.5312         13.4786         46.5746 
        1.34378           43.29         13.3385          46.317 
        1.34992         43.0372         13.2004         46.0891 
        1.35606         42.7962         13.0639         45.9206 
         1.3622         42.4196         12.9296         45.7031 
        1.36833         42.2214         12.7976         45.4669 
        1.37445         42.0231         12.6675         45.1633 
        1.38059         41.7741         12.5388         44.9743 
        1.38675         41.3973         12.4116         44.8018 
        1.39288         41.3433         12.2866         44.5923 
        1.39901         41.0464         12.1635         44.3856 
        1.40515         40.8821         12.0418         44.1295 
         1.4113         40.7994         11.9218         43.9317 
        1.41742         40.5389          11.804          43.787 
        1.42355          40.175         11.6875         43.4124 
         1.4297         39.9392         11.5723          43.232 
        1.43585         39.6878         11.4586         43.1318 
        1.44198         39.5475          11.347         42.8934 
        1.44809         39.3521          11.237         42.6816 
        1.45423         39.1808         11.1282         42.4378 
        1.46036         38.9406         11.0209         42.2345 
        1.46649         38.7244         10.9151         42.0649 
        1.47263           38.49         10.8106         41.9243 
        1.47877          38.386         10.7075         41.7985 
        1.48491         38.2153         10.6056         41.4645 
        1.49104         37.9127         10.5052         41.3398 
        1.49718          37.753         10.4061         41.1465 
        1.50333         37.6534         10.3081         41.0085 
        1.50947         37.3697         10.2116         40.8794 
         1.5156         37.2014         10.1165         40.6612 
        1.52172         36.9019         10.0226         40.4057 
        1.52787         36.7261         9.92973         40.2273 
          1.534         36.6154         9.83814         40.0912 
        1.54013         36.4433          9.7478         39.8607 
        1.54627         36.1568         9.65845         39.6664 
        1.55241         36.0525         9.57021          39.563 
        1.55855         35.8554         9.48321         39.4245 
        1.56467         35.7839         9.39754         39.2205 
         1.5708         35.5643         9.31269         39.0709 
        1.57695         35.3444         9.22877         38.8797 
        1.58308         35.0654         9.14609         38.6754 
        1.58922         34.8997         9.06437         38.6028 
        1.59535         34.7836         8.98368          38.477 
         1.6015         34.6254         8.90388         38.2443 
        1.60764          34.497         8.82509         38.0463 
        1.61376         34.3087         8.74748         37.9176 
        1.61989         34.0603         8.67075         37.7369 
        1.62604         33.9479         8.59477         37.6833 
        1.63218         33.7603         8.51976         37.5712 
        1.63831         33.6582         8.44583         37.3227 
        1.64444         33.4701         8.37275         37.1608 
        1.65059         33.2863         8.30037         37.0316 
        1.65673          33.168         8.22893         36.8958 
        1.66285         32.9756         8.15853         36.7581 
        1.66898         32.8359         8.08894         36.6188 
        1.67512         32.7407         8.02004         36.4472 
        1.68127          32.519         7.95188          36.288 
         1.6874         32.3916         7.88466          36.131 
        1.69353         32.2233         7.81828          35.952 
        1.69967         32.0666          7.7525          35.824 
        1.70581         31.8527         7.68752         35.7418 
        1.71193         31.6233         7.62353         35.6256 
        1.71806         31.5999         7.56014         35.4139 
        1.72421         31.5145         7.49735         35.2789 
        1.73035         31.2843         7.43535         35.1631 
        1.73649         31.1085         7.37407          35.008 
        1.74262         30.9609         7.31353         34.8637 
        1.74876         30.7958         7.25364         34.7388 
        1.75489         30.7093         7.19455         34.6145 
        1.76101         30.5889         7.13614          34.478 
        1.76715         30.4179         7.07831         34.3325 
        1.77329         30.2778         7.02105          34.184 
        1.77943          30.164          6.9644         34.0764 
        1.78557         30.0252         6.90847         34.0093 
        1.79171         29.8465         6.85314         33.8638 
        1.79785         29.7077         6.79842         33.7109 
        1.80399         29.6175         6.74431         33.6352 
        1.81012         29.4891         6.69086         33.4572 
        1.81625         29.2795         6.63802         33.2927 
        1.82239         29.1897         6.58568         33.2159 
        1.82853         29.0639         6.53393         33.1068 
        1.83466          28.909         6.48278         32.9831 
        1.84078          28.791         6.43225         32.8767 
        1.84692         28.6953         6.38217         32.7849 
        1.85306         28.5296         6.33257         32.6328 
         1.8592         28.4227         6.28358         32.4701 
        1.86533         28.2034         6.23514         32.3787 
        1.87147         28.1093         6.18715          32.285 
