# k  (h/Mpc)    Pcb(k)  (Mpc/h)^3    Pcb_linear(k) (Mpc/h)^3    Pcb_NL(k) (Mpc/h)^3   ShotnoiseSubtracted = false
     0.00783031          696.05         700.291         699.826 
       0.013688         927.562         936.501         933.505 
       0.019231         1007.56         1011.75         1007.07 
      0.0249154         993.077         993.842         990.453 
      0.0312784         912.615         914.341         912.616 
      0.0375637         815.518         817.894         816.679 
      0.0433917         736.946         736.196         735.512 
      0.0492413         669.766         670.826         670.276 
      0.0555754         619.789         618.783         618.032 
      0.0619321          575.77         579.995         579.143 
       0.067871         547.219         548.623         547.506 
      0.0738098         515.329          516.24         514.704 
      0.0800417          478.19         478.193         476.749 
      0.0862327         435.943         436.792         435.772 
      0.0921407         395.842         396.776         395.986 
      0.0982031         359.178         358.769         358.479 
       0.104506         324.248         325.501         325.609 
       0.110769         299.081         299.988         299.905 
       0.116806         282.777         281.935         281.764 
       0.122832         267.849          268.53         268.431 
       0.129052         257.159         257.103         256.954 
       0.135211         246.668         245.928         245.772 
       0.141259         233.413         233.659         233.642 
       0.147318         218.432         219.724         219.987 
       0.153489         204.133         204.453         204.508 
       0.159709           189.7         189.182         189.571 
       0.165845         174.532         175.471           176.4 
       0.171974         165.154         163.952         164.864 
       0.178125         156.062         154.828         156.097 
       0.184229         148.196         147.889         149.188 
        0.19034         143.663         142.381         143.642 
       0.196428         138.564          137.52           138.5 
       0.202534         132.279         132.559          133.61 
       0.208729         127.758         126.997         128.011 
       0.214876           122.4         120.873         122.269 
       0.220989         114.521         114.425          115.97 
       0.227147         109.756         107.988         109.554 
        0.23329         104.119         102.045         103.954 
       0.239377         99.3091         96.9191         99.0244 
       0.245482         94.6974          92.638         94.5821 
       0.251667         90.7044         89.0848         91.2129 
       0.257832         88.5029         86.0994         88.1995 
       0.263955         85.0738         83.4037          85.415 
       0.270079         82.3577         80.7203         82.6603 
        0.27624         79.0263         77.8783         79.7281 
       0.282372         76.2237         74.8655         76.8329 
        0.28843         74.0822         71.7761         73.7946 
       0.294538         70.7952         68.6815         70.8274 
       0.300721         67.4597         65.7145         68.0325 
        0.30691         65.4427         63.0257          65.391 
       0.313033         62.8939         60.6866         63.0168 
       0.319153         61.5401         58.6534         61.1296 
       0.325316         58.8394         56.8386         59.4002 
        0.33145         57.1331         55.1734         57.5987 
       0.337538         55.6478         53.5666         55.9271 
       0.343633         54.1279         51.9447         54.3165 
       0.349808         52.3538         50.2617         52.7018 
       0.355968         50.5845         48.5566         51.2266 
       0.362074         49.2878         46.8809         49.4743 
       0.368217         47.6773         45.2561         47.6919 
       0.374374         46.5658          43.733         46.3363 
       0.380519          44.648         42.3369         44.8859 
       0.386598         43.3169         41.0803         43.6912 
       0.392688         42.0857         39.9263          42.552 
        0.39888         41.2022         38.8278         41.4005 
       0.405048         40.2052         37.7789         40.2805 
       0.411186         39.1084         36.7527         39.4474 
       0.417313         38.0664         35.7312         38.3056 
       0.423458         36.8978         34.7125         37.3375 
       0.429607          36.189         33.7058         36.2762 
       0.435692         35.3887         32.7373         35.3897 
       0.441815         34.1292         31.8063         34.5888 
       0.447964         33.0896         30.9236         33.6307 
       0.454126         32.4939          30.093         32.7655 
       0.460267         32.0453         29.3168         32.0554 
       0.466387         31.1143         28.5848         31.2412 
        0.47254         30.5612         27.8777         30.5668 
       0.478662         29.7134         27.1942         29.8475 
       0.484765         29.0585         26.5275         29.1792 
       0.490885         28.2578         25.8699         28.6522 
       0.497035         27.6176         25.2204         28.0218 
       0.503198         27.0263         24.5865         27.2443 
       0.509342         26.3011         23.9764         26.6984 
       0.515458         25.9037         23.3934         26.2196 
       0.521598          25.306         22.8329         25.4983 
       0.527764         24.9356         22.2957         24.9285 
       0.533884         24.2095         21.7861         24.4335 
           0.54         23.7543         21.2961         23.9177 
       0.546137         23.0812         20.8195         23.4962 
       0.552299         22.6888         20.3527         22.9213 
       0.558452          22.225          19.898         22.4718 
       0.564573         21.8942         19.4569         22.1503 
       0.570708         21.3876          19.026         21.6895 
       0.576825         21.0064          18.608         21.2507 
       0.582926         20.5757         18.2038         20.8773 
       0.589034         20.2049         17.8125         20.5206 
       0.595184         19.9161         17.4327         20.0052 
       0.601379         19.3864         17.0641         19.7414 
       0.607522         19.0616         16.7107         19.3425 
       0.613639         18.6476         16.3691          18.978 
       0.619772         18.3834         16.0359         18.6904 
       0.625918         17.9924         15.7102         18.3278 
       0.632068          17.785         15.3926         17.9759 
       0.638161          17.414         15.0862         17.6536 
         0.6443         17.0989         14.7858         17.3242 
       0.650464         16.6921         14.4926         17.0947 
       0.656582         16.5644         14.2097         16.7876 
       0.662703         16.3165         13.9346         16.4884 
       0.668861         15.8809         13.6655         16.2601 
       0.675024         15.6494         13.4037         15.9373 
       0.681124         15.5785         13.1518         15.6788 
       0.687237         15.2385         12.9061         15.3746 
       0.693381         14.8571         12.6658         15.1209 
       0.699536         14.7698         12.4314         14.8885 
       0.705665         14.4937         12.2039          14.735 
       0.711789          14.199         11.9822         14.4697 
       0.717957         13.9174         11.7644         14.2095 
        0.72409         13.7827         11.5531         14.0129 
       0.730186         13.6586         11.3483         13.7679 
       0.736317         13.3678         11.1473         13.5546 
       0.742472         13.1945         10.9505         13.4336 
       0.748622         12.9908         10.7588         13.2005 
        0.75476         12.6723         10.5723         12.9678 
       0.760888         12.5768         10.3906         12.7979 
       0.767043          12.309         10.2126         12.6398 
       0.773185         12.1605         10.0392         12.4666 
       0.779291         12.0924         9.87095         12.2901 
       0.785407         11.8464         9.70637         12.0967 
       0.791564         11.7051         9.54456         11.9349 
       0.797719         11.4828         9.38655         11.7264 
       0.803834         11.3755         9.23315         11.5707 
       0.809972         11.1703         9.08265         11.4712 
       0.816124         11.0312         8.93521         11.2674 
       0.822261         10.8906         8.79147         11.1139 
       0.828378         10.7233         8.65137         10.9699 
       0.834502          10.601         8.51423         10.8235 
       0.840667         10.4929         8.37922         10.6765 
       0.846816         10.2887         8.24756         10.5618 
       0.852925         10.1726          8.1196         10.4381 
       0.859047         10.0446         7.99413         10.3009 
       0.865192         9.90137         7.87093         10.1584 
       0.871341         9.75565         7.75029         10.0429 
       0.877463         9.64133         7.63276         9.89438 
       0.883569         9.53737         7.51799         9.79309 
       0.889708          9.3998         7.40504         9.66715 
       0.895864         9.27959         7.29414         9.53213 
       0.902008         9.14186         7.18579         9.43077 
       0.908149         9.02931         7.07972          9.3167 
       0.914301         8.95245         6.97566         9.21192 
       0.920448         8.82315         6.87381         9.06797 
       0.926574         8.76714         6.77437         8.98099 
       0.932687         8.61976         6.67714         8.82751 
       0.938823         8.48811          6.5815         8.77373 
       0.944975         8.41695         6.48753         8.64509 
       0.951105         8.28187         6.39576          8.5363 
       0.957225         8.22209         6.30594         8.48028 
       0.963368         8.13263         6.21757         8.36332 
       0.969511         8.03469          6.1309         8.27844 
       0.975621          7.9281         6.04638         8.14669 
       0.981748         7.79311         5.96324         8.06483 
       0.987916          7.7276         5.88117         8.00131 
        0.99406         7.67951         5.80097         7.91148 
        1.00019         7.58934         5.72244         7.84061 
        1.00632         7.51164         5.64545         7.74089 
        1.01246         7.40615         5.56978         7.66438 
        1.01859         7.31994         5.49563          7.5649 
        1.02471         7.21262         5.42295         7.46934 
        1.03085         7.17847         5.35134         7.39289 
        1.03698          7.0944          5.2812         7.32612 
        1.04314         7.02284         5.21202         7.24532 
        1.04929         6.91815         5.14427         7.17439 
        1.05541          6.8535           5.078          7.1093 
        1.06154         6.79376         5.01275         7.03527 
        1.06769          6.7574         4.94856          6.9724 
        1.07382           6.638         4.88572           6.898 
        1.07993         6.55931         4.82412          6.8241 
        1.08607         6.52219         4.76335         6.74661 
        1.09222         6.42799         4.70357         6.67239 
        1.09836         6.41585          4.6449         6.60892 
        1.10449         6.27819         4.58731         6.54786 
        1.11063         6.24956         4.53064         6.47701 
        1.11677         6.18922         4.47496         6.42315 
         1.1229         6.12263         4.42033         6.36881 
        1.12903         6.07979         4.36657         6.31121 
        1.13518         5.98501         4.31367         6.25381 
        1.14131         5.93033         4.26169         6.17946 
        1.14745         5.86007          4.2106         6.10514 
        1.15359          5.8155         4.16035         6.06739 
        1.15973          5.7542          4.1109         6.01001 
        1.16584         5.70379         4.06249         5.96445 
        1.17197         5.64165          4.0148          5.8979 
        1.17811         5.58607         3.96774         5.84186 
        1.18424         5.53335         3.92157         5.78582 
        1.19038         5.48306         3.87601          5.7362 
        1.19652         5.44414         3.83121         5.69781 
        1.20267         5.39475         3.78712         5.62085 
        1.20881         5.33552         3.74374         5.58514 
        1.21495         5.28928         3.70111         5.54334 
        1.22108         5.24518         3.65916         5.49304 
         1.2272          5.1757         3.61797         5.42808 
        1.23334         5.16452         3.57732         5.39009 
        1.23949         5.10205         3.53721         5.35851 
        1.24562          5.0564         3.49783         5.30965 
        1.25174         5.01906         3.45911         5.24898 
        1.25789         4.95022         3.42087         5.20422 
        1.26402         4.91179         3.38328          5.1515 
        1.27014          4.8726         3.34635         5.12162 
        1.27628          4.8214         3.30987         5.08899 
        1.28244          4.7953         3.27386         5.03766 
        1.28858         4.75757         3.23844         4.98979 
        1.29471         4.69135         3.20363         4.94715 
        1.30084          4.6554         3.16937          4.9186 
        1.30697         4.62555         3.13557         4.87668 
        1.31312         4.58692         3.10221         4.83663 
        1.31925         4.54588         3.06945         4.80202 
        1.32537         4.51403          3.0372         4.76355 
        1.33151         4.46634          3.0053         4.72476 
        1.33765         4.43296         2.97388         4.68074 
        1.34378         4.40309         2.94298         4.65435 
        1.34992          4.3665         2.91249          4.6149 
        1.35606          4.3296         2.88238          4.5628 
         1.3622         4.29601         2.85276         4.53439 
        1.36833         4.24928         2.82362         4.51468 
        1.37445          4.2111         2.79491         4.47518 
        1.38059         4.18237         2.76652         4.43912 
        1.38675          4.1485         2.73845         4.39657 
        1.39288         4.12483         2.71089         4.37314 
        1.39901         4.07725         2.68372         4.34264 
        1.40515         4.04718         2.65687         4.30274 
         1.4113         4.02283          2.6304         4.27305 
        1.41742         3.98242          2.6044           4.251 
        1.42355         3.94954          2.5787         4.19954 
         1.4297         3.93044         2.55327         4.18711 
        1.43585         3.89573          2.5282          4.1622 
        1.44198         3.86522         2.50357         4.11125 
        1.44809         3.84198         2.47931         4.09748 
        1.45423         3.81222         2.45529         4.05612 
        1.46036         3.78313         2.43163         4.02839 
        1.46649          3.7383         2.40828         4.00901 
        1.47263         3.72832         2.38522         3.98023 
        1.47877         3.70067         2.36247         3.94507 
        1.48491         3.66492         2.33999         3.92019 
        1.49104         3.64069         2.31785            3.89 
        1.49718         3.61475         2.29598         3.86624 
        1.50333         3.58555         2.27436         3.83988 
        1.50947         3.55614         2.25307         3.81163 
         1.5156         3.53521         2.23208         3.78707 
        1.52172         3.51139         2.21136         3.76337 
        1.52787         3.48489         2.19087         3.73194 
          1.534         3.46022         2.17066         3.70617 
        1.54013         3.43108         2.15073         3.68161 
        1.54627          3.4083         2.13101         3.65651 
        1.55241         3.37888         2.11155          3.6319 
        1.55855         3.36168         2.09235         3.60428 
        1.56467         3.33787         2.07345         3.58714 
         1.5708         3.31172         2.05473          3.5597 
        1.57695          3.2812         2.03621         3.53568 
        1.58308         3.25759         2.01797         3.52278 
        1.58922         3.25001         1.99994         3.49653 
        1.59535         3.21612         1.98214         3.47124 
         1.6015         3.18995         1.96453         3.44669 
        1.60764         3.17465         1.94714         3.42844 
        1.61376         3.14869         1.93002         3.41265 
        1.61989         3.12691         1.91309         3.38628 
        1.62604         3.10351         1.89633         3.36519 
        1.63218         3.09164         1.87978          3.3464 
        1.63831         3.07247         1.86346          3.3234 
        1.64444         3.04745         1.84734         3.30001 
        1.65059         3.03254         1.83137          3.2799 
        1.65673         3.00347         1.81561         3.26222 
        1.66285         2.98409         1.80008         3.24194 
        1.66898         2.96787         1.78472         3.21813 
        1.67512         2.94097         1.76952         3.20026 
        1.68127         2.91975         1.75448         3.18596 
         1.6874         2.91568         1.73965          3.1678 
        1.69353         2.88098           1.725         3.14226 
        1.69967         2.86805         1.71049         3.12173 
        1.70581         2.85571         1.69615         3.10909 
        1.71193         2.82479         1.68203         3.09546 
        1.71806         2.80916         1.66805         3.07063 
        1.72421         2.79573         1.65419         3.05079 
        1.73035         2.77166         1.64051         3.03454 
        1.73649         2.76418         1.62699         3.01623 
        1.74262         2.74303         1.61364         2.99646 
        1.74876         2.72366         1.60042         2.98247 
        1.75489         2.70959         1.58739         2.96679 
        1.76101          2.6864          1.5745          2.9448 
        1.76715          2.6758         1.56174         2.92638 
        1.77329         2.65466          1.5491         2.91158 
        1.77943         2.64066         1.53661         2.89643 
        1.78557         2.62508         1.52427         2.87961 
        1.79171         2.61287         1.51206         2.86332 
        1.79785         2.59252         1.49998         2.84715 
        1.80399         2.57727         1.48805         2.83016 
        1.81012          2.5582         1.47625         2.81484 
        1.81625         2.54052         1.46459         2.79967 
        1.82239         2.52818         1.45305         2.78619 
        1.82853         2.51229         1.44163         2.77732 
        1.83466          2.4922         1.43034         2.76333 
        1.84078         2.47996         1.41919         2.74306 
        1.84692         2.46623         1.40815         2.72451 
        1.85306         2.45508          1.3972         2.70908 
         1.8592         2.43749         1.38639         2.69576 
        1.86533         2.42351          1.3757         2.68305 
        1.87147         2.40841         1.36512         2.66988 
