# k  (h/Mpc)    Pcb(k)  (Mpc/h)^3    Pcb_linear(k) (Mpc/h)^3    Pcb_NL(k) (Mpc/h)^3   ShotnoiseSubtracted = false
     0.00783031         52.1866         52.5464         52.4989 
       0.013688         69.8496         70.3052         70.0871 
       0.019231         75.7818         75.9676         75.6374 
      0.0249154         74.4833         74.6294          74.403 
      0.0312784         68.5963         68.6633         68.5729 
      0.0375637         61.4006         61.4225         61.3831 
      0.0433917         55.3522         55.2881         55.2925 
      0.0492413         50.4033         50.3795         50.3922 
      0.0555754           46.54         46.4714         46.4702 
      0.0619321         43.4932         43.5586         43.5471 
       0.067871         41.1864         41.2027         41.1715 
      0.0738098         38.7549         38.7708         38.7232 
      0.0800417          35.919         35.9136         35.8712 
      0.0862327          32.796         32.8044         32.7767 
      0.0921407         29.7904         29.7992         29.7856 
      0.0982031         26.9701         26.9448         26.9471 
       0.104506         24.4348         24.4463         24.4587 
       0.110769         22.5226         22.5302         22.5388 
       0.116806         21.1948         21.1744         21.1746 
       0.122832         20.1524         20.1676         20.1656 
       0.129052          19.308         19.3094         19.3019 
       0.135211         18.4756         18.4701         18.4591 
       0.141259         17.5326         17.5486         17.5401 
       0.147318         16.4671         16.5021         16.5003 
       0.153489         15.3419         15.3552         15.3527 
       0.159709         14.2065         14.2084         14.2146 
       0.165845         13.1479         13.1786         13.1963 
       0.171974         12.3228         12.3135         12.3311 
       0.178125         11.6339         11.6282         11.6522 
       0.184229         11.0961         11.1071         11.1304 
        0.19034         10.7031         10.6934         10.7146 
       0.196428          10.326         10.3283         10.3427 
       0.202534         9.92706         9.95573         9.97063 
       0.208729         9.52806         9.53795          9.5522 
       0.214876         9.08564         9.07803         9.09972 
       0.220989         8.57129         8.59382         8.61932 
       0.227147         8.12212         8.11037         8.13692 
        0.23329         7.67898         7.66402         7.69755 
       0.239377          7.2952         7.27904         7.31674 
       0.245482         6.97214         6.95751         6.99216 
       0.251667         6.69234         6.69065         6.72846 
       0.257832          6.4794         6.46643         6.50322 
       0.263955         6.26754         6.26397         6.29843 
       0.270079         6.06454         6.06243         6.09504 
        0.27624         5.83985         5.84899         5.87966 
       0.282372         5.61674         5.62272         5.65603 
        0.28843          5.4001         5.39069         5.42546 
       0.294538         5.16556         5.15828         5.19561 
       0.300721         4.93434         4.93544         4.97624 
        0.30691         4.74474          4.7335         4.77526 
       0.313033         4.56603         4.55782         4.59912 
       0.319153         4.42963         4.40512         4.44932 
       0.325316         4.26925         4.26882         4.31451 
        0.33145         4.14556         4.14376         4.18658 
       0.337538          4.0287         4.02308         4.06436 
       0.343633         3.91063         3.90127         3.94219 
       0.349808         3.78104         3.77487         3.81728 
       0.355968         3.65095         3.64681         3.69464 
       0.362074         3.53058         3.52096         3.56687 
       0.368217         3.40818         3.39893         3.44136 
       0.374374         3.30387         3.28454         3.33077 
       0.380519         3.18908         3.17969         3.22464 
       0.386598          3.0921         3.08531         3.13196 
       0.392688         3.00314         2.99864         3.04501 
        0.39888         2.92444         2.91614          2.9619 
       0.405048         2.84625         2.83736         2.88067 
       0.411186          2.7674         2.76029         2.80807 
       0.417313         2.69321         2.68356         2.72939 
       0.423458         2.61128         2.60706         2.65374 
       0.429607          2.5422         2.53145         2.57675 
       0.435692         2.47079         2.45872         2.50604 
       0.441815         2.39798         2.38879         2.43895 
       0.447964         2.32657          2.3225         2.37118 
       0.454126         2.27064         2.26012          2.3081 
       0.460267         2.21688         2.20182         2.25105 
       0.466387         2.15944         2.14684         2.19402 
        0.47254         2.10767         2.09374         2.14135 
       0.478662         2.05479         2.04241         2.08912 
       0.484765         2.00574         1.99233         2.03959 
       0.490885         1.95443         1.94294          1.9934 
       0.497035         1.90112         1.89416         1.94494 
       0.503198          1.8573         1.84655         1.89348 
       0.509342         1.80828         1.80073          1.8491 
       0.515458         1.76826         1.75694         1.80752 
       0.521598         1.72613         1.71485          1.7618 
       0.527764         1.68947          1.6745          1.7214 
       0.533884         1.64494         1.63623         1.68347 
           0.54         1.60981         1.59943         1.64582 
       0.546137         1.57134         1.56363         1.61098 
       0.552299         1.53841         1.52858         1.57295 
       0.558452         1.50502         1.49443         1.53953 
       0.564573         1.47233          1.4613         1.50989 
       0.570708          1.4396         1.42893         1.47655 
       0.576825         1.40845         1.39755         1.44435 
       0.582926         1.37602         1.36719         1.41479 
       0.589034         1.35089          1.3378         1.38676 
       0.595184         1.32289         1.30927         1.35393 
       0.601379         1.29287         1.28159         1.32938 
       0.607522         1.26542         1.25504         1.30212 
       0.613639          1.2371         1.22939         1.27585 
       0.619772         1.21595         1.20436         1.25228 
       0.625918         1.19106          1.1799         1.22607 
       0.632068         1.16715         1.15605          1.2016 
       0.638161         1.14383         1.13304         1.17835 
         0.6443         1.12087         1.11048         1.15503 
       0.650464         1.09948         1.08846         1.13479 
       0.656582         1.07962         1.06721         1.11284 
       0.662703         1.05831         1.04655         1.09159 
       0.668861         1.03489         1.02634         1.07274 
       0.675024         1.01692         1.00668         1.05193 
       0.681124         1.00273        0.987755         1.03238 
       0.687237        0.980994        0.969307         1.01234 
       0.693381        0.960537         0.95126        0.993238 
       0.699536         0.94666         0.93365        0.976184 
       0.705665        0.928906        0.916564        0.961713 
       0.711789        0.909911        0.899915        0.944364 
       0.717957        0.894637        0.883556        0.926562 
        0.72409        0.878125        0.867689        0.910724 
       0.730186        0.864784        0.852305        0.894104 
       0.736317        0.847845        0.837212         0.87869 
       0.742472        0.834233        0.822434        0.866281 
       0.748622        0.820128        0.808035        0.851713 
        0.75476        0.805133        0.794024        0.835765 
       0.760888        0.793359        0.780378        0.822504 
       0.767043        0.774939        0.767009        0.809507 
       0.773185        0.764176        0.753989        0.796973 
       0.779291        0.753505        0.741352        0.784027 
       0.785407        0.739968        0.728991        0.770982 
       0.791564        0.727818        0.716839        0.758803 
       0.797719        0.715542        0.704971        0.745309 
       0.803834        0.703588         0.69345        0.734337 
       0.809972        0.692799        0.682147        0.724116 
       0.816124        0.681393        0.671073        0.711489 
       0.822261        0.671419        0.660278        0.700447 
       0.828378        0.659733        0.649756        0.689812 
       0.834502        0.649539        0.639456        0.678681 
       0.840667        0.640296        0.629317        0.669037 
       0.846816         0.63032        0.619428        0.660669 
       0.852925        0.619259        0.609818        0.649973 
       0.859047        0.610171        0.600394        0.641603 
       0.865192        0.601316        0.591142        0.631346 
       0.871341        0.592957        0.582081        0.621664 
       0.877463        0.582382        0.573254        0.612352 
       0.883569        0.574235        0.564634        0.604342 
       0.889708        0.566432        0.556151        0.595681 
       0.895864        0.558114        0.547822        0.586846 
       0.902008        0.549219        0.539684        0.578495 
       0.908149        0.542063        0.531718        0.570882 
       0.914301         0.53516        0.523902        0.562018 
       0.920448         0.52707        0.516253        0.554028 
       0.926574        0.520146        0.508785        0.546778 
       0.932687        0.512632        0.501483        0.538359 
       0.938823         0.50407          0.4943        0.532976 
       0.944975        0.497975        0.487242        0.523812 
       0.951105        0.489836         0.48035        0.516929 
       0.957225        0.482837        0.473604        0.511212 
       0.963368        0.477021        0.466967        0.503653 
       0.969511        0.471181        0.460458        0.497118 
       0.975621        0.463925         0.45411         0.48922 
       0.981748        0.456616        0.447866        0.483263 
       0.987916        0.450816        0.441702        0.478326 
        0.99406        0.445443        0.435678        0.472363 
        1.00019        0.439224         0.42978        0.466202 
        1.00632        0.434579        0.423998        0.459593 
        1.01246         0.42857        0.418315        0.453491 
        1.01859        0.422684        0.412746        0.448255 
        1.02471        0.416581        0.407287        0.442854 
        1.03085         0.41071        0.401909        0.436279 
        1.03698        0.406258        0.396641        0.430648 
        1.04314        0.401033        0.391446        0.425796 
        1.04929        0.396585        0.386357        0.420563 
        1.05541        0.390273         0.38138        0.415973 
        1.06154        0.385945         0.37648        0.410864 
        1.06769        0.381395        0.371659        0.405647 
        1.07382         0.37663        0.366939        0.400819 
        1.07993        0.372228        0.362313        0.395981 
        1.08607        0.366989        0.357748        0.391402 
        1.09222        0.362477        0.353259        0.386322 
        1.09836        0.357999        0.348852        0.382209 
        1.10449        0.353528        0.344527        0.377678 
        1.11063        0.349226        0.340271        0.372752 
        1.11677        0.345698         0.33609        0.368988 
         1.1229        0.340468        0.331986        0.364739 
        1.12903        0.337001        0.327949        0.360433 
        1.13518        0.332875        0.323976        0.356388 
        1.14131        0.329242        0.320072         0.35249 
        1.14745        0.326254        0.316235        0.347853 
        1.15359        0.321604         0.31246        0.344283 
        1.15973        0.318365        0.308747        0.340802 
        1.16584        0.314189        0.305111        0.336558 
        1.17197        0.310331        0.301529        0.332868 
        1.17811        0.306579        0.297994        0.329601 
        1.18424        0.303193        0.294527        0.325362 
        1.19038        0.299408        0.291106        0.321983 
        1.19652        0.297104        0.287741        0.318689 
        1.20267         0.29343        0.284429        0.314428 
        1.20881        0.289178        0.281171        0.311711 
        1.21495         0.28635         0.27797        0.309024 
        1.22108        0.283461        0.274819        0.305042 
         1.2272        0.279918        0.271725          0.3014 
        1.23334        0.276958        0.268673         0.29855 
        1.23949        0.274451         0.26566        0.295857 
        1.24562        0.271287        0.262702        0.292682 
        1.25174         0.26827        0.259795        0.289227 
        1.25789        0.264692        0.256923        0.286161 
        1.26402        0.262636        0.254099        0.283309 
        1.27014        0.259167        0.251326        0.280302 
        1.27628        0.256884        0.248586        0.277359 
        1.28244        0.254206        0.245881        0.274629 
        1.28858         0.25109        0.243221        0.271389 
        1.29471        0.248539        0.240607        0.269023 
        1.30084        0.245843        0.238034        0.266884 
        1.30697        0.243745        0.235495        0.263961 
        1.31312        0.241249         0.23299        0.261196 
        1.31925        0.238575        0.230529        0.258886 
        1.32537        0.236104        0.228107        0.256418 
        1.33151        0.233678        0.225711        0.253827 
        1.33765          0.2311        0.223351        0.251338 
        1.34378         0.22852         0.22103         0.24896 
        1.34992        0.226941        0.218741        0.246631 
        1.35606        0.224296         0.21648        0.243817 
         1.3622        0.222068        0.214255        0.241548 
        1.36833        0.220198        0.212067        0.239473 
        1.37445        0.218171         0.20991        0.237353 
        1.38059        0.215646        0.207778        0.234841 
        1.38675        0.213225         0.20567        0.232626 
        1.39288        0.210837          0.2036        0.230295 
        1.39901        0.209489         0.20156         0.22831 
        1.40515        0.207112        0.199543        0.226091 
         1.4113        0.205451        0.197555        0.224185 
        1.41742        0.203487        0.195602        0.222578 
        1.42355        0.200888        0.193672        0.219698 
         1.4297        0.199659        0.191762        0.218178 
        1.43585        0.197303        0.189879        0.216117 
        1.44198        0.195704        0.188029        0.213436 
        1.44809        0.193649        0.186207        0.212369 
        1.45423          0.1919        0.184403        0.209687 
        1.46036        0.190073        0.182626        0.208098 
        1.46649        0.188214        0.180872        0.206734 
        1.47263        0.185988         0.17914        0.204662 
        1.47877        0.185265        0.177432        0.202853 
        1.48491        0.182734        0.175743        0.201278 
        1.49104         0.18181        0.174081        0.198998 
        1.49718         0.17988        0.172438        0.197774 
        1.50333        0.178228        0.170815         0.19543 
        1.50947        0.176745        0.169215        0.193654 
         1.5156        0.174887        0.167639        0.192436 
        1.52172        0.173477        0.166083        0.190496 
        1.52787        0.171477        0.164544        0.188817 
          1.534        0.170397        0.163026        0.187451 
        1.54013        0.168693        0.161529        0.185804 
        1.54627        0.167415        0.160049        0.184088 
        1.55241        0.165782        0.158586        0.182521 
        1.55855        0.164382        0.157145        0.181004 
        1.56467        0.162966        0.155725        0.179685 
         1.5708        0.161392        0.154319        0.177903 
        1.57695         0.16007        0.152928        0.176225 
        1.58308         0.15814        0.151558        0.175095 
        1.58922        0.157281        0.150204        0.173709 
        1.59535        0.155714        0.148867        0.172126 
         1.6015        0.154633        0.147545        0.170493 
        1.60764        0.153036        0.146239        0.169339 
        1.61376        0.151827        0.144953          0.1684 
        1.61989        0.150405        0.143682        0.166848 
        1.62604         0.14927        0.142423        0.165388 
        1.63218        0.148071         0.14118        0.164108 
        1.63831        0.146779        0.139954        0.162785 
        1.64444        0.145468        0.138743        0.161358 
        1.65059        0.144012        0.137544        0.160015 
        1.65673        0.143029         0.13636         0.15884 
        1.66285        0.142028        0.135194        0.157636 
        1.66898        0.140457        0.134041        0.156272 
        1.67512         0.13947        0.132899        0.155025 
        1.68127        0.138297        0.131769        0.153915 
         1.6874        0.137267        0.130655         0.15283 
        1.69353        0.136168        0.129555        0.151609 
        1.69967        0.134762        0.128465        0.150224 
        1.70581        0.134073        0.127389        0.149035 
        1.71193        0.132985        0.126328        0.148013 
        1.71806        0.131692        0.125278        0.146854 
        1.72421        0.130603        0.124237        0.145905 
        1.73035        0.129658         0.12321        0.144746 
        1.73649        0.128573        0.122195        0.143319 
        1.74262        0.127524        0.121191        0.142256 
        1.74876         0.12668        0.120199        0.141426 
        1.75489        0.125505         0.11922        0.140418 
        1.76101        0.124576        0.118252        0.139208 
        1.76715        0.123772        0.117294        0.138286 
        1.77329        0.122545        0.116345        0.137382 
        1.77943        0.121578        0.115406        0.136307 
        1.78557        0.120884        0.114479        0.135148 
        1.79171        0.119893        0.113562         0.13403 
        1.79785        0.118764        0.112656        0.133117 
        1.80399        0.117806        0.111759        0.132331 
        1.81012        0.117078        0.110873        0.131043 
        1.81625        0.116205        0.109998        0.129982 
        1.82239        0.115462         0.10913        0.129409 
        1.82853        0.114372        0.108273        0.128567 
        1.83466        0.113521        0.107425        0.127505 
        1.84078        0.112747        0.106588        0.126512 
        1.84692        0.111917        0.105758        0.125763 
        1.85306        0.111093        0.104936        0.124741 
         1.8592        0.110302        0.104124        0.123648 
        1.86533        0.109484        0.103321        0.122929 
        1.87147        0.108636        0.102526        0.122149 
