#  k  (h/Mpc)          P(k)  (Mpc/h)^3     P_linear(k)   P_NL(k) (Mpc/h)^3
     0.00783031          2573.9          2590.5          2590.5 
       0.013688         3231.64         3276.26         3276.26 
       0.019231         3355.86          3377.4          3377.4 
      0.0249154         3184.79         3181.15         3181.15 
      0.0312784         2811.74         2818.51         2818.51 
      0.0375637          2446.1         2459.39         2459.39 
      0.0433917         2189.54         2187.97         2187.97 
      0.0492413         1978.43         1985.67         1985.67 
      0.0555754         1829.15         1827.08         1827.08 
      0.0619321         1676.01         1699.35         1699.35 
       0.067871         1574.31         1582.91         1582.91 
      0.0738098         1452.66         1456.62         1456.62 
      0.0800417         1315.26         1314.27         1314.27 
      0.0862327         1171.84         1173.77         1173.77 
      0.0921407         1051.88         1052.95         1052.95 
      0.0982031         956.453         951.095         951.095 
       0.104506         868.362         871.291         871.291 
       0.110769          812.68         814.108         814.108 
       0.116806          778.27         772.071         772.071 
       0.122832         734.032         734.649         734.649 
       0.129052         696.737         694.216         694.216 
       0.135211         657.244         649.527         649.527 
       0.141259         606.458         602.219         602.219 
       0.147318         555.457         554.909         554.909 
       0.153489         515.819          510.83          510.83 
       0.159709         483.316         473.491         473.491 
       0.165845         446.942         444.423         444.423 
       0.171974         433.223         421.984         421.984 
       0.178125         414.853         403.761         403.761 
       0.184229          392.98         387.342         387.342 
        0.19034         380.451         370.527         370.527 
       0.196428         363.078         352.437         352.437 
       0.202534         338.618         333.123         333.123 
       0.208729         324.899         313.338         313.338 
       0.214876         309.329          294.78          294.78 
       0.220989         287.646         278.371         278.371 
       0.227147         279.415         264.341         264.341 
        0.23329         268.465         252.674         252.674 
       0.239377         260.206           242.8           242.8 
       0.245482         248.626         233.814         233.814 
       0.251667         238.189         224.951         224.951 
       0.257832         233.278         215.926         215.926 
       0.263955         220.607         206.709         206.709 
       0.270079         211.618         197.442         197.442 
        0.27624         201.526         188.417         188.417 
       0.282372         194.468         180.064         180.064 
        0.28843         191.157         172.614         172.614 
       0.294538          182.72         165.939         165.939 
       0.300721           175.1         159.903         159.903 
        0.30691         171.811         154.366         154.366 
       0.313033         165.066         149.158         149.158 
       0.319153         161.982         144.057         144.057 
       0.325316          155.21         138.949         138.949 
        0.33145         150.165         133.914         133.914 
       0.337538         145.348         129.039         129.039 
       0.343633         140.803         124.378         124.378 
       0.349808         136.248          119.95          119.95 
       0.355968         132.255         115.862         115.862 
       0.362074          129.58         112.112         112.112 
       0.368217         126.219         108.593         108.593 
       0.374374         123.459         105.252         105.252 
       0.380519         118.242         102.039         102.039 
       0.386598         115.238         98.9472         98.9472 
       0.392688         111.896         95.9196         95.9196 
        0.39888         109.749         92.9231         92.9231 
       0.405048         107.107         90.0447         90.0447 
       0.411186         104.575         87.3043         87.3043 
       0.417313          101.73         84.7075         84.7075 
       0.423458         99.0293         82.2446         82.2446 
       0.429607         97.2685         79.9069         79.9069 
       0.435692         95.5679         77.7029         77.7029 
       0.441815          92.271         75.5749         75.5749 
       0.447964         89.4929         73.5104         73.5104 
       0.454126         87.8949         71.5038         71.5038 
       0.460267          87.107         69.5658         69.5658 
       0.466387         84.8024         67.6964         67.6964 
        0.47254         83.6527         65.8822         65.8822 
       0.478662          80.843          64.147          64.147 
       0.484765         79.3884         62.4889         62.4889 
       0.490885         77.3107         60.8945         60.8945 
       0.497035         76.4486         59.3551         59.3551 
       0.503198         74.5862         57.8707         57.8707 
       0.509342         72.6812          56.443          56.443 
       0.515458         71.7771         55.0683         55.0683 
       0.521598         70.0505         53.7302         53.7302 
       0.527764         69.1965         52.4277         52.4277 
       0.533884         68.0572         51.1764         51.1764 
           0.54         66.4597         49.9677         49.9677 
       0.546137         64.6004         48.7958         48.7958 
       0.552299         63.5989          47.659          47.659 
       0.558452         62.3307         46.5626         46.5626 
       0.564573         61.9158         45.5082         45.5082 
       0.570708          60.106         44.4857         44.4857 
       0.576825         59.4622         43.4984         43.4984 
       0.582926         58.5979         42.5435         42.5435 
       0.589034         57.4774         41.6154         41.6154 
       0.595184         56.6845         40.7082         40.7082 
       0.601379         55.1899         39.8218         39.8218 
       0.607522         54.3973         38.9693         38.9693 
       0.613639         53.7105         38.1463         38.1463 
       0.619772         52.7384          37.346          37.346 
       0.625918         51.8227         36.5679         36.5679 
       0.632068         51.3447         35.8121         35.8121 
       0.638161         50.2825         35.0848         35.0848 
         0.6443         49.6922         34.3726         34.3726 
       0.650464         48.5146         33.6778         33.6778 
       0.656582         48.2414         33.0073         33.0073 
       0.662703         47.6479         32.3551         32.3551 
       0.668861         46.4771         31.7171         31.7171 
       0.675024         46.0745         31.0961         31.0961 
       0.681124         45.6067         30.4983         30.4983 
       0.687237          44.694         29.9153         29.9153 
       0.693381         44.0247          29.345          29.345 
       0.699536         43.7284         28.7889         28.7889 
       0.705665         42.9361         28.2498         28.2498 
       0.711789         42.2257         27.7252         27.7252 
       0.717957          41.486         27.2105         27.2105 
        0.72409         41.1033         26.7119         26.7119 
       0.730186         40.8844          26.229          26.229 
       0.736317         40.0982         25.7556         25.7556 
       0.742472         39.6318         25.2924         25.2924 
       0.748622         38.9901         24.8411         24.8411 
        0.75476         38.1531         24.4019         24.4019 
       0.760888         38.0864         23.9742         23.9742 
       0.767043           37.41         23.5552         23.5552 
       0.773185         37.0642         23.1472         23.1472 
       0.779291         36.6074         22.7514         22.7514 
       0.785407         36.0373         22.3644         22.3644 
       0.791564         35.9161          21.984          21.984 
       0.797719         35.1928         21.6128         21.6128 
       0.803834         34.9853         21.2526         21.2526 
       0.809972         34.4022         20.8995         20.8995 
       0.816124         34.0436         20.5537         20.5537 
       0.822261         33.6617         20.2168         20.2168 
       0.828378         33.3783         19.8885         19.8885 
       0.834502         33.0132         19.5673         19.5673 
       0.840667         32.6892         19.2513         19.2513 
       0.846816         32.0214         18.9432         18.9432 
       0.852925         31.9437         18.6439         18.6439 
       0.859047          31.611         18.3505         18.3505 
       0.865192         31.1421         18.0625         18.0625 
       0.871341         30.7871         17.7806         17.7806 
       0.877463         30.4893         17.5061         17.5061 
       0.883569         30.3323         17.2381         17.2381 
       0.889708         29.8911         16.9744         16.9744 
       0.895864         29.5304         16.7157         16.7157 
       0.902008         29.1804          16.463          16.463 
       0.908149         28.9055         16.2157         16.2157 
       0.914301         28.7377         15.9731         15.9731 
       0.920448          28.344         15.7358         15.7358 
       0.926574         28.0265         15.5042         15.5042 
       0.932687         27.7529         15.2778         15.2778 
       0.938823         27.4131         15.0552         15.0552 
       0.944975         27.1924         14.8366         14.8366 
       0.951105         26.9373         14.6231         14.6231 
       0.957225         26.7819         14.4143         14.4143 
       0.963368         26.3717         14.2089         14.2089 
       0.969511         26.1571         14.0075         14.0075 
       0.975621         25.9248         13.8111         13.8111 
       0.981748         25.6162         13.6181         13.6181 
       0.987916         25.4649         13.4276         13.4276 
        0.99406         25.1569         13.2415         13.2415 
        1.00019         24.9864         13.0593         13.0593 
        1.00632         24.7615         12.8807         12.8807 
        1.01246          24.568         12.7053         12.7053 
        1.01859         24.2634         12.5334         12.5334 
        1.02471         24.0395          12.365          12.365 
        1.03085         23.9449         12.1991         12.1991 
        1.03698         23.7246         12.0366         12.0366 
        1.04314         23.4529         11.8765         11.8765 
        1.04929         23.1874         11.7196         11.7196 
        1.05541         23.0981         11.5663         11.5663 
        1.06154         22.9363         11.4153         11.4153 
        1.06769         22.6502         11.2669         11.2669 
        1.07382         22.4169         11.1216         11.1216 
        1.07993         22.2304         10.9792         10.9792 
        1.08607         22.1146         10.8388         10.8388 
        1.09222         21.8814         10.7007         10.7007 
        1.09836         21.7261         10.5651         10.5651 
        1.10449         21.5519         10.4322         10.4322 
        1.11063         21.4073         10.3013         10.3013 
        1.11677         21.3029         10.1728         10.1728 
         1.1229         21.0772         10.0468         10.0468 
        1.12903         20.9133         9.92273         9.92273 
        1.13518          20.728         9.80072         9.80072 
        1.14131         20.6006         9.68085         9.68085 
        1.14745         20.3213         9.56307         9.56307 
        1.15359          20.155         9.44726         9.44726 
        1.15973          20.013         9.33333         9.33333 
        1.16584         19.8608         9.22181         9.22181 
        1.17197         19.6667         9.11197         9.11197 
        1.17811          19.552         9.00361         9.00361 
        1.18424         19.3999         8.89734         8.89734 
        1.19038         19.3025         8.79249         8.79249 
        1.19652         19.1052         8.68939         8.68939 
        1.20267         19.0032         8.58796         8.58796 
        1.20881         18.8081         8.48819         8.48819 
        1.21495         18.6877         8.39017         8.39017 
        1.22108         18.6391         8.29373         8.29373 
         1.2272         18.4765         8.19905         8.19905 
        1.23334         18.3467         8.10565         8.10565 
        1.23949         18.1932          8.0135          8.0135 
        1.24562         18.0134         7.92304         7.92304 
        1.25174         17.9428         7.83414         7.83414 
        1.25789         17.7978         7.74634         7.74634 
        1.26402         17.7119         7.66005         7.66005 
        1.27014         17.6056         7.57531         7.57531 
        1.27628         17.3969          7.4916          7.4916 
        1.28244         17.3909         7.40901         7.40901 
        1.28858         17.1961         7.32778         7.32778 
        1.29471         17.0033         7.24797         7.24797 
        1.30084         16.9093         7.16942         7.16942 
        1.30697         16.8775         7.09193         7.09193 
        1.31312         16.7053         7.01548         7.01548 
        1.31925         16.6197         6.94041         6.94041 
        1.32537         16.4888         6.86652         6.86652 
        1.33151         16.3829         6.79345         6.79345 
        1.33765         16.2999         6.72149         6.72149 
        1.34378         16.2216         6.65073         6.65073 
        1.34992         16.0779         6.58094         6.58094 
        1.35606         15.9372         6.51202         6.51202 
         1.3622         15.8198         6.44421         6.44421 
        1.36833         15.7885         6.37754         6.37754 
        1.37445         15.6952         6.31186         6.31186 
        1.38059         15.5875         6.24691         6.24691 
        1.38675         15.4717         6.18273         6.18273 
        1.39288         15.3356         6.11971         6.11971 
        1.39901         15.2742          6.0576          6.0576 
        1.40515         15.1642         5.99623         5.99623 
         1.4113         15.0688         5.93573         5.93573 
        1.41742         15.0067         5.87631         5.87631 
        1.42355         14.8622          5.8176          5.8176 
         1.4297         14.7952         5.75952         5.75952 
        1.43585         14.7173         5.70226         5.70226 
        1.44198          14.648           5.646           5.646 
        1.44809         14.5416         5.59062         5.59062 
        1.45423         14.4387         5.53578         5.53578 
        1.46036         14.3611         5.48178         5.48178 
        1.46649         14.2687         5.42849         5.42849 
        1.47263          14.208         5.37587         5.37587 
        1.47877         14.1183         5.32398         5.32398 
        1.48491         14.0333          5.2727          5.2727 
        1.49104         13.9355         5.22221         5.22221 
        1.49718         13.8797         5.17234         5.17234 
        1.50333          13.799         5.12306         5.12306 
        1.50947         13.7184         5.07452         5.07452 
         1.5156         13.6579         5.02669         5.02669 
        1.52172         13.5563         4.97948         4.97948 
        1.52787         13.4911         4.93279         4.93279 
          1.534         13.4287         4.88675         4.88675 
        1.54013         13.3565         4.84136         4.84136 
        1.54627         13.2549         4.79646         4.79646 
        1.55241          13.157         4.75214         4.75214 
        1.55855         13.1266         4.70843         4.70843 
        1.56467         13.0543          4.6654          4.6654 
         1.5708         12.9981          4.6228          4.6228 
        1.57695         12.9016         4.58066         4.58066 
        1.58308         12.8068         4.53915         4.53915 
        1.58922         12.7681         4.49812         4.49812 
        1.59535         12.6856         4.45763         4.45763 
         1.6015         12.5734         4.41757         4.41757 
        1.60764         12.5359         4.37804         4.37804 
        1.61376         12.4937          4.3391          4.3391 
        1.61989         12.3905          4.3006          4.3006 
        1.62604         12.3638         4.26249         4.26249 
        1.63218         12.3044         4.22487         4.22487 
        1.63831         12.2059          4.1878          4.1878 
        1.64444         12.1303         4.15115         4.15115 
        1.65059         12.0615         4.11487         4.11487 
        1.65673         12.0346         4.07906         4.07906 
        1.66285         11.9485         4.04378         4.04378 
        1.66898         11.9165          4.0089          4.0089 
        1.67512         11.8532         3.97438         3.97438 
        1.68127         11.7446         3.94023         3.94023 
         1.6874         11.7277         3.90656         3.90656 
        1.69353         11.6335         3.87331         3.87331 
        1.69967         11.5868         3.84037         3.84037 
        1.70581         11.5335         3.80783         3.80783 
        1.71193         11.4881         3.77579         3.77579 
        1.71806         11.4322         3.74406         3.74406 
        1.72421         11.3514         3.71262         3.71262 
        1.73035         11.3032         3.68159         3.68159 
        1.73649         11.2704         3.65092         3.65092 
        1.74262         11.1513         3.62063         3.62063 
        1.74876         11.1569         3.59066         3.59066 
        1.75489         11.0918          3.5611          3.5611 
        1.76101         11.0114         3.53188         3.53188 
        1.76715         10.9851         3.50295         3.50295 
        1.77329         10.9265         3.47431         3.47431 
        1.77943         10.8433         3.44599         3.44599 
        1.78557         10.8401         3.41802         3.41802 
        1.79171         10.7678         3.39036         3.39036 
        1.79785         10.7393           3.363           3.363 
        1.80399         10.6459         3.33595         3.33595 
        1.81012         10.6211         3.30924         3.30924 
        1.81625         10.5414         3.28284         3.28284 
        1.82239         10.4992         3.25668         3.25668 
        1.82853         10.4423         3.23083         3.23083 
        1.83466         10.3742         3.20528         3.20528 
        1.84078         10.3586         3.18004         3.18004 
        1.84692         10.3206         3.15503         3.15503 
        1.85306         10.2686         3.13026         3.13026 
         1.8592         10.2306          3.1058          3.1058 
        1.86533         10.1654         3.08161         3.08161 
        1.87147         10.1119         3.05766         3.05766 
        1.87761         10.0785         3.03395         3.03395 
