#  k  (h/Mpc)          P(k)  (Mpc/h)^3     P_linear(k)   P_NL(k) (Mpc/h)^3
     0.00783031         13760.5         13953.5         13953.5 
       0.013688         16373.7         16229.7         16229.7 
       0.019231         15700.3         15647.4         15647.4 
      0.0249154         13578.4         13811.7         13811.7 
      0.0312784         11369.3         11440.6         11440.6 
      0.0375637         9496.12         9450.23         9450.23 
      0.0433917         8036.38         8116.46         8116.46 
      0.0492413         7214.04         7222.35         7222.35 
      0.0555754         6442.59         6581.59         6581.59 
      0.0619321         6124.92         6076.28         6076.28 
       0.067871         5498.21         5591.21         5591.21 
      0.0738098         4967.73         5042.05         5042.05 
      0.0800417          4334.3         4422.27         4422.27 
      0.0862327         3816.65         3832.46         3832.46 
      0.0921407          3413.7          3355.9          3355.9 
      0.0982031         3023.29         2986.18         2986.18 
       0.104506         2838.88          2725.2          2725.2 
       0.110769          2647.4         2556.52         2556.52 
       0.116806         2505.64         2435.34         2435.34 
       0.122832         2388.33         2315.46         2315.46 
       0.129052         2198.15         2167.86         2167.86 
       0.135211         2043.27         1994.39         1994.39 
       0.141259         1910.42         1811.83         1811.83 
       0.147318         1763.63         1637.85         1637.85 
       0.153489         1600.74          1487.7          1487.7 
       0.159709         1506.56         1372.42         1372.42 
       0.165845         1445.99         1291.76         1291.76 
       0.171974         1372.83         1234.06         1234.06 
       0.178125         1313.28         1186.08         1186.08 
       0.184229          1257.9         1136.91         1136.91 
        0.19034         1174.93         1079.65         1079.65 
       0.196428         1139.97          1014.3          1014.3 
       0.202534         1088.77         944.915         944.915 
       0.208729         1023.88         877.219         877.219 
       0.214876         969.238         818.339         818.339 
       0.220989         932.192         770.701         770.701 
       0.227147         890.225         733.296         733.296 
        0.23329          855.45         703.706         703.706 
       0.239377          837.56         678.127         678.127 
       0.245482         781.969         652.708         652.708 
       0.251667         773.679         625.046         625.046 
       0.257832          741.33         595.176         595.176 
       0.263955         713.411         564.437         564.437 
       0.270079         683.962         534.511         534.511 
        0.27624         673.131         506.975         506.975 
       0.282372         645.157         483.165         483.165 
        0.28843         630.998         463.181         463.181 
       0.294538         598.717         445.907         445.907 
       0.300721          594.82         430.188         430.188 
        0.30691         567.707         415.091         415.091 
       0.313033         555.597          399.99          399.99 
       0.319153         539.209         384.505         384.505 
       0.325316         522.734         368.733         368.733 
        0.33145         506.728         353.387         353.387 
       0.337538         497.811         339.006         339.006 
       0.343633         482.207          325.85          325.85 
       0.349808         464.744         313.846         313.846 
       0.355968         460.358         303.069         303.069 
       0.362074         452.437         293.222         293.222 
       0.368217         439.183         283.808         283.808 
       0.374374         419.792         274.596         274.596 
       0.380519         417.499         265.466         265.466 
       0.386598          405.99         256.539         256.539 
       0.392688         402.669         247.797         247.797 
        0.39888         390.994         239.266         239.266 
       0.405048         382.041          231.27          231.27 
       0.411186         375.367         223.844         223.844 
       0.417313         367.839         216.934         216.934 
       0.423458          359.99         210.439         210.439 
       0.429607         353.811         204.253         204.253 
       0.435692         344.492          198.34          198.34 
       0.441815         341.066         192.551         192.551 
       0.447964         333.346         186.875         186.875 
       0.454126         324.678         181.334         181.334 
       0.460267         318.897         176.003         176.003 
       0.466387         315.119         170.921         170.921 
        0.47254          308.29         166.054         166.054 
       0.478662         307.335         161.448         161.448 
       0.484765         296.355         157.078         157.078 
       0.490885         293.124          152.89          152.89 
       0.497035         287.713         148.836         148.836 
       0.503198         282.718           144.9           144.9 
       0.509342         280.338         141.091         141.091 
       0.515458         276.631         137.417         137.417 
       0.521598         269.922         133.848         133.848 
       0.527764         265.894         130.386         130.386 
       0.533884          263.16         127.075         127.075 
           0.54          259.23         123.895         123.895 
       0.546137         257.604         120.832         120.832 
       0.552299         252.076         117.872         117.872 
       0.558452         250.426         115.021         115.021 
       0.564573         246.696         112.274         112.274 
       0.570708          241.47         109.603         109.603 
       0.576825         237.328         107.021         107.021 
       0.582926         234.874         104.526         104.526 
       0.589034         232.451         102.108         102.108 
       0.595184         229.976         99.7515         99.7515 
       0.601379         226.722         97.4557         97.4557 
       0.607522         223.108         95.2523         95.2523 
       0.613639         221.276          93.128          93.128 
       0.619772         216.588         91.0651         91.0651 
       0.625918         215.399         89.0621         89.0621 
       0.632068         211.803         87.1192         87.1192 
       0.638161         210.664         85.2518         85.2518 
         0.6443         207.228         83.4257         83.4257 
       0.650464         204.976         81.6457         81.6457 
       0.656582         202.869         79.9297         79.9297 
       0.662703         201.955         78.2621         78.2621 
       0.668861         198.301         76.6325         76.6325 
       0.675024         195.513         75.0482         75.0482 
       0.681124         194.337         73.5252         73.5252 
       0.687237         191.906          72.042          72.042 
       0.693381         188.802         70.5936         70.5936 
       0.699536          187.35          69.183          69.183 
       0.705665         185.659         67.8174         67.8174 
       0.711789         183.579         66.4903         66.4903 
       0.717957         182.708         65.1897         65.1897 
        0.72409         180.383         63.9312         63.9312 
       0.730186         177.979         62.7135         62.7135 
       0.736317         176.048          61.521          61.521 
       0.742472         174.869          60.355          60.355 
       0.748622         173.278         59.2205         59.2205 
        0.75476         171.557         58.1175         58.1175 
       0.760888         169.493         57.0444         57.0444 
       0.767043         169.162         55.9942         55.9942 
       0.773185         167.307         54.9727         54.9727 
       0.779291         164.037         53.9825         53.9825 
       0.785407         163.553         53.0154         53.0154 
       0.791564         161.943         52.0661         52.0661 
       0.797719         159.454         51.1405         51.1405 
       0.803834         158.596         50.2434         50.2434 
       0.809972         157.584         49.3646         49.3646 
       0.816124         156.868         48.5051         48.5051 
       0.822261         155.114         47.6684         47.6684 
       0.828378          153.54          46.854          46.854 
       0.834502         153.164          46.058          46.058 
       0.840667         150.754         45.2754         45.2754 
       0.846816         149.326         44.5133         44.5133 
       0.852925         148.746         43.7735         43.7735 
       0.859047         147.195         43.0491         43.0491 
       0.865192          145.48         42.3388         42.3388 
       0.871341         144.331         41.6441         41.6441 
       0.877463         143.047         40.9681         40.9681 
       0.883569         142.748          40.309          40.309 
       0.889708         141.152          39.661          39.661 
       0.895864         139.485         39.0256         39.0256 
       0.902008         138.725         38.4055         38.4055 
       0.908149         138.194         37.7993         37.7993 
       0.914301         136.326         37.2052         37.2052 
       0.920448         135.411         36.6245         36.6245 
       0.926574         134.456         36.0582         36.0582 
       0.932687         134.301         35.5051         35.5051 
       0.938823         132.327         34.9617         34.9617 
       0.944975         131.252         34.4285         34.4285 
       0.951105         130.535         33.9082         33.9082 
       0.957225          129.33         33.3997         33.3997 
       0.963368         127.585         32.8998         32.8998 
       0.969511         127.387         32.4102         32.4102 
       0.975621         126.352         31.9331         31.9331 
       0.981748         126.036         31.4645         31.4645 
       0.987916         124.603         31.0023         31.0023 
        0.99406         123.512         30.5511         30.5511 
        1.00019         123.334         30.1099         30.1099 
        1.00632         121.935         29.6777         29.6777 
        1.01246         121.305         29.2535         29.2535 
        1.01859         120.509         28.8382         28.8382 
        1.02471         119.117         28.4315         28.4315 
        1.03085         118.126         28.0312         28.0312 
        1.03698         117.663         27.6395         27.6395 
        1.04314         116.411         27.2536         27.2536 
        1.04929         115.942          26.876          26.876 
        1.05541         115.161         26.5071         26.5071 
        1.06154         114.418         26.1442         26.1442 
        1.06769         114.157         25.7875         25.7875 
        1.07382         112.992         25.4387         25.4387 
        1.07993         112.086         25.0971         25.0971 
        1.08607         111.379         24.7603         24.7603 
        1.09222         111.072         24.4295         24.4295 
        1.09836         110.052         24.1051         24.1051 
        1.10449         108.938         23.7869         23.7869 
        1.11063         108.179         23.4742         23.4742 
        1.11677         107.743         23.1671         23.1671 
         1.1229         106.893         22.8662         22.8662 
        1.12903         106.269         22.5703         22.5703 
        1.13518         105.908         22.2794         22.2794 
        1.14131         104.854         21.9938         21.9938 
        1.14745          104.42         21.7133         21.7133 
        1.15359         103.658         21.4377         21.4377 
        1.15973          103.16         21.1668         21.1668 
        1.16584         102.094         20.9018         20.9018 
        1.17197         101.591         20.6409         20.6409 
        1.17811         101.034         20.3837         20.3837 
        1.18424         100.569         20.1316         20.1316 
        1.19038         100.177         19.8831         19.8831 
        1.19652         99.3267         19.6388         19.6388 
        1.20267         98.6086         19.3987         19.3987 
        1.20881         97.9502         19.1626         19.1626 
        1.21495         97.3301         18.9308         18.9308 
        1.22108         96.8609         18.7029         18.7029 
         1.2272         95.9262         18.4793         18.4793 
        1.23334         95.5321         18.2588         18.2588 
        1.23949          94.926         18.0414         18.0414 
        1.24562         94.3087         17.8281         17.8281 
        1.25174         93.7012         17.6186         17.6186 
        1.25789          93.275         17.4118         17.4118 
        1.26402         92.3365         17.2087         17.2087 
        1.27014         91.9794         17.0093         17.0093 
        1.27628         91.5408         16.8125         16.8125 
        1.28244         91.0235         16.6184         16.6184 
        1.28858         90.7175         16.4276         16.4276 
        1.29471         89.7967         16.2403         16.2403 
        1.30084          89.525          16.056          16.056 
        1.30697         88.7106         15.8743         15.8743 
        1.31312         88.3371         15.6952         15.6952 
        1.31925         87.6604         15.5194         15.5194 
        1.32537          87.251         15.3464         15.3464 
        1.33151         86.5012         15.1755         15.1755 
        1.33765         86.1677         15.0073         15.0073 
        1.34378         85.7289          14.842          14.842 
        1.34992         85.4162          14.679          14.679 
        1.35606         84.8132         14.5181         14.5181 
         1.3622         84.0057           14.36           14.36 
        1.36833          83.773         14.2045         14.2045 
        1.37445         83.2608         14.0514         14.0514 
        1.38059         82.6535         13.9002         13.9002 
        1.38675         82.1588         13.7507         13.7507 
        1.39288         81.9461         13.6041         13.6041 
        1.39901          81.404         13.4597         13.4597 
        1.40515         80.7648          13.317          13.317 
         1.4113         80.3905         13.1765         13.1765 
        1.41742         80.0918         13.0385         13.0385 
        1.42355         79.4937         12.9023         12.9023 
         1.4297         79.1838         12.7675         12.7675 
        1.43585         78.5106         12.6348         12.6348 
        1.44198         78.1314         12.5044         12.5044 
        1.44809         77.7426         12.3762         12.3762 
        1.45423         77.3633         12.2492         12.2492 
        1.46036         77.0133         12.1243         12.1243 
        1.46649         76.3871          12.001          12.001 
        1.47263         75.8844         11.8794         11.8794 
        1.47877         75.7712         11.7595         11.7595 
        1.48491         75.0534         11.6411         11.6411 
        1.49104         74.9069         11.5245         11.5245 
        1.49718         74.3903         11.4095         11.4095 
        1.50333         73.9989         11.2958         11.2958 
        1.50947         73.5675         11.1839         11.1839 
         1.5156         73.1627         11.0737         11.0737 
        1.52172         72.6728          10.965          10.965 
        1.52787         72.4241         10.8575         10.8575 
          1.534          71.863         10.7515         10.7515 
        1.54013         71.4947         10.6471         10.6471 
        1.54627          71.261         10.5439         10.5439 
        1.55241         70.7051         10.4421         10.4421 
        1.55855         70.4279         10.3417         10.3417 
        1.56467         70.1187         10.2429         10.2429 
         1.5708         69.6475         10.1451         10.1451 
        1.57695         69.5876         10.0485         10.0485 
        1.58308         68.8906         9.95331         9.95331 
        1.58922         68.6384         9.85931         9.85931 
        1.59535         68.3674         9.76655         9.76655 
         1.6015         67.7768         9.67486         9.67486 
        1.60764           67.53         9.58439         9.58439 
        1.61376         67.2511         9.49532         9.49532 
        1.61989         66.7884          9.4073          9.4073 
        1.62604         66.5751         9.32021         9.32021 
        1.63218         66.2411         9.23426         9.23426 
        1.63831         65.4881          9.1496          9.1496 
        1.64444         65.3542         9.06596         9.06596 
        1.65059         65.0598         8.98317         8.98317 
        1.65673         64.5516          8.9015          8.9015 
        1.66285         64.2876         8.82107         8.82107 
        1.66898         64.0786          8.7416          8.7416 
        1.67512         63.5309         8.66295         8.66295 
        1.68127          63.326          8.5852          8.5852 
         1.6874         62.9425         8.50857         8.50857 
        1.69353          62.587         8.43293         8.43293 
        1.69967         62.2653         8.35802         8.35802 
        1.70581         62.0458         8.28405         8.28405 
        1.71193         61.7912         8.21125         8.21125 
        1.71806         61.3233         8.13918         8.13918 
        1.72421         60.9718         8.06782         8.06782 
        1.73035         60.7288          7.9974          7.9974 
        1.73649         60.4672         7.92783         7.92783 
        1.74262         60.0839         7.85915         7.85915 
        1.74876         59.8305         7.79122         7.79122 
        1.75489         59.4356         7.72425         7.72425 
        1.76101         59.2642         7.65807         7.65807 
        1.76715         58.7872         7.59258         7.59258 
        1.77329         58.5375         7.52778         7.52778 
        1.77943          58.175          7.4637          7.4637 
        1.78557         58.0248         7.40046         7.40046 
        1.79171         57.6068         7.33793         7.33793 
        1.79785          57.258         7.27612         7.27612 
        1.80399          57.164         7.21503         7.21503 
        1.81012         56.8619         7.15472         7.15472 
        1.81625         56.4319         7.09512         7.09512 
        1.82239         56.2126         7.03611         7.03611 
        1.82853         55.9144          6.9778          6.9778 
        1.83466         55.6663          6.9202          6.9202 
        1.84078         55.3164         6.86332         6.86332 
        1.84692         54.9957         6.80697         6.80697 
        1.85306         54.7442         6.75119         6.75119 
         1.8592         54.4794         6.69612         6.69612 
        1.86533         54.1796          6.6417          6.6417 
        1.87147         53.7784         6.58781         6.58781 
        1.87761         53.6315          6.5345          6.5345 
