#  k  (h/Mpc)          P(k)  (Mpc/h)^3     P_linear(k)   P_NL(k) (Mpc/h)^3
     0.00783031         15007.3         15223.1         15223.1 
       0.013688         17887.1         17720.6         17720.6 
       0.019231         17146.5         17088.1         17088.1 
      0.0249154           14815         15084.6         15084.6 
      0.0312784         12408.3         12495.5         12495.5 
      0.0375637         10369.6         10321.8         10321.8 
      0.0433917         8769.08          8865.1          8865.1 
      0.0492413         7875.21         7888.56         7888.56 
      0.0555754          7025.3         7188.74         7188.74 
      0.0619321         6686.83         6636.84         6636.84 
       0.067871         5995.77         6107.05         6107.05 
      0.0738098         5418.51         5507.23         5507.23 
      0.0800417         4726.71         4830.27         4830.27 
      0.0862327         4165.64         4186.05         4186.05 
      0.0921407         3730.97         3665.53         3665.53 
      0.0982031         3304.97         3261.69         3261.69 
       0.104506         3106.62         2976.64         2976.64 
       0.110769          2896.4         2792.41         2792.41 
       0.116806         2742.43         2660.04         2660.04 
       0.122832         2612.52          2529.1          2529.1 
       0.129052         2403.02         2367.89         2367.89 
       0.135211         2235.03          2178.4          2178.4 
       0.141259            2093         1979.01         1979.01 
       0.147318         1934.63         1788.97         1788.97 
       0.153489         1756.54         1624.97         1624.97 
       0.159709         1654.65         1499.06         1499.06 
       0.165845          1589.6         1410.95         1410.95 
       0.171974         1510.05         1347.93         1347.93 
       0.178125         1443.48         1295.52         1295.52 
       0.184229         1381.61         1241.82         1241.82 
        0.19034         1292.27         1179.28         1179.28 
       0.196428         1254.31          1107.9          1107.9 
       0.202534         1198.08          1032.1          1032.1 
       0.208729         1128.24         958.156         958.156 
       0.214876         1070.36         893.851         893.851 
       0.220989         1029.61         841.822         841.822 
       0.227147         984.495         800.958         800.958 
        0.23329         945.983         768.633         768.633 
       0.239377         926.827         740.704         740.704 
       0.245482         865.609         712.935         712.935 
       0.251667         857.067         682.712         682.712 
       0.257832         820.799           650.1           650.1 
       0.263955         790.406         616.517         616.517 
       0.270079         758.302         583.831         583.831 
        0.27624         746.822         553.758         553.758 
       0.282372         715.693          527.74          527.74 
        0.28843         701.919         505.926         505.926 
       0.294538         665.629         487.047         487.047 
       0.300721         661.486         469.888         469.888 
        0.30691         631.867         453.385         453.385 
       0.313033         618.518         436.905         436.905 
       0.319153         601.548         419.978         419.978 
       0.325316         582.868         402.762         402.762 
        0.33145          565.75          385.99          385.99 
       0.337538         555.535         370.292         370.292 
       0.343633         538.921         355.913         355.913 
       0.349808         519.147         342.807         342.807 
       0.355968         514.691         331.034         331.034 
       0.362074         506.626         320.274         320.274 
       0.368217         491.517         310.001         310.001 
       0.374374         469.683         299.929         299.929 
       0.380519         467.964         289.962         289.962 
       0.386598         454.751         280.213         280.213 
       0.392688         451.565         270.658         270.658 
        0.39888         438.242         261.346         261.346 
       0.405048         428.817         252.612         252.612 
       0.411186         421.768         244.494         244.494 
       0.417313         413.168         236.954         236.954 
       0.423458         404.345         229.859         229.859 
       0.429607         397.957         223.096         223.096 
       0.435692         387.623         216.641         216.641 
       0.441815         383.699         210.322         210.322 
       0.447964         374.995         204.116         204.116 
       0.454126         366.644         198.063         198.063 
       0.460267         359.503         192.246         192.246 
       0.466387         355.221         186.695         186.695 
        0.47254         348.189         181.373         181.373 
       0.478662         346.884         176.343         176.343 
       0.484765         334.406         171.575         171.575 
       0.490885         331.059             167             167 
       0.497035         324.712         162.567         162.567 
       0.503198         319.824         158.266         158.266 
       0.509342         317.275         154.111         154.111 
       0.515458         313.306         150.101         150.101 
       0.521598          305.27         146.199         146.199 
       0.527764         300.664         142.414         142.414 
       0.533884         297.901         138.797         138.797 
           0.54         293.566         135.328         135.328 
       0.546137         291.789         131.984         131.984 
       0.552299         285.651         128.751         128.751 
       0.558452         283.988         125.634         125.634 
       0.564573         279.867          122.63          122.63 
       0.570708         274.177         119.714         119.714 
       0.576825         268.934         116.896         116.896 
       0.582926         266.756         114.174         114.174 
       0.589034         264.018         111.533         111.533 
       0.595184         261.418         108.958         108.958 
       0.601379         257.388         106.448         106.448 
       0.607522         253.648         104.039         104.039 
       0.613639         251.672         101.718         101.718 
       0.619772          246.33         99.4656         99.4656 
       0.625918         245.232         97.2799         97.2799 
       0.632068         240.922         95.1597         95.1597 
       0.638161         239.748         93.1213         93.1213 
         0.6443         235.774         91.1265         91.1265 
       0.650464         233.262         89.1811         89.1811 
       0.656582          230.96         87.3052         87.3052 
       0.662703         230.218         85.4823         85.4823 
       0.668861         226.106         83.7013         83.7013 
       0.675024         223.019         81.9705         81.9705 
       0.681124         221.465         80.3073         80.3073 
       0.687237         218.979         78.6882         78.6882 
       0.693381         215.456          77.107          77.107 
       0.699536          213.58         75.5671         75.5671 
       0.705665         211.525         74.0762         74.0762 
       0.711789         209.756          72.627          72.627 
       0.717957         208.467         71.2065         71.2065 
        0.72409         206.085         69.8318         69.8318 
       0.730186         203.374         68.5014         68.5014 
       0.736317         201.151         67.1985         67.1985 
       0.742472         199.747         65.9246         65.9246 
       0.748622          197.96         64.6849         64.6849 
        0.75476         195.879         63.4799         63.4799 
       0.760888          193.62         62.3075         62.3075 
       0.767043         193.397         61.1603         61.1603 
       0.773185         191.236         60.0445         60.0445 
       0.779291         187.571          58.963          58.963 
       0.785407         187.061         57.9068         57.9068 
       0.791564         185.048         56.8699         56.8699 
       0.797719         182.491          55.859          55.859 
       0.803834         181.319         54.8792         54.8792 
       0.809972         180.416         53.9194         53.9194 
       0.816124         179.559         52.9806         52.9806 
       0.822261         177.625         52.0667         52.0667 
       0.828378         175.753         51.1772         51.1772 
       0.834502         175.109         50.3078         50.3078 
       0.840667         172.656          49.453          49.453 
       0.846816         171.128         48.6206         48.6206 
       0.852925         170.389         47.8126         47.8126 
       0.859047         168.801         47.0213         47.0213 
       0.865192         166.595         46.2455         46.2455 
       0.871341         165.316         45.4866         45.4866 
       0.877463         164.063         44.7483         44.7483 
       0.883569         163.659         44.0283         44.0283 
       0.889708         161.674         43.3205         43.3205 
       0.895864          159.91         42.6265         42.6265 
       0.902008         158.995         41.9492         41.9492 
       0.908149         158.391         41.2871         41.2871 
       0.914301         156.113         40.6382         40.6382 
       0.920448         155.199         40.0039         40.0039 
       0.926574         153.997         39.3854         39.3854 
       0.932687         153.866         38.7813         38.7813 
       0.938823         151.724         38.1877         38.1877 
       0.944975         150.708         37.6052         37.6052 
       0.951105         149.781          37.037          37.037 
       0.957225         148.494         36.4815         36.4815 
       0.963368         146.349         35.9355         35.9355 
       0.969511         145.991         35.4007         35.4007 
       0.975621         144.657         34.8796         34.8796 
       0.981748         144.524         34.3678         34.3678 
       0.987916         142.936          33.863          33.863 
        0.99406         141.613         33.3702         33.3702 
        1.00019         141.398         32.8882         32.8882 
        1.00632         139.864         32.4162         32.4162 
        1.01246         139.024         31.9528         31.9528 
        1.01859          138.47         31.4992         31.4992 
        1.02471         136.614          31.055          31.055 
        1.03085         135.506         30.6178         30.6178 
        1.03698         134.863         30.1899         30.1899 
        1.04314         133.445         29.7684         29.7684 
        1.04929          132.98         29.3559         29.3559 
        1.05541         132.289         28.9529         28.9529 
        1.06154         131.174         28.5565         28.5565 
        1.06769         130.918         28.1669         28.1669 
        1.07382         129.531         27.7859         27.7859 
        1.07993         128.468         27.4128         27.4128 
        1.08607         127.839          27.045          27.045 
        1.09222         127.317         26.6836         26.6836 
        1.09836         126.198         26.3292         26.3292 
        1.10449         124.782         25.9817         25.9817 
        1.11063         123.887         25.6401         25.6401 
        1.11677         123.407         25.3048         25.3048 
         1.1229         122.489         24.9761         24.9761 
        1.12903         121.896         24.6529         24.6529 
        1.13518         121.235         24.3351         24.3351 
        1.14131         119.978         24.0232         24.0232 
        1.14745         119.707         23.7169         23.7169 
        1.15359         118.739         23.4158         23.4158 
        1.15973         118.042         23.1199         23.1199 
        1.16584         116.902         22.8304         22.8304 
        1.17197         116.373         22.5455         22.5455 
        1.17811         115.616         22.2646         22.2646 
        1.18424         115.142         21.9893         21.9893 
        1.19038          114.74         21.7178         21.7178 
        1.19652         113.688          21.451          21.451 
        1.20267         113.001         21.1887         21.1887 
        1.20881         112.145         20.9308         20.9308 
        1.21495         111.447         20.6777         20.6777 
        1.22108         110.816         20.4287         20.4287 
         1.2272         109.833         20.1845         20.1845 
        1.23334           109.4         19.9436         19.9436 
        1.23949         108.703         19.7061         19.7061 
        1.24562         107.976         19.4731         19.4731 
        1.25174         107.284         19.2443         19.2443 
        1.25789         106.686         19.0184         19.0184 
        1.26402          105.55         18.7965         18.7965 
        1.27014         105.066         18.5787         18.5787 
        1.27628         104.675         18.3638         18.3638 
        1.28244          104.24         18.1517         18.1517 
        1.28858         103.639         17.9434         17.9434 
        1.29471         102.561         17.7387         17.7387 
        1.30084         102.389         17.5375         17.5375 
        1.30697         101.284          17.339          17.339 
        1.31312         100.881         17.1434         17.1434 
        1.31925         100.124         16.9514         16.9514 
        1.32537         99.6915         16.7625         16.7625 
        1.33151          98.807         16.5758         16.5758 
        1.33765           98.36          16.392          16.392 
        1.34378         97.8768         16.2114         16.2114 
        1.34992         97.5497         16.0334         16.0334 
        1.35606         96.9509         15.8577         15.8577 
         1.3622         95.9711          15.685          15.685 
        1.36833         95.4981         15.5152         15.5152 
        1.37445          95.029          15.348          15.348 
        1.38059         94.3294         15.1828         15.1828 
        1.38675         93.7629         15.0196         15.0196 
        1.39288         93.5556         14.8594         14.8594 
        1.39901          92.938         14.7016         14.7016 
        1.40515         92.1144         14.5458         14.5458 
         1.4113         91.7283         14.3923         14.3923 
        1.41742         91.1872         14.2416         14.2416 
        1.42355          90.619         14.0928         14.0928 
         1.4297         90.2034         13.9457         13.9457 
        1.43585          89.433         13.8007         13.8007 
        1.44198         89.0623         13.6583         13.6583 
        1.44809         88.6022         13.5182         13.5182 
        1.45423         88.1705         13.3795         13.3795 
        1.46036         87.6702         13.2431         13.2431 
        1.46649         86.9563         13.1084         13.1084 
        1.47263          86.363         12.9756         12.9756 
        1.47877         86.1565         12.8446         12.8446 
        1.48491         85.3502         12.7153         12.7153 
        1.49104         85.2068         12.5879         12.5879 
        1.49718         84.6062         12.4623         12.4623 
        1.50333         84.1608         12.3381         12.3381 
        1.50947         83.6411         12.2159         12.2159 
         1.5156         83.1578         12.0955         12.0955 
        1.52172         82.6112         11.9767         11.9767 
        1.52787         82.1944         11.8593         11.8593 
          1.534         81.6608         11.7436         11.7436 
        1.54013         81.2649         11.6296         11.6296 
        1.54627         80.9018         11.5168         11.5168 
        1.55241         80.2975         11.4056         11.4056 
        1.55855         79.8841         11.2959         11.2959 
        1.56467          79.628          11.188          11.188 
         1.5708         78.9423         11.0812         11.0812 
        1.57695         78.8903         10.9757         10.9757 
        1.58308         78.2319         10.8717         10.8717 
        1.58922         77.9127          10.769          10.769 
        1.59535         77.4644         10.6677         10.6677 
         1.6015         76.9222         10.5676         10.5676 
        1.60764         76.5175         10.4687         10.4687 
        1.61376         76.2848         10.3714         10.3714 
        1.61989         75.6974         10.2753         10.2753 
        1.62604         75.3998         10.1802         10.1802 
        1.63218         75.1071         10.0863         10.0863 
        1.63831         74.2373         9.99382         9.99382 
        1.64444         74.0156         9.90246         9.90246 
        1.65059         73.6491         9.81203         9.81203 
        1.65673         73.0298         9.72282         9.72282 
        1.66285         72.8073         9.63497         9.63497 
        1.66898         72.5569         9.54817         9.54817 
        1.67512         71.9035         9.46227         9.46227 
        1.68127         71.6604         9.37735         9.37735 
         1.6874         71.1217         9.29365         9.29365 
        1.69353         70.7315         9.21103         9.21103 
        1.69967         70.4747         9.12921         9.12921 
        1.70581         70.0974         9.04842         9.04842 
        1.71193         69.7364         8.96891         8.96891 
        1.71806         69.3524         8.89019         8.89019 
        1.72421         68.8287         8.81225         8.81225 
        1.73035          68.578         8.73534         8.73534 
        1.73649         68.2869         8.65936         8.65936 
        1.74262         67.7456         8.58434         8.58434 
        1.74876         67.5201         8.51015         8.51015 
        1.75489         67.0269           8.437           8.437 
        1.76101         66.7644         8.36472         8.36472 
        1.76715         66.2591         8.29319         8.29319 
        1.77329         66.0125          8.2224          8.2224 
        1.77943          65.537         8.15241         8.15241 
        1.78557         65.4118         8.08333         8.08333 
        1.79171         64.7999         8.01504         8.01504 
        1.79785         64.4686         7.94752         7.94752 
        1.80399         64.2613         7.88079         7.88079 
        1.81012          63.978         7.81491         7.81491 
        1.81625         63.5552         7.74981         7.74981 
        1.82239         63.2472         7.68536         7.68536 
        1.82853         62.9491         7.62166         7.62166 
        1.83466         62.6139         7.55875         7.55875 
        1.84078         62.1945         7.49662         7.49662 
        1.84692         61.9107         7.43508         7.43508 
        1.85306         61.5481         7.37415         7.37415 
         1.8592         61.3129           7.314           7.314 
        1.86533         60.8856         7.25455         7.25455 
        1.87147         60.4291          7.1957          7.1957 
        1.87761         60.2451         7.13747         7.13747 
