#  k  (h/Mpc)          P(k)  (Mpc/h)^3     P_linear(k)   P_NL(k) (Mpc/h)^3
     0.00783031         1288.45         1295.82          1295.1 
       0.013688         1713.44         1732.74         1726.98 
       0.019231         1862.33          1871.9         1862.72 
      0.0249154         1837.99         1838.72         1831.65 
      0.0312784         1687.12         1691.61         1687.23 
      0.0375637         1506.34         1513.16         1509.52 
      0.0433917         1362.68            1362         1359.14 
      0.0492413         1237.29         1241.06         1238.43 
      0.0555754         1145.96         1144.77         1141.79 
      0.0619321         1061.48         1073.01         1069.81 
       0.067871         1010.44         1014.97         1011.32 
      0.0738098         952.015          955.06         950.227 
      0.0800417         883.766         884.671         880.062 
      0.0862327         805.199         808.077         804.738 
      0.0921407         731.202         734.046         731.193 
      0.0982031         664.291         663.731         662.411 
       0.104506         598.865         602.184         602.109 
       0.110769         552.655         554.984         554.279 
       0.116806         523.773         521.586         520.773 
       0.122832         495.257         496.786         496.302 
       0.129052         475.777         475.647           475.1 
       0.135211         457.081         454.972          454.48 
       0.141259          431.93         432.274         432.255 
       0.147318         403.511         406.493         407.355 
       0.153489         377.732         378.242         378.333 
       0.159709         352.032         349.991         351.142 
       0.165845         323.072         324.624         327.525 
       0.171974         307.296         303.314         306.178 
       0.178125         290.771         286.435         290.495 
       0.184229         275.346         273.597         277.758 
        0.19034         267.543         263.408         267.477 
       0.196428         258.255         254.414         257.614 
       0.202534         245.715         245.237         248.696 
       0.208729         238.152         234.946         238.257 
       0.214876         228.616         223.617         228.177 
       0.220989         213.303         211.689         216.721 
       0.227147         205.523          199.78         204.898 
        0.23329         195.475         188.785          195.01 
       0.239377         187.096         179.302         186.129 
       0.245482         178.151         171.382         177.691 
       0.251667         170.674         164.808         171.728 
       0.257832         167.265         159.285         166.122 
       0.263955         160.177         154.298         160.883 
       0.270079         155.139         149.334         155.718 
        0.27624         148.744         144.076         150.185 
       0.282372         143.793         138.503         144.948 
        0.28843         140.636         132.787         139.363 
       0.294538         134.295         127.062         134.074 
       0.300721         128.022         121.573         129.146 
        0.30691         124.764         116.599         124.349 
       0.313033         119.846         112.271         119.892 
       0.319153         117.567          108.51         116.569 
       0.325316         112.521         105.152         113.498 
        0.33145         109.289         102.072         109.979 
       0.337538         106.427         99.0991          106.82 
       0.343633         103.515         96.0987         103.939 
       0.349808         100.262         92.9851         101.028 
       0.355968         97.0814         89.8305         98.4809 
       0.362074         94.9249         86.7305         95.2141 
       0.368217         92.0707         83.7245         91.7682 
       0.374374         90.0722         80.9067          89.416 
       0.380519         86.2214          78.324         86.7046 
       0.386598         83.8566         75.9992         84.5142 
       0.392688         81.5524         73.8643         82.4939 
        0.39888         80.0247         71.8321         80.2404 
       0.405048          78.191         69.8915         78.2307 
       0.411186         76.2298         67.9932         76.8083 
       0.417313         74.2045         66.1032         74.5105 
       0.423458          72.128         64.2186          72.785 
       0.429607         70.8889         62.3563         70.8105 
       0.435692          69.526         60.5646         69.2289 
       0.441815         66.9845         58.8422         67.8982 
       0.447964         65.0317         57.2092         66.0393 
       0.454126          63.905         55.6725         64.3825 
       0.460267         63.2912         54.2366         63.1675 
       0.466387         61.5213         52.8823         61.6123 
        0.47254         60.6332         51.5743         60.4173 
       0.478662         58.8164         50.3098         59.0606 
       0.484765         57.6435         49.0764          57.746 
       0.490885         56.0832         47.8598          56.862 
       0.497035         55.1942         46.6581         55.7427 
       0.503198         53.8953         45.4854         54.2504 
       0.509342         52.5382         44.3568         53.2906 
       0.515458         51.8902         43.2781         52.5184 
       0.521598         50.6805         42.2413         51.0498 
       0.527764         50.0507         41.2473         49.8888 
       0.533884         48.8771         40.3046         48.9991 
           0.54         47.9087         39.3982         48.0663 
       0.546137         46.5284         38.5163         47.3546 
       0.552299         45.8049         37.6529         46.2332 
       0.558452         44.9147         36.8117         45.3533 
       0.564573         44.4779         35.9955         44.7941 
       0.570708         43.3066         35.1983          43.945 
       0.576825         42.7265         34.4252         43.1395 
       0.582926         41.9982         33.6773         42.4415 
       0.589034         41.2188         32.9535         41.7955 
       0.595184          40.676         32.2508         40.8507 
       0.601379         39.5935         31.5688         40.3598 
       0.607522         39.0417          30.915         39.5366 
       0.613639         38.3724         30.2832         38.8773 
       0.619772         37.7862         29.6666         38.3155 
       0.625918          37.019         29.0641         37.7425 
       0.632068         36.7245         28.4766         37.0112 
       0.638161         35.9629         27.9097         36.4214 
         0.6443         35.4253          27.354         35.7761 
       0.650464         34.5564         26.8116         35.3519 
       0.656582         34.3619         26.2883         34.8035 
       0.662703         33.9621         25.7793         34.1981 
       0.668861          33.084         25.2814          33.788 
       0.675024         32.6957         24.7971          33.149 
       0.681124          32.475          24.331         32.6682 
       0.687237         31.8446         23.8765         32.1018 
       0.693381          31.174          23.432         31.6488 
       0.699536         31.0526         22.9982         31.2403 
       0.705665         30.4794         22.5773         30.9139 
       0.711789         29.9292         22.1672         30.3508 
       0.717957         29.3445         21.7643         29.9232 
        0.72409         29.1117         21.3734         29.5726 
       0.730186         28.9428         20.9945         29.0986 
       0.736317         28.3637         20.6227         28.6918 
       0.742472          28.014         20.2587         28.4619 
       0.748622         27.5728          19.904         27.9691 
        0.75476         26.9051         19.5589         27.5708 
       0.760888         26.7965         19.2227          27.254 
       0.767043         26.3493         18.8934         26.9637 
       0.773185         26.0872         18.5727         26.6041 
       0.779291         25.8696         18.2614         26.2977 
       0.785407         25.4046         17.9569          25.923 
       0.791564         25.2131         17.6576         25.6098 
       0.797719         24.7009         17.3653         25.2366 
       0.803834         24.5772         17.0815         24.8989 
       0.809972         24.1245          16.803          24.718 
       0.816124          23.867         16.5303          24.326 
       0.822261         23.6035         16.2644         24.0073 
       0.828378         23.3277         16.0052          23.737 
       0.834502         23.1012         15.7515         23.5333 
       0.840667         22.8686         15.5017         23.1872 
       0.846816         22.3863         15.2581         22.9636 
       0.852925         22.2898         15.0214         22.8152 
       0.859047         22.0169         14.7893         22.4413 
       0.865192         21.7212         14.5613         22.1882 
       0.871341         21.4286         14.3382         21.9954 
       0.877463         21.2331         14.1207          21.705 
       0.883569         21.0959         13.9084         21.5151 
       0.889708          20.751         13.6994         21.2427 
       0.895864         20.5047         13.4943         20.9872 
       0.902008         20.2501         13.2938         20.8009 
       0.908149         20.0095         13.0976         20.5851 
       0.914301         19.9149         12.9051         20.4287 
       0.920448         19.6065         12.7166         20.1139 
       0.926574         19.4767         12.5327         19.9192 
       0.932687         19.2094         12.3528         19.6405 
       0.938823         18.9762         12.1759         19.5066 
       0.944975         18.8106          12.002         19.2877 
       0.951105          18.596         11.8323         19.0363 
       0.957225         18.4925         11.6661         18.9625 
       0.963368         18.2273         11.5026         18.7104 
       0.969511         18.0412         11.3423         18.5622 
       0.975621         17.8609         11.1859         18.3257 
       0.981748         17.6258         11.0321          18.184 
       0.987916         17.5031         10.8803         18.0005 
        0.99406         17.3576         10.7319         17.8306 
        1.00019         17.1955         10.5866         17.6908 
        1.00632         17.0344         10.4442         17.5192 
        1.01246         16.8776         10.3042         17.4104 
        1.01859         16.6685          10.167         17.1894 
        1.02471         16.4745         10.0325         16.9879 
        1.03085         16.4234         9.90007         16.8604 
        1.03698         16.2539          9.7703          16.723 
        1.04314         16.0665         9.64233          16.541 
        1.04929          15.854         9.51697         16.4163 
        1.05541         15.7926         9.39438         16.2886 
        1.06154         15.6534         9.27367         16.1225 
        1.06769         15.5525         9.15492         15.9944 
        1.07382         15.2951         9.03866         15.8636 
        1.07993         15.1627          8.9247         15.7233 
        1.08607         15.0974         8.81227         15.5572 
        1.09222         14.9013         8.70168         15.4305 
        1.09836         14.8673         8.59313         15.2792 
        1.10449         14.6223         8.48659         15.1545 
        1.11063         14.5763         8.38176         15.0471 
        1.11677         14.4663         8.27876         14.9082 
         1.1229         14.3345         8.17768         14.8021 
        1.12903         14.2369         8.07823         14.7231 
        1.13518         14.0196         7.98036         14.5863 
        1.14131         13.9462         7.88419         14.4406 
        1.14745         13.7606         7.78967         14.2877 
        1.15359         13.6687          7.6967         14.2006 
        1.15973         13.5463         7.60523          14.092 
        1.16584         13.4452         7.51567         14.0269 
        1.17197         13.3262         7.42744         13.8925 
        1.17811         13.2096         7.34037         13.7605 
        1.18424         13.1191         7.25497         13.6688 
        1.19038         13.0399         7.17069         13.5553 
        1.19652         12.9328         7.08779         13.4623 
        1.20267         12.8258         7.00622         13.3287 
        1.20881         12.6994         6.92597         13.2819 
        1.21495         12.5938         6.84711         13.1646 
        1.22108         12.5441         6.76951         13.0688 
         1.2272         12.4221          6.6933         12.9383 
        1.23334         12.3737          6.6181         12.8674 
        1.23949         12.2406         6.54389         12.7827 
        1.24562          12.137         6.47104         12.6683 
        1.25174         12.0681         6.39941         12.5837 
        1.25789         11.9125         6.32866         12.4889 
        1.26402         11.8817         6.25912         12.3742 
        1.27014         11.8098          6.1908         12.3057 
        1.27628         11.6574          6.1233         12.2332 
        1.28244         11.6444         6.05669         12.1607 
        1.28858         11.5529         5.99117         12.0528 
        1.29471         11.3905         5.92677         11.9705 
        1.30084         11.3213         5.86339         11.9145 
        1.30697         11.2955         5.80085         11.8108 
        1.31312         11.1779         5.73914          11.741 
        1.31925          11.108         5.67853          11.679 
        1.32537         11.0383         5.61886         11.5994 
        1.33151         10.9479         5.55984         11.5098 
        1.33765          10.861         5.50172         11.4148 
        1.34378         10.8416         5.44455          11.363 
        1.34992         10.7312         5.38816         11.2823 
        1.35606         10.6488         5.33246         11.1795 
         1.3622         10.5674         5.27765         11.1168 
        1.36833         10.5057         5.22374         11.0847 
        1.37445         10.4292         5.17063         10.9921 
        1.38059         10.3746          5.1181         10.9093 
        1.38675         10.2879         5.06618         10.8523 
        1.39288         10.2039         5.01519         10.7788 
        1.39901         10.1361         4.96493         10.7207 
        1.40515         10.0712         4.91526         10.6521 
         1.4113         9.99568         4.86629         10.5795 
        1.41742         9.94812         4.81818         10.5156 
        1.42355         9.85991         4.77063         10.4415 
         1.4297         9.82219         4.72359          10.393 
        1.43585         9.75929         4.67721         10.3398 
        1.44198         9.68845         4.63164         10.2497 
        1.44809         9.63941         4.58676         10.2139 
        1.45423         9.55569         4.54232         10.1428 
        1.46036         9.50966         4.49855         10.0783 
        1.46649         9.44192         4.45535         10.0271 
        1.47263         9.39378         4.41269         9.97333 
        1.47877         9.32667         4.37061         9.90963 
        1.48491          9.2824         4.32901          9.8459 
        1.49104         9.19872         4.28805         9.78865 
        1.49718         9.17048          4.2476         9.73516 
        1.50333         9.10129          4.2076         9.68649 
        1.50947          9.0187         4.16821         9.63338 
         1.5156         9.00784         4.12938         9.57606 
        1.52172          8.9491         4.09105         9.51733 
        1.52787         8.88997         4.05314         9.45122 
          1.534         8.83599         4.01575         9.39787 
        1.54013          8.7874         3.97888         9.34971 
        1.54627         8.73297         3.94241         9.30453 
        1.55241         8.66029         3.90639          9.2556 
        1.55855         8.64432         3.87088         9.19211 
        1.56467         8.57264         3.83591         9.15524 
         1.5708          8.5306         3.80127         9.11592 
        1.57695         8.45785         3.76702         9.05666 
        1.58308         8.40543         3.73327         9.01055 
        1.58922         8.37495         3.69991         8.96808 
        1.59535         8.32249         3.66698         8.91053 
         1.6015         8.25769         3.63441         8.85597 
        1.60764          8.2333         3.60225          8.8189 
        1.61376         8.19583         3.57057         8.78438 
        1.61989         8.11085         3.53925         8.73722 
        1.62604         8.08759         3.50823          8.6849 
        1.63218         8.04359         3.47762         8.64208 
        1.63831          8.0077         3.44744         8.60174 
        1.64444         7.93938         3.41761         8.54793 
        1.65059         7.90329         3.38806         8.50469 
        1.65673         7.87286          3.3589         8.46412 
        1.66285         7.82771         3.33017         8.42379 
        1.66898         7.77122         3.30176         8.38511 
        1.67512         7.72598         3.27364          8.3452 
        1.68127         7.67954         3.24581         8.30279 
         1.6874         7.65722         3.21838         8.25875 
        1.69353         7.59605         3.19128         8.21423 
        1.69967         7.56704         3.16443         8.17071 
        1.70581         7.51062         3.13791         8.13838 
        1.71193         7.49367         3.11179         8.10957 
        1.71806         7.45441         3.08591         8.06615 
        1.72421         7.39752         3.06028         8.02391 
        1.73035         7.35939         3.03498         7.98119 
        1.73649         7.32646         3.00996         7.93759 
        1.74262         7.27884         2.98526          7.9029 
        1.74876         7.26173         2.96081         7.87264 
        1.75489         7.21792         2.93669         7.83353 
        1.76101          7.1658         2.91285         7.78533 
        1.76715         7.15216         2.88924         7.74813 
        1.77329         7.11347         2.86587         7.71928 
        1.77943         7.05705         2.84275         7.68713 
        1.78557         7.03844         2.81991         7.64757 
        1.79171         7.01031         2.79733         7.60825 
        1.79785         6.96304         2.77499         7.57169 
        1.80399          6.9059         2.75291         7.53896 
        1.81012         6.88967         2.73109         7.51618 
        1.81625         6.85358         2.70952         7.48576 
        1.82239         6.81708         2.68816         7.44641 
        1.82853         6.77946         2.66703         7.41752 
        1.83466         6.73463         2.64616         7.39219 
        1.84078         6.71067         2.62553         7.35669 
        1.84692         6.68093         2.60509         7.30545 
        1.85306         6.64819         2.58484         7.27182 
         1.8592         6.62832         2.56485         7.25292 
        1.86533         6.58979         2.54507         7.22176 
        1.87147         6.54983         2.52549         7.18706 
        1.87761         6.53563          2.5061         7.15556 
