#  k  (h/Mpc)          P(k)  (Mpc/h)^3     P_linear(k)   P_NL(k) (Mpc/h)^3
     0.00783031         9550.15         9608.15         9608.15 
       0.013688         10954.9         11186.3         11186.3 
       0.019231         10670.6         10787.7         10787.7 
      0.0249154         9566.27         9523.24         9523.24 
      0.0312784         7862.96         7888.87         7888.87 
      0.0375637         6460.96         6516.63         6516.63 
      0.0433917         5603.69         5597.02         5597.02 
      0.0492413          4958.9         4980.52         4980.52 
      0.0555754         4549.87         4538.71         4538.71 
      0.0619321         4101.78         4190.28         4190.28 
       0.067871         3824.69         3855.79         3855.79 
      0.0738098         3474.68          3477.1          3477.1 
      0.0800417         3068.25         3049.69         3049.69 
      0.0862327         2656.86         2642.96         2642.96 
      0.0921407         2342.61         2314.32         2314.32 
      0.0982031         2113.68         2059.35         2059.35 
       0.104506         1902.02         1879.37         1879.37 
       0.110769         1790.39         1763.06         1763.06 
       0.116806         1726.11         1679.49         1679.49 
       0.122832         1623.15         1596.81         1596.81 
       0.129052         1524.59         1495.03         1495.03 
       0.135211         1432.67         1375.39         1375.39 
       0.141259         1296.65          1249.5          1249.5 
       0.147318         1171.58         1129.52         1129.52 
       0.153489         1080.96         1025.97         1025.97 
       0.159709         1021.52         946.472         946.472 
       0.165845          940.43         890.844         890.844 
       0.171974         922.671         851.051         851.051 
       0.178125         888.307         817.966         817.966 
       0.184229         830.338         784.055         784.055 
        0.19034          804.88         744.573         744.573 
       0.196428         767.724         699.501         699.501 
       0.202534         705.765         651.646         651.646 
       0.208729         682.262         604.959         604.959 
       0.214876         646.036         564.358         564.358 
       0.220989         602.066         531.508         531.508 
       0.227147         586.912         505.708         505.708 
        0.23329          564.79         485.299         485.299 
       0.239377         554.784         467.665         467.665 
       0.245482         526.644         450.132         450.132 
       0.251667         504.223          431.05          431.05 
       0.257832         495.002         410.459         410.459 
       0.263955         465.028         389.256         389.256 
       0.270079         445.002         368.619         368.619 
        0.27624         424.565         349.631         349.631 
       0.282372         412.826         333.204         333.204 
        0.28843         408.335         319.431         319.431 
       0.294538           387.4         307.511         307.511 
       0.300721         374.636         296.677         296.677 
        0.30691         367.804         286.258         286.258 
       0.313033         350.457         275.853         275.853 
       0.319153         343.736         265.165         265.165 
       0.325316         334.928         254.296         254.296 
        0.33145         325.161         243.706         243.706 
       0.337538         312.672         233.795         233.795 
       0.343633         302.429         224.716         224.716 
       0.349808         293.897         216.441         216.441 
       0.355968         287.435         209.008         209.008 
       0.362074         278.244         202.214         202.214 
       0.368217         274.652         195.728         195.728 
       0.374374         267.988         189.369         189.369 
       0.380519         256.769         183.076         183.076 
       0.386598         252.496         176.921         176.921 
       0.392688         245.193         170.888         170.888 
        0.39888          239.41         165.009         165.009 
       0.405048         233.786         159.494         159.494 
       0.411186         231.587         154.368         154.368 
       0.417313          226.63         149.608         149.608 
       0.423458         220.577         145.128         145.128 
       0.429607          214.43         140.858         140.858 
       0.435692         210.685         136.783         136.783 
       0.441815         206.272         132.793         132.793 
       0.447964         200.017         128.875         128.875 
       0.454126         196.895         125.053         125.053 
       0.460267          194.25          121.38          121.38 
       0.466387         189.619         117.875         117.875 
        0.47254         187.145         114.515         114.515 
       0.478662         181.459         111.339         111.339 
       0.484765         178.821         108.329         108.329 
       0.490885         175.927          105.44          105.44 
       0.497035         173.357         102.642         102.642 
       0.503198         171.085         99.9261         99.9261 
       0.509342         166.535         97.3024         97.3024 
       0.515458         163.904         94.7705         94.7705 
       0.521598         159.951         92.3072         92.3072 
       0.527764          158.42         89.9174         89.9174 
       0.533884         157.197         87.6339         87.6339 
           0.54          153.35         85.4433         85.4433 
       0.546137         149.739         83.3323         83.3323 
       0.552299         147.952         81.2908         81.2908 
       0.558452         145.324         79.3225         79.3225 
       0.564573         144.414         77.4263         77.4263 
       0.570708          140.67         75.5847         75.5847 
       0.576825          138.75         73.8059         73.8059 
       0.582926         137.245         72.0871         72.0871 
       0.589034         134.873         70.4198         70.4198 
       0.595184         133.412         68.7939         68.7939 
       0.601379         130.807         67.2088         67.2088 
       0.607522         127.972         65.6878         65.6878 
       0.613639         127.004         64.2225         64.2225 
       0.619772         125.323         62.8006         62.8006 
       0.625918         124.147         61.4206         61.4206 
       0.632068         121.232         60.0819         60.0819 
       0.638161         120.032         58.7949         58.7949 
         0.6443         119.108         57.5354         57.5354 
       0.650464         116.534         56.3071         56.3071 
       0.656582         115.859         55.1227         55.1227 
       0.662703         114.466         53.9718         53.9718 
       0.668861         112.022         52.8473         52.8473 
       0.675024         111.903         51.7545         51.7545 
       0.681124         109.994         50.7044         50.7044 
       0.687237         108.502         49.6821         49.6821 
       0.693381         107.176         48.6838         48.6838 
       0.699536         106.034         47.7115         47.7115 
       0.705665         104.681         46.7702         46.7702 
       0.711789         103.127         45.8552         45.8552 
       0.717957         101.922         44.9584         44.9584 
        0.72409           100.8         44.0904         44.0904 
       0.730186         100.587         43.2504         43.2504 
       0.736317          99.002         42.4277         42.4277 
       0.742472         97.2907         41.6234         41.6234 
       0.748622         95.7979         40.8408         40.8408 
        0.75476         95.9989         40.0799         40.0799 
       0.760888         94.8857         39.3397         39.3397 
       0.767043         93.0197         38.6154         38.6154 
       0.773185         91.8618         37.9109         37.9109 
       0.779291          90.892         37.2281         37.2281 
       0.785407         90.0583         36.5612         36.5612 
       0.791564         89.3892         35.9065         35.9065 
       0.797719         87.9951         35.2682         35.2682 
       0.803834           87.76         34.6496         34.6496 
       0.809972         86.9112         34.0436         34.0436 
       0.816124         85.4974         33.4509         33.4509 
       0.822261         84.6442         32.8739         32.8739 
       0.828378         84.3791         32.3123         32.3123 
       0.834502         83.2748         31.7633         31.7633 
       0.840667         82.6496         31.2236         31.2236 
       0.846816         81.6937          30.698          30.698 
       0.852925         80.7884         30.1879         30.1879 
       0.859047         80.2149         29.6883         29.6883 
       0.865192         79.3551         29.1985         29.1985 
       0.871341         78.5697         28.7194         28.7194 
       0.877463         77.8748         28.2532         28.2532 
       0.883569         77.7056         27.7986         27.7986 
       0.889708          76.881         27.3517         27.3517 
       0.895864         76.1923         26.9135         26.9135 
       0.902008         75.2255         26.4859         26.4859 
       0.908149         74.2924         26.0678         26.0678 
       0.914301         74.0763         25.6581         25.6581 
       0.920448         73.9439         25.2576         25.2576 
       0.926574         72.2993         24.8671         24.8671 
       0.932687         72.1333         24.4857         24.4857 
       0.938823         71.5782          24.111          24.111 
       0.944975          70.729         23.7432         23.7432 
       0.951105         70.0762         23.3844         23.3844 
       0.957225         69.8615         23.0337         23.0337 
       0.963368         69.0707         22.6889         22.6889 
       0.969511         68.6134         22.3513         22.3513 
       0.975621         67.7755         22.0223         22.0223 
       0.981748         67.2958         21.6991         21.6991 
       0.987916         66.7501         21.3804         21.3804 
        0.99406         66.5294         21.0693         21.0693 
        1.00019         65.6545          20.765          20.765 
        1.00632         65.0947          20.467          20.467 
        1.01246         64.7268         20.1744         20.1744 
        1.01859         64.3939          19.888          19.888 
        1.02471         63.8158         19.6075         19.6075 
        1.03085         63.1886         19.3314         19.3314 
        1.03698         62.7299         19.0613         19.0613 
        1.04314         62.2465         18.7952         18.7952 
        1.04929         61.8168         18.5347         18.5347 
        1.05541          61.341         18.2803         18.2803 
        1.06154         60.8839           18.03           18.03 
        1.06769         60.4343          17.784          17.784 
        1.07382         59.8395         17.5435         17.5435 
        1.07993         59.6289         17.3079         17.3079 
        1.08607         59.1427         17.0757         17.0757 
        1.09222         58.8329         16.8475         16.8475 
        1.09836         58.2966         16.6238         16.6238 
        1.10449         57.9134         16.4044         16.4044 
        1.11063         57.4457         16.1887         16.1887 
        1.11677         57.1703          15.977          15.977 
         1.1229         56.5692         15.7694         15.7694 
        1.12903         56.3383         15.5653         15.5653 
        1.13518         55.9903         15.3647         15.3647 
        1.14131          55.518         15.1677         15.1677 
        1.14745         55.2324         14.9744         14.9744 
        1.15359          54.507         14.7843         14.7843 
        1.15973           54.48         14.5975         14.5975 
        1.16584         54.0594         14.4147         14.4147 
        1.17197         53.6457         14.2348         14.2348 
        1.17811          53.266         14.0574         14.0574 
        1.18424         52.6623         13.8836         13.8836 
        1.19038         52.5562         13.7122         13.7122 
        1.19652          52.242         13.5437         13.5437 
        1.20267         51.7969         13.3781         13.3781 
        1.20881         51.4669         13.2153         13.2153 
        1.21495         51.1434         13.0555         13.0555 
        1.22108         51.0246         12.8983         12.8983 
         1.2272         50.4457         12.7441         12.7441 
        1.23334         50.2799          12.592          12.592 
        1.23949         49.9058         12.4421         12.4421 
        1.24562         49.4987          12.295          12.295 
        1.25174         49.2644         12.1505         12.1505 
        1.25789         49.0717         12.0078         12.0078 
        1.26402         48.7043         11.8678         11.8678 
        1.27014         48.4785         11.7302         11.7302 
        1.27628         48.0265         11.5945         11.5945 
        1.28244         47.9906         11.4607         11.4607 
        1.28858         47.5237         11.3291         11.3291 
        1.29471         47.1424         11.1999         11.1999 
        1.30084         46.7024         11.0728         11.0728 
        1.30697          46.768         10.9475         10.9475 
        1.31312         46.4093          10.824          10.824 
        1.31925         45.9996         10.7028         10.7028 
        1.32537         45.7637         10.5835         10.5835 
        1.33151         45.4947         10.4656         10.4656 
        1.33765         45.2585         10.3496         10.3496 
        1.34378         44.9706         10.2356         10.2356 
        1.34992         44.7398         10.1232         10.1232 
        1.35606         44.3583         10.0123         10.0123 
         1.3622         44.2242         9.90317         9.90317 
        1.36833         43.9886         9.79597         9.79597 
        1.37445         43.5611         9.69042         9.69042 
        1.38059         43.4296         9.58609         9.58609 
        1.38675         43.0325         9.48305         9.48305 
        1.39288         42.9345         9.38193         9.38193 
        1.39901          42.553         9.28233         9.28233 
        1.40515         42.4134         9.18395         9.18395 
         1.4113         42.2449         9.08704         9.08704 
        1.41742         41.9107         8.99189         8.99189 
        1.42355         41.7321         8.89792         8.89792 
         1.4297         41.5418         8.80502         8.80502 
        1.43585          41.249         8.71347         8.71347 
        1.44198         40.9569         8.62358         8.62358 
        1.44809         40.6437         8.53512         8.53512 
        1.45423         40.5357         8.44757         8.44757 
        1.46036         40.3523         8.36141         8.36141 
        1.46649         40.0357         8.27641         8.27641 
        1.47263         39.8414         8.19253         8.19253 
        1.47877         39.6507         8.10984         8.10984 
        1.48491         39.3807         8.02816         8.02816 
        1.49104         39.1386         7.94778         7.94778 
        1.49718         38.9896         7.86843         7.86843 
        1.50333         38.8114         7.79003         7.79003 
        1.50947         38.5312         7.71286         7.71286 
         1.5156         38.4222         7.63685         7.63685 
        1.52172          38.089         7.56186         7.56186 
        1.52787         37.9505         7.48773         7.48773 
          1.534           37.67         7.41467         7.41467 
        1.54013         37.6802         7.34267         7.34267 
        1.54627         37.2868         7.27149         7.27149 
        1.55241         37.1403         7.20124         7.20124 
        1.55855         36.9355         7.13201         7.13201 
        1.56467         36.6394         7.06389         7.06389 
         1.5708         36.6323         6.99646         6.99646 
        1.57695         36.3802         6.92981         6.92981 
        1.58308         36.1552         6.86418         6.86418 
        1.58922         35.9431         6.79935         6.79935 
        1.59535          35.896         6.73538         6.73538 
         1.6015         35.7622         6.67215         6.67215 
        1.60764          35.444         6.60975         6.60975 
        1.61376         35.2638         6.54833         6.54833 
        1.61989         34.9847         6.48763         6.48763 
        1.62604         34.8721         6.42756         6.42756 
        1.63218         34.5904         6.36829         6.36829 
        1.63831         34.5312          6.3099          6.3099 
        1.64444         34.3867         6.25222         6.25222 
        1.65059         34.1171         6.19512         6.19512 
        1.65673         33.9716          6.1388          6.1388 
        1.66285         33.8506         6.08333         6.08333 
        1.66898         33.6095         6.02852         6.02852 
        1.67512          33.415         5.97429         5.97429 
        1.68127         33.3191         5.92067         5.92067 
         1.6874         33.1772         5.86783         5.86783 
        1.69353         32.9778         5.81566         5.81566 
        1.69967         32.8405           5.764           5.764 
        1.70581         32.6177         5.71299         5.71299 
        1.71193         32.4715         5.66279         5.66279 
        1.71806         32.3457         5.61309         5.61309 
        1.72421         32.1281         5.56388         5.56388 
        1.73035         32.0004         5.51532         5.51532 
        1.73649         31.7797         5.46735         5.46735 
        1.74262          31.568         5.41998         5.41998 
        1.74876         31.6371         5.37314         5.37314 
        1.75489         31.3272         5.32695         5.32695 
        1.76101         31.2407         5.28132         5.28132 
        1.76715         31.0431         5.23615         5.23615 
        1.77329         30.8006         5.19146         5.19146 
        1.77943         30.8331         5.14727         5.14727 
        1.78557         30.6484         5.10365         5.10365 
        1.79171         30.4436         5.06054         5.06054 
        1.79785          30.347          5.0179          5.0179 
        1.80399         30.1389         4.97577         4.97577 
        1.81012         30.0088         4.93418         4.93418 
        1.81625         29.8135         4.89308         4.89308 
        1.82239         29.6817         4.85238         4.85238 
        1.82853         29.5849         4.81217         4.81217 
        1.83466         29.4196         4.77245         4.77245 
        1.84078         29.2743         4.73321         4.73321 
        1.84692         29.1189         4.69436         4.69436 
        1.85306         28.9689         4.65589         4.65589 
         1.8592         28.8274         4.61791         4.61791 
        1.86533         28.7282         4.58038         4.58038 
        1.87147         28.5881         4.54322         4.54322 
        1.87761         28.4279         4.50645         4.50645 
