# k  (h/Mpc)    P(k)  (Mpc/h)^3    P_linear(k)  (Mpc/h)^3     P_NL(k)  ShotnoiseSubtracted = false
     0.00783031         304.546         307.253         305.849 
       0.013688         383.772         384.974           383.3 
       0.019231         394.886         395.177         393.315 
      0.0249154         368.363         369.848         368.688 
      0.0312784         322.856         323.051         322.806 
      0.0375637         275.887         275.365         275.375 
      0.0433917         238.344         238.301         238.497 
      0.0492413         210.788         210.463         210.688 
      0.0555754          189.57         189.761         189.848 
      0.0619321          176.16         175.639         175.636 
       0.067871         164.904         165.141         165.022 
      0.0738098         154.316         154.678         154.476 
      0.0800417         141.709         142.259         142.091 
      0.0862327         128.148         128.408          128.34 
      0.0921407         114.699         114.747         114.763 
      0.0982031         101.461         101.626         101.741 
       0.104506         90.4021         90.1342         90.3033 
       0.110769          81.676         81.4535         81.5912 
       0.116806         75.5145         75.5633           75.65 
       0.122832         71.6556         71.5398          71.603 
       0.129052          68.368         68.4929         68.5141 
       0.135211         65.5301         65.7291         65.7318 
       0.141259         62.5789          62.642          62.657 
       0.147318         58.9851         58.9148         58.9759 
       0.153489         54.5452         54.5643          54.623 
       0.159709         50.0121         49.9846         50.0919 
       0.165845          45.985         45.7208         45.8873 
       0.171974          42.121         42.0686         42.2283 
       0.178125         39.3024         39.1843         39.3659 
       0.184229         37.2532         37.0753         37.2442 
        0.19034         35.5144         35.5468         35.6944 
       0.196428         34.4272         34.3553         34.4648 
       0.202534         33.4496         33.2357         33.3447 
       0.208729         32.0612         31.9748         32.0829 
       0.214876         30.4856         30.5041         30.6518 
       0.220989         29.0199         28.8446         29.0116 
       0.227147         27.0968         27.0813         27.2545 
        0.23329          25.414         25.3724          25.574 
       0.239377          23.939         23.8508         24.0636 
       0.245482         22.6078          22.568         22.7594 
       0.251667           21.68         21.5302         21.7326 
       0.257832         20.8234         20.7159         20.9069 
       0.263955         20.1602         20.0477         20.2245 
       0.270079         19.5484         19.4352         19.6038 
        0.27624         18.9832         18.8028         18.9625 
       0.282372         18.2856         18.1156         18.2902 
        0.28843         17.4828         17.3755         17.5573 
       0.294538         16.7077         16.5908           16.78 
       0.300721         15.9904         15.8011         16.0029 
        0.30691         15.1907         15.0575         15.2631 
       0.313033         14.5461         14.4008         14.6001 
       0.319153         13.8793         13.8342         14.0393 
       0.325316         13.5387         13.3491         13.5569 
        0.33145         13.0872           12.93         13.1247 
       0.337538         12.6998          12.551         12.7381 
       0.343633         12.2987          12.182         12.3661 
       0.349808         11.9413         11.8017         11.9935 
       0.355968         11.5557         11.4068         11.6201 
       0.362074         11.1388         11.0046          11.208 
       0.368217         10.7403          10.599         10.7875 
       0.374374         10.3127         10.2055         10.4068 
       0.380519         9.98593          9.8384         10.0325 
       0.386598         9.66683         9.50635         9.70489 
       0.392688         9.39174         9.20717         9.40372 
        0.39888         9.09447         8.93211         9.12685 
       0.405048         8.84938          8.6794         8.86115 
       0.411186         8.61467         8.44076         8.63876 
       0.417313         8.35065         8.20718         8.39793 
       0.423458         8.13354         7.97299         8.16629 
       0.429607         7.87607         7.73847         7.92526 
       0.435692         7.64575         7.50714         7.70019 
       0.441815         7.42317          7.2791         7.48136 
       0.447964         7.23766         7.05938         7.25404 
       0.454126         6.99009         6.85122         7.04301 
       0.460267         6.79992         6.65696         6.85348 
       0.466387         6.60061         6.47688         6.66363 
        0.47254         6.44656         6.30704         6.49505 
       0.478662         6.29578         6.14624         6.32968 
       0.484765         6.12208         5.99161         6.17475 
       0.490885         5.97339         5.84045         6.03587 
       0.497035         5.85799         5.69086         5.88839 
       0.503198          5.6924         5.54299         5.72508 
       0.509342         5.55578         5.39871         5.58463 
       0.515458         5.40038         5.25937         5.45325 
       0.521598         5.27094         5.12462         5.30399 
       0.527764         5.12786         4.99501         5.17304 
       0.533884         5.02806         4.87245          5.0497 
           0.54         4.90387         4.75604         4.93007 
       0.546137         4.79798         4.64429         4.82259 
       0.552299         4.68738         4.53613         4.70171 
       0.558452         4.56116         4.43132         4.59948 
       0.564573         4.47494         4.32976         4.50997 
       0.570708         4.37476         4.23051         4.40634 
       0.576825         4.26545         4.13391          4.3058 
       0.582926         4.18487          4.0399         4.21434 
       0.589034         4.06264         3.94838          4.1281 
       0.595184         3.98322          3.8592         4.02111 
       0.601379         3.89492         3.77268         3.94765 
       0.607522         3.82555         3.69015         3.86111 
       0.613639         3.75856          3.6109         3.77866 
       0.619772         3.65883         3.53403         3.70678 
       0.625918         3.59461          3.4593         3.62506 
       0.632068         3.53107         3.38657         3.54897 
       0.638161         3.44624         3.31645         3.47876 
         0.6443         3.37547          3.2477         3.40623 
       0.650464         3.29713         3.18052         3.34578 
       0.656582         3.24692         3.11561         3.27773 
       0.662703         3.18251         3.05241         3.21131 
       0.668861         3.12814         2.99059         3.15406 
       0.675024         3.05701         2.93047         3.08976 
       0.681124         2.99293          2.8727         3.02892 
       0.687237         2.94543         2.81651         2.96643 
       0.693381         2.89107          2.7617         2.90809 
       0.699536         2.81695         2.70835         2.85644 
       0.705665         2.77001         2.65669          2.8138 
       0.711789         2.72511         2.60642         2.75993 
       0.717957         2.66885         2.55706         2.70512 
        0.72409         2.62154         2.50919         2.65822 
       0.730186         2.57493         2.46277         2.60721 
       0.736317         2.54202         2.41724         2.55942 
       0.742472         2.49456         2.37267         2.52209 
       0.748622         2.44503         2.32928         2.47863 
        0.75476          2.3922          2.2871         2.42972 
       0.760888         2.35286         2.24607         2.38916 
       0.767043         2.32511         2.20592         2.35031 
       0.773185         2.27443         2.16688         2.31252 
       0.779291         2.24051         2.12904         2.27327 
       0.785407         2.20205         2.09206         2.23333 
       0.791564         2.16664         2.05574         2.19672 
       0.797719         2.13365          2.0203         2.15585 
       0.803834         2.10069         1.98592         2.12279 
       0.809972          2.0649         1.95221         2.09321 
       0.816124         2.02546          1.9192         2.05451 
       0.822261         1.98826         1.88704         2.02062 
       0.828378         1.96266         1.85571         1.98928 
       0.834502         1.93674         1.82507          1.9556 
       0.840667          1.8954         1.79493         1.92674 
       0.846816         1.86599         1.76556         1.90179 
       0.852925         1.84532         1.73703          1.8693 
       0.859047         1.81545         1.70909         1.84478 
       0.865192         1.78492         1.68167         1.81372 
       0.871341         1.75821         1.65484         1.78528 
       0.877463         1.73657         1.62873         1.75663 
       0.883569         1.70379         1.60325          1.7333 
       0.889708         1.67763         1.57819         1.70742 
       0.895864         1.65288         1.55361         1.68051 
       0.902008         1.62596          1.5296         1.65627 
       0.908149         1.60329         1.50612         1.63254 
       0.914301         1.57217          1.4831         1.60729 
       0.920448         1.55208         1.46058         1.58312 
       0.926574         1.52834         1.43861          1.5624 
       0.932687         1.50706         1.41714         1.53592 
       0.938823         1.49119         1.39604         1.52046 
       0.944975          1.4684         1.37532         1.49358 
       0.951105          1.4484         1.35509         1.47313 
       0.957225         1.43336         1.33531         1.45571 
       0.963368         1.41045         1.31586          1.4335 
       0.969511         1.38734          1.2968         1.41449 
       0.975621         1.36558         1.27823         1.39094 
       0.981748         1.35281         1.25997         1.37272 
       0.987916         1.33176         1.24195         1.35867 
        0.99406         1.31089         1.22436         1.34127 
        1.00019         1.29747         1.20714         1.32315 
        1.00632         1.27538         1.19028         1.30315 
        1.01246         1.25909         1.17371         1.28544 
        1.01859         1.24453         1.15749         1.27002 
        1.02471         1.22625         1.14159         1.25331 
        1.03085         1.21336         1.12594         1.23435 
        1.03698         1.19447         1.11062         1.21814 
        1.04314         1.18046         1.09553         1.20342 
        1.04929         1.16331         1.08075         1.18835 
        1.05541         1.15067          1.0663         1.17489 
        1.06154         1.13379         1.05208         1.15991 
        1.06769         1.11902          1.0381         1.14521 
        1.07382          1.1059         1.02442         1.13041 
        1.07993          1.0885         1.01102         1.11606 
        1.08607         1.08053        0.997809         1.10338 
        1.09222         1.06363        0.984819         1.08782 
        1.09836         1.05508        0.972077         1.07577 
        1.10449         1.04142        0.959576         1.06301 
        1.11063         1.02432        0.947282         1.04801 
        1.11677         1.01102        0.935209          1.0373 
         1.1229        0.999879        0.923368         1.02501 
        1.12903        0.986682        0.911723         1.01224 
        1.13518        0.977805         0.90027         1.00035 
        1.14131        0.963167        0.889021        0.988684 
        1.14745        0.946456        0.877971        0.975021 
        1.15359         0.94013        0.867108        0.965604 
        1.15973        0.924869        0.856424         0.95488 
        1.16584        0.920631        0.845969        0.942355 
        1.17197        0.907208        0.835675        0.932305 
        1.17811        0.897784        0.825521        0.922447 
        1.18424        0.889936        0.815565        0.910103 
        1.19038        0.876171        0.805746        0.900164 
        1.19652        0.864728        0.796093        0.890999 
        1.20267          0.8584        0.786599        0.878491 
        1.20881         0.84549        0.777262        0.870052 
        1.21495        0.838811        0.768092        0.862779 
        1.22108        0.828868        0.759072        0.851114 
         1.2272        0.821093        0.750219        0.840591 
        1.23334        0.809714        0.741487        0.832439 
        1.23949        0.800683        0.732875         0.82465 
        1.24562        0.792859        0.724423        0.815337 
        1.25174        0.784222        0.716118        0.805295 
        1.25789        0.776225        0.707918        0.796614 
        1.26402        0.764711        0.699862        0.788136 
        1.27014        0.757092        0.691952        0.779639 
        1.27628        0.751817         0.68414        0.770965 
        1.28244        0.739807        0.676434         0.76285 
        1.28858        0.733262        0.668858        0.753823 
        1.29471        0.727002        0.661415         0.74664 
        1.30084        0.717391        0.654093        0.740768 
        1.30697        0.710018        0.646871        0.732352 
        1.31312        0.699561        0.639748        0.724353 
        1.31925        0.694688        0.632755        0.717903 
        1.32537        0.688291        0.625874        0.710488 
        1.33151        0.682213        0.619071        0.703124 
        1.33765          0.6742        0.612374        0.695967 
        1.34378        0.665251        0.605789        0.689128 
        1.34992        0.660509        0.599297        0.682301 
        1.35606        0.652494        0.592887        0.674112 
         1.3622        0.646519        0.586582        0.667808 
        1.36833         0.63956        0.580383        0.662095 
        1.37445        0.631181        0.574278        0.655779 
        1.38059        0.625387        0.568242        0.648784 
        1.38675        0.623406        0.562279        0.641862 
        1.39288        0.614296        0.556425        0.635676 
        1.39901        0.608349        0.550657        0.629881 
        1.40515        0.602847        0.544958        0.623237 
         1.4113        0.595614        0.539342        0.617894 
        1.41742        0.589948        0.533827        0.613501 
        1.42355        0.586869        0.528379        0.604845 
         1.4297        0.578375        0.522991        0.601301 
        1.43585        0.573538         0.51768        0.595056 
        1.44198        0.570317        0.512463        0.587354 
        1.44809        0.562246        0.507328        0.584338 
        1.45423         0.55742        0.502245        0.576657 
        1.46036        0.551962        0.497241        0.571984 
        1.46649        0.547188        0.492303        0.568063 
        1.47263        0.541194        0.487429        0.562166 
        1.47877         0.53553        0.482623        0.556773 
        1.48491        0.531088        0.477875        0.552562 
        1.49104        0.525006        0.473201        0.546017 
        1.49718        0.521256        0.468585        0.542639 
        1.50333          0.5163        0.464024        0.536003 
        1.50947        0.511668        0.459534        0.530828 
         1.5156         0.50645        0.455109        0.527332 
        1.52172        0.501844        0.450743        0.521902 
        1.52787        0.496967        0.446426        0.517048 
          1.534         0.49295         0.44217        0.513174 
        1.54013        0.487006        0.437974        0.508523 
        1.54627        0.483415        0.433826        0.503601 
        1.55241        0.478657         0.42973        0.499125 
        1.55855        0.473831        0.425693          0.4948 
        1.56467        0.471654         0.42172        0.490931 
         1.5708         0.46596        0.417786        0.485964 
        1.57695        0.462646        0.413896        0.481408 
        1.58308        0.457951        0.410065        0.478163 
        1.58922        0.454211         0.40628        0.474133 
        1.59535        0.449845        0.402545        0.469656 
         1.6015        0.445934        0.398851         0.46513 
        1.60764         0.44239        0.395205        0.461753 
        1.61376        0.437194        0.391615        0.458907 
        1.61989        0.434494        0.388067        0.454662 
        1.62604         0.43073        0.384556        0.450594 
        1.63218        0.427498        0.381089        0.447038 
        1.63831        0.423637        0.377674        0.443293 
        1.64444        0.419519        0.374299        0.439068 
        1.65059        0.416041        0.370958        0.435381 
        1.65673        0.412464        0.367661         0.43211 
        1.66285        0.409102        0.364413         0.42863 
        1.66898        0.406286        0.361204        0.424728 
        1.67512         0.40151        0.358027        0.421256 
        1.68127        0.398172        0.354885        0.418086 
         1.6874        0.396096        0.351788           0.415 
        1.69353        0.391853         0.34873        0.411689 
        1.69967        0.389114        0.345701        0.407806 
        1.70581        0.385294         0.34271        0.404561 
        1.71193         0.38237        0.339765        0.401731 
        1.71806        0.378962        0.336848        0.398133 
        1.72421        0.376332         0.33396        0.395334 
        1.73035        0.372607         0.33111        0.392171 
        1.73649        0.370549        0.328293        0.388287 
        1.74262        0.367109        0.325511        0.385372 
        1.74876        0.363773         0.32276        0.383056 
        1.75489        0.361082        0.320046        0.380216 
        1.76101        0.357459        0.317365        0.376799 
        1.76715        0.355005         0.31471         0.37416 
        1.77329        0.352113        0.312083         0.37156 
        1.77943        0.348996        0.309484        0.368501 
        1.78557        0.346744        0.306919        0.365241 
        1.79171        0.344004        0.304383        0.362106 
        1.79785        0.341126        0.301875        0.359485 
        1.80399        0.338349        0.299395         0.35719 
        1.81012        0.335954        0.296947         0.35373 
        1.81625        0.333072        0.294528        0.350863 
        1.82239         0.33104        0.292131        0.349227 
        1.82853        0.327146        0.289763        0.346976 
        1.83466        0.325314        0.287423           0.344 
        1.84078        0.322489        0.285111        0.341066 
        1.84692        0.320324        0.282821        0.338884 
        1.85306        0.318269        0.280554        0.336056 
         1.8592        0.315439        0.278315        0.333069 
        1.86533        0.313349        0.276101        0.331051 
        1.87147        0.310695        0.273909        0.328749 
        1.87761        0.308776         0.27174        0.326487 
