# k  (h/Mpc)    Pcb(k)  (Mpc/h)^3    Pcb_linear(k) (Mpc/h)^3    Pcb_NL(k) (Mpc/h)^3   ShotnoiseSubtracted = false
     0.00783031           11446         11598.5         11544.1 
       0.013688         14615.7         14503.5         14413.7 
       0.019231         14902.6         14878.4         14761.5 
      0.0249154         13663.3         13920.4         13804.3 
      0.0312784         12038.7         12156.7         12047.1 
      0.0375637         10361.2           10361         10266.3 
      0.0433917         8830.54         8965.81         8868.02 
      0.0492413         7876.48         7918.05         7828.58 
      0.0555754         6958.82         7138.96         7058.61 
      0.0619321         6630.59         6607.49         6527.92 
       0.067871         6069.74         6212.43         6137.53 
      0.0738098         5678.01         5818.71         5701.51 
      0.0800417         5165.85         5351.47         5248.04 
      0.0862327         4716.85         4830.36         4781.41 
      0.0921407         4287.42         4316.45         4284.33 
      0.0982031         3786.73         3822.85         3852.04 
       0.104506         3472.02         3390.54         3467.36 
       0.110769         3150.85         3063.98         3117.75 
       0.116806          2921.6          2842.4         2891.08 
       0.122832         2778.03         2691.05         2743.65 
       0.129052          2601.1         2576.43         2620.94 
       0.135211         2495.67         2472.45         2512.25 
       0.141259         2409.08         2356.33         2414.23 
       0.147318         2284.64         2216.12         2300.92 
       0.153489         2101.19         2052.47         2118.52 
       0.159709         1972.74         1880.19         1980.68 
       0.165845         1867.28         1719.81         1868.29 
       0.171974         1737.39         1582.42         1733.61 
       0.178125         1639.15         1473.93         1652.94 
       0.184229         1562.45          1394.6         1561.53 
        0.19034         1469.22          1337.1         1496.38 
       0.196428         1448.09         1292.28          1435.1 
       0.202534         1405.39         1250.17         1396.34 
       0.208729         1344.59         1202.74         1336.87 
       0.214876         1284.75         1147.42         1309.63 
       0.220989         1242.28         1084.99         1263.56 
       0.227147         1179.52         1018.67         1209.58 
        0.23329         1127.41         954.383         1164.45 
       0.239377         1100.42         897.147         1109.31 
       0.245482         1026.22         848.898         1051.31 
       0.251667         1016.54         809.863         1020.76 
       0.257832         977.821         779.228         982.969 
       0.263955         947.263         754.095         953.072 
       0.270079         915.005         731.053         928.665 
        0.27624         906.083         707.266         902.295 
       0.282372          868.48         681.415         882.779 
        0.28843         854.057         653.574         859.978 
       0.294538          811.19         624.061         835.745 
       0.300721         806.344         594.355         809.795 
        0.30691         770.001         566.384         791.222 
       0.313033         754.452         541.684         761.594 
       0.319153          735.11         520.372         738.502 
       0.325316         712.372         502.125         722.623 
        0.33145         694.056         486.357         696.704 
       0.337538         683.698         472.103         683.209 
       0.343633         664.234         458.223         676.866 
       0.349808             642         443.916         665.213 
       0.355968         637.392         429.064         653.545 
       0.362074         627.394         413.934         639.011 
       0.368217         609.345          398.68         619.875 
       0.374374         583.905         383.878         606.239 
       0.380519         581.525         370.068         591.087 
       0.386598         566.549         357.579         583.061 
       0.392688         563.931         346.325         566.163 
        0.39888         547.243         335.979         556.979 
       0.405048         537.205         326.473         549.226 
       0.411186         528.245         317.497         535.924 
       0.417313         518.147         308.711         526.431 
       0.423458         508.767         299.902         518.886 
       0.429607         499.769         291.079          508.83 
       0.435692         488.358          282.38         498.133 
       0.441815         484.391         273.801         494.024 
       0.447964         473.806         265.537         485.146 
       0.454126         463.255         257.706         471.759 
       0.460267         455.251         250.401         469.242 
       0.466387         450.258         243.625         460.133 
        0.47254          441.82         237.237          453.63 
       0.478662         440.444         231.189         445.245 
       0.484765         426.172         225.373         437.436 
       0.490885         422.283         219.686         431.222 
       0.497035         414.112          214.06         426.485 
       0.503198         408.561         208.498         420.484 
       0.509342         405.232         203.071         414.869 
       0.515458         401.031          197.83         411.139 
       0.521598         391.883         192.761         404.093 
       0.527764         384.884         187.885         399.321 
       0.533884         382.635         183.276         394.023 
           0.54         377.489         178.897          387.85 
       0.546137         375.681         174.693         383.292 
       0.552299          368.15         170.625         377.753 
       0.558452         365.815         166.683         373.913 
       0.564573         360.257         162.863         370.916 
       0.570708          354.37         159.129         367.227 
       0.576825         347.292         155.496          360.28 
       0.582926         345.409          151.96         356.709 
       0.589034         342.078         148.517         352.086 
       0.595184         338.737         145.163         347.067 
       0.601379         334.506         141.908          344.02 
       0.607522         329.275         138.804         339.666 
       0.613639         327.705         135.823         337.625 
       0.619772         320.116         132.931         335.748 
       0.625918         319.072          130.12         330.342 
       0.632068         313.997         127.385         326.445 
       0.638161         312.745         124.747         323.924 
         0.6443         307.354         122.161         320.822 
       0.650464         304.512         119.634         315.001 
       0.656582          302.82         117.193         312.649 
       0.662703          301.05         114.815         311.075 
       0.668861         295.577          112.49         308.146 
       0.675024         292.289         110.229         305.124 
       0.681124         290.769         108.056         300.474 
       0.687237         287.594         105.942         297.824 
       0.693381         283.333         103.881         294.988 
       0.699536         280.689         101.874          292.86 
       0.705665         278.669         99.9303         289.877 
       0.711789         276.177         98.0394         287.792 
       0.717957         274.304         96.1829           285.8 
        0.72409         271.472         94.3822         283.277 
       0.730186         268.299         92.6362         280.619 
       0.736317         265.516         90.9235         277.613 
       0.742472         264.089         89.2473         274.896 
       0.748622         261.827         87.6151         272.415 
        0.75476         259.387         86.0284         271.975 
       0.760888         256.121         84.4849         268.137 
       0.767043         256.238          82.975         266.408 
       0.773185         252.823         81.5065         264.361 
       0.779291         248.551          80.083         261.496 
       0.785407         248.002         78.6921         259.684 
       0.791564         245.179         77.3259         257.711 
       0.797719         242.668         75.9929         255.892 
       0.803834         241.021         74.6997         254.321 
       0.809972         239.598         73.4316           252.2 
       0.816124         239.423         72.1899         249.571 
       0.822261         235.921         70.9803          248.07 
       0.828378          234.03         69.8019         245.867 
       0.834502         233.266         68.6494         244.272 
       0.840667         229.875         67.5156         242.201 
       0.846816         228.459         66.4107         240.864 
       0.852925         227.359         65.3378         239.049 
       0.859047         225.313         64.2866         237.409 
       0.865192         222.922         63.2553         235.359 
       0.871341         221.131         62.2463         233.693 
       0.877463          219.59          61.264         232.386 
       0.883569         218.677         60.3056          231.26 
       0.889708         216.437          59.363         228.904 
       0.895864         213.779         58.4383          227.58 
       0.902008         213.136         57.5354         225.856 
       0.908149         212.207         56.6522         223.913 
       0.914301         209.386         55.7862         222.483 
       0.920448         207.994         54.9392         220.732 
       0.926574         206.694         54.1128         219.212 
       0.932687         206.443         53.3053         217.851 
       0.938823          203.79         52.5114         216.926 
       0.944975         202.369          51.732         215.608 
       0.951105         201.356         50.9713         213.924 
       0.957225         199.455         50.2273         212.339 
       0.963368         196.955         49.4957         210.779 
       0.969511         196.179         48.7788         209.254 
       0.975621         194.589           48.08         208.681 
       0.981748         194.503         47.3931         207.375 
       0.987916         192.291         46.7155         206.014 
        0.99406         190.477         46.0538         204.655 
        1.00019         190.431         45.4062         203.061 
        1.00632         188.522         44.7718         201.538 
        1.01246         187.196         44.1486         199.944 
        1.01859         186.645         43.5384         199.272 
        1.02471         184.483         42.9406         198.461 
        1.03085         182.744          42.352         197.238 
        1.03698         181.966         41.7757         196.347 
        1.04314         180.414         41.2078         194.751 
        1.04929         179.176         40.6518         193.447 
        1.05541         178.877         40.1083         192.395 
        1.06154         177.111         39.5735         191.263 
        1.06769         176.867         39.0477         190.378 
        1.07382         175.312         38.5332         189.103 
        1.07993         173.717         38.0292             188 
        1.08607         173.073         37.5322         186.951 
        1.09222         172.124         37.0436         186.002 
        1.09836          170.61         36.5643         185.131 
        1.10449          168.87          36.094           184.1 
        1.11063          167.51         35.6316         182.805 
        1.11677         167.232         35.1775          181.53 
         1.1229         165.813         34.7321          180.68 
        1.12903         164.967         34.2941         179.808 
        1.13518         164.221         33.8633          178.71 
        1.14131         162.523         33.4401         177.524 
        1.14745         162.235         33.0245         176.773 
        1.15359         160.942         32.6159          175.71 
        1.15973         160.178          32.214         174.745 
        1.16584         158.516         31.8208         173.239 
        1.17197         158.038         31.4336         172.903 
        1.17811         156.894         31.0516         172.052 
        1.18424         156.106         30.6771         170.774 
        1.19038         155.685         30.3078          170.29 
        1.19652         154.363         29.9447         169.437 
        1.20267         153.578         29.5876         168.193 
        1.20881          152.11         29.2364         167.479 
        1.21495         151.615         28.8915         166.462 
        1.22108         150.682         28.5522         165.756 
         1.2272         149.369         28.2192          164.31 
        1.23334         148.787         27.8907         163.983 
        1.23949         147.585         27.5668         163.246 
        1.24562         146.757         27.2489         161.894 
        1.25174         145.325         26.9365         161.335 
        1.25789         144.652          26.628         160.399 
        1.26402         143.781          26.325         159.591 
        1.27014         142.838         26.0275         159.132 
        1.27628         142.179         25.7336         158.653 
        1.28244         141.727         25.4438         157.424 
        1.28858         140.766         25.1588          156.49 
        1.29471         139.227         24.8788         155.654 
        1.30084         138.854         24.6034         154.825 
        1.30697         137.845         24.3318          154.21 
        1.31312         137.278         24.0638         153.128 
        1.31925         136.239         23.8008         152.436 
        1.32537         135.552          23.542         152.029 
        1.33151         134.235         23.2861         151.093 
        1.33765         133.889         23.0342         150.311 
        1.34378         133.019         22.7865         149.685 
        1.34992         132.616         22.5423         148.681 
        1.35606         131.897         22.3012         147.867 
         1.3622         130.667          22.064         147.343 
        1.36833         129.894         21.8309         146.469 
        1.37445         129.117         21.6012          145.74 
        1.38059         128.554         21.3742         144.978 
        1.38675         127.692         21.1499         144.308 
        1.39288         127.201         20.9297         143.183 
        1.39901         126.764         20.7127         142.922 
        1.40515         125.586         20.4984         142.512 
         1.4113         124.615         20.2871         141.771 
        1.41742         124.197         20.0797         141.121 
        1.42355         123.338         19.8747         140.506 
         1.4297         122.653         19.6721         139.768 
        1.43585         121.599         19.4723         138.816 
        1.44198         121.371         19.2761         138.357 
        1.44809         120.532         19.0829         137.711 
        1.45423         119.719         18.8917         136.919 
        1.46036         119.264         18.7035         136.286 
        1.46649         118.305         18.5178         135.876 
        1.47263         117.731         18.3344         135.393 
        1.47877         117.263         18.1537         134.436 
        1.48491         116.022          17.975         133.854 
        1.49104         115.853         17.7992          133.58 
        1.49718          114.76         17.6256         132.473 
        1.50333         114.342         17.4541         131.801 
        1.50947          113.86         17.2852         131.378 
         1.5156         113.025         17.1187         130.766 
        1.52172         112.321         16.9545         130.091 
        1.52787         111.733         16.7921         129.522 
          1.534         111.092          16.632         128.978 
        1.54013          110.36         16.4742         128.452 
        1.54627         109.931         16.3181         127.899 
        1.55241         109.018         16.1641          127.27 
        1.55855          108.51         16.0123         126.618 
        1.56467         108.194         15.8628         126.013 
         1.5708          107.28         15.7148         125.568 
        1.57695         106.945         15.5685         125.039 
        1.58308         106.113         15.4244         124.366 
        1.58922         105.827          15.282         123.803 
        1.59535         105.034         15.1415         123.306 
         1.6015         104.514         15.0026         122.655 
        1.60764         103.881         14.8655         122.058 
        1.61376         103.628         14.7304         121.764 
        1.61989         102.736          14.597         121.331 
        1.62604          102.37         14.4649         120.484 
        1.63218         101.779         14.3345         119.896 
        1.63831          100.92          14.206         119.577 
        1.64444          100.62         14.0791         118.854 
        1.65059         100.003         13.9534         118.438 
        1.65673         99.0151         13.8294         117.904 
        1.66285         98.9406         13.7072         117.362 
        1.66898         98.3623         13.5865         116.999 
        1.67512         97.7811          13.467         116.444 
        1.68127         97.1652         13.3488         115.898 
         1.6874         96.5026         13.2323         115.454 
        1.69353         96.0282         13.1173         114.995 
        1.69967         95.6008         13.0034         114.389 
        1.70581         95.0496         12.8909         113.873 
        1.71193         94.7221         12.7801         113.441 
        1.71806         94.0102         12.6704          112.88 
        1.72421         93.4009         12.5618         112.408 
        1.73035         93.0313         12.4545         111.913 
        1.73649         92.4184         12.3486         111.376 
        1.74262         91.8495         12.2439          110.99 
        1.74876         91.5323         12.1405         110.513 
        1.75489         90.7306         12.0384         109.955 
        1.76101          90.409         11.9375         109.456 
        1.76715         89.7274         11.8377         109.057 
        1.77329         89.4619         11.7388         108.557 
        1.77943         88.7128         11.6411         108.037 
        1.78557         88.4691         11.5446         107.655 
        1.79171         87.7707         11.4492         107.281 
        1.79785         87.4152         11.3549         106.843 
        1.80399         86.9388         11.2616         106.334 
        1.81012         86.5715         11.1695         105.771 
        1.81625          85.986         11.0785         105.342 
        1.82239         85.6632         10.9884         105.008 
        1.82853         85.2608         10.8993         104.537 
        1.83466         84.5489         10.8113          104.03 
        1.84078         84.4246         10.7243         103.623 
        1.84692         83.6923         10.6382         103.333 
        1.85306         83.1653         10.5529         102.849 
         1.8592         82.8305         10.4687         102.325 
        1.86533         82.3447         10.3854         101.984 
        1.87147          81.725          10.303         101.455 
