# k  (h/Mpc)    Pcb(k)  (Mpc/h)^3    Pcb_linear(k) (Mpc/h)^3    Pcb_NL(k) (Mpc/h)^3   ShotnoiseSubtracted = false
     0.00783031         14155.3         14353.5         14283.9 
       0.013688         18102.7         17941.9         17822.1 
       0.019231         18431.8         18403.7           18245 
      0.0249154         16855.6         17217.9         17052.4 
      0.0312784         14857.4         15035.9         14870.2 
      0.0375637         12800.1         12814.8         12669.9 
      0.0433917         10887.2           11089         10937.5 
      0.0492413         9722.65         9793.06         9653.55 
      0.0555754          8565.3         8829.42         8705.37 
      0.0619321         8185.54         8172.08         8050.11 
       0.067871         7469.36         7683.44         7569.56 
      0.0738098         6988.13         7196.48         7019.11 
      0.0800417         6348.87         6618.59         6462.06 
      0.0862327         5804.64         5974.08         5898.27 
      0.0921407         5290.93         5338.48         5287.81 
      0.0982031         4677.28         4728.01         4767.46 
       0.104506         4304.54         4193.33         4303.44 
       0.110769         3910.95         3789.45         3868.14 
       0.116806         3635.17          3515.4         3586.73 
       0.122832         3452.66         3328.21         3404.75 
       0.129052         3225.78         3186.45         3252.07 
       0.135211         3094.04         3057.86         3115.06 
       0.141259         2990.79         2914.23         2998.96 
       0.147318         2839.36         2740.83         2861.93 
       0.153489          2610.9         2538.43         2635.04 
       0.159709         2458.28         2325.36         2471.98 
       0.165845          2338.1            2127         2341.06 
       0.171974         2183.66         1957.09         2177.98 
       0.178125         2062.63         1822.91          2082.7 
       0.184229         1964.19         1724.79         1966.01 
        0.19034         1854.85         1653.68         1884.94 
       0.196428          1825.7         1598.25         1809.84 
       0.202534         1766.98         1546.17         1762.25 
       0.208729         1693.01          1487.5         1685.64 
       0.214876         1624.77         1419.08         1653.91 
       0.220989         1570.63         1341.88          1600.9 
       0.227147         1498.28         1259.85         1539.11 
        0.23329         1434.62         1180.35         1484.46 
       0.239377         1405.93         1109.56         1415.63 
       0.245482         1314.72         1049.89          1344.3 
       0.251667         1304.97         1001.61         1306.36 
       0.257832         1253.72         963.722         1259.23 
       0.263955         1214.28         932.638         1222.79 
       0.270079         1173.54         904.141         1192.42 
        0.27624         1162.04         874.722         1160.29 
       0.282372         1113.73         842.751         1139.31 
        0.28843         1103.13         808.318         1113.93 
       0.294538         1048.13         771.817         1082.35 
       0.300721         1042.08         735.078         1048.39 
        0.30691         998.579         700.484         1028.22 
       0.313033         978.795         669.936         991.162 
       0.319153         959.218         643.578         961.028 
       0.325316         928.389          621.01         942.159 
        0.33145         907.035          601.51         908.879 
       0.337538         891.683         583.881         893.679 
       0.343633         869.881         566.714         885.552 
       0.349808         840.655          549.02         871.809 
       0.355968         835.117         530.652         857.195 
       0.362074         825.271         511.939         840.181 
       0.368217         800.291         493.073         817.229 
       0.374374         768.321         474.767         800.185 
       0.380519         768.229         457.687          781.45 
       0.386598         747.346         442.242         771.277 
       0.392688         744.848         428.323         750.552 
        0.39888         722.632         415.527          738.86 
       0.405048          712.07         403.771         727.528 
       0.411186         701.659         392.669         712.646 
       0.417313         687.312         381.803         702.541 
       0.423458         675.234         370.909         692.044 
       0.429607         665.421         359.996          679.64 
       0.435692         650.872         349.237         665.371 
       0.441815         645.488         338.628         661.302 
       0.447964         631.516         328.406         650.889 
       0.454126         623.127         318.722         632.488 
       0.460267         609.364         309.687         630.252 
       0.466387         602.694         301.307         618.589 
        0.47254         595.096         293.407         609.952 
       0.478662         591.383         285.926         599.872 
       0.484765          572.86         278.733         591.792 
       0.490885         568.905           271.7         582.025 
       0.497035         557.126         264.742         576.338 
       0.503198         552.632         257.863         569.213 
       0.509342         547.479         251.151         560.344 
       0.515458         543.135         244.669         556.125 
       0.521598         529.625           238.4         548.882 
       0.527764         519.997          232.37         542.962 
       0.533884         518.302         226.669         535.941 
           0.54         512.064         221.253         528.319 
       0.546137         508.872         216.055          522.01 
       0.552299          500.17         211.023         514.773 
       0.558452         497.144         206.147          510.41 
       0.564573         490.138         201.423         506.368 
       0.570708         483.926         196.805         501.008 
       0.576825         471.421         192.311         492.767 
       0.582926         471.931         187.938         488.644 
       0.589034         467.369          183.68         481.448 
       0.595184         463.213         179.532         476.183 
       0.601379         456.397         175.507         471.592 
       0.607522         450.238         171.667         465.139 
       0.613639         449.334         167.981         463.719 
       0.619772         439.041         164.405         462.107 
       0.625918         437.428         160.928         454.546 
       0.632068         430.731         157.545         451.064 
       0.638161         429.134         154.283         445.515 
         0.6443         421.538         151.084          441.99 
       0.650464         418.796         147.959         434.496 
       0.656582         416.071          144.94         431.928 
       0.662703          414.34             142         429.396 
       0.668861         407.062         139.124         426.644 
       0.675024         403.423         136.327         423.049 
       0.681124         400.467         133.639          416.15 
       0.687237         396.859         131.026         412.515 
       0.693381         391.367         128.476         408.938 
       0.699536         386.348         125.994         406.196 
       0.705665         384.675          123.59         401.268 
       0.711789          382.37         121.252         398.819 
       0.717957         378.998         118.956         397.415 
        0.72409         376.197         116.729          393.12 
       0.730186         371.187         114.569         389.317 
       0.736317         368.172         112.451         385.972 
       0.742472         366.222         110.378         382.505 
       0.748622         362.432         108.359         379.167 
        0.75476         357.994         106.397         379.637 
       0.760888         354.205         104.488         374.251 
       0.767043          354.91          102.62         370.908 
       0.773185         350.346         100.804         368.425 
       0.779291         345.664         99.0438         364.949 
       0.785407         344.332         97.3236         362.898 
       0.791564         340.005         95.6339         360.497 
       0.797719         337.615         93.9853         357.079 
       0.803834         334.409         92.3858         355.546 
       0.809972         333.499         90.8175         352.976 
       0.816124         332.792         89.2819         348.442 
       0.822261         327.975         87.7858         347.031 
       0.828378         325.991         86.3285         344.272 
       0.834502         323.002         84.9031          342.67 
       0.840667          319.95         83.5008         339.495 
       0.846816         318.384         82.1344         337.397 
       0.852925         316.205         80.8074         335.329 
       0.859047         314.194         79.5073         332.716 
       0.865192         310.405         78.2319         329.897 
       0.871341         308.111         76.9839         328.181 
       0.877463         306.902         75.7691         326.131 
       0.883569         304.932         74.5838         324.765 
       0.889708         301.999         73.4181         321.459 
       0.895864         299.412         72.2744         319.695 
       0.902008         297.596         71.1577         317.376 
       0.908149         295.443         70.0654         314.738 
       0.914301          292.25         68.9943         312.368 
       0.920448         290.551         67.9468         310.737 
       0.926574         287.381         66.9247         308.466 
       0.932687         287.592          65.926         306.476 
       0.938823         284.053         64.9442         305.753 
       0.944975         283.431         63.9803         303.114 
       0.951105         280.905         63.0395         300.905 
       0.957225         278.933         62.1193         299.244 
       0.963368         275.444         61.2145         297.486 
       0.969511         274.192         60.3278         295.426 
       0.975621         272.056         59.4635         293.715 
       0.981748          271.48         58.6141         292.092 
       0.987916         269.428          57.776         290.586 
        0.99406         265.473         56.9576         288.633 
        1.00019          265.12         56.1568         286.051 
        1.00632         263.413         55.3721         284.373 
        1.01246         261.163         54.6014         282.171 
        1.01859         261.506         53.8468         280.617 
        1.02471         257.309         53.1074         279.542 
        1.03085         255.668         52.3794         278.351 
        1.03698         254.841         51.6667          277.23 
        1.04314         252.149         50.9643         275.005 
        1.04929         250.538         50.2767         272.836 
        1.05541         250.769         49.6045         271.312 
        1.06154         246.767         48.9431         269.953 
        1.06769         246.285         48.2928         268.313 
        1.07382         244.495         47.6565         266.779 
        1.07993         242.643         47.0332         265.488 
        1.08607         242.001         46.4184         263.431 
        1.09222          239.92         45.8141           262.1 
        1.09836         238.089         45.2214         261.101 
        1.10449         235.723         44.6398         259.647 
        1.11063         233.725         44.0679         257.882 
        1.11677          233.33         43.5062         256.214 
         1.1229         231.582         42.9554         255.004 
        1.12903         230.233         42.4137         253.814 
        1.13518         228.632         41.8809         252.114 
        1.14131         226.754         41.3576          250.66 
        1.14745         226.418         40.8435         249.204 
        1.15359         224.432         40.3381         248.116 
        1.15973         222.808         39.8412         246.742 
        1.16584         221.132         39.3548         245.244 
        1.17197         221.096         38.8759         244.406 
        1.17811          218.34         38.4035         242.913 
        1.18424         217.239         37.9404         241.512 
        1.19038          216.53         37.4836         240.786 
        1.19652           214.7         37.0345         239.123 
        1.20267         214.129         36.5928         237.642 
        1.20881         212.153         36.1585         236.544 
        1.21495         210.934         35.7319         235.135 
        1.22108         209.637         35.3123         233.673 
         1.2272         208.042         34.9004         232.173 
        1.23334         207.138         34.4942         231.285 
        1.23949         205.637         34.0936         230.399 
        1.24562         204.583         33.7004         228.813 
        1.25174         203.028         33.3141         227.773 
        1.25789         201.577         32.9326         226.414 
        1.26402         199.922         32.5578         225.756 
        1.27014         198.701         32.1898         224.308 
        1.27628         197.762         31.8264         223.783 
        1.28244         197.539          31.468         222.628 
        1.28858          195.29         31.1155          221.18 
        1.29471         193.836         30.7693         219.424 
        1.30084         193.046         30.4286          218.54 
        1.30697         191.565         30.0927          217.73 
        1.31312         189.973         29.7613         216.294 
        1.31925         189.456          29.436         215.289 
        1.32537         188.529         29.1159          214.22 
        1.33151         186.586         28.7994         213.166 
        1.33765         185.555         28.4878         212.163 
        1.34378         184.829         28.1815         211.258 
        1.34992         183.844         27.8795         209.811 
        1.35606         183.648         27.5813         208.597 
         1.3622         181.576          27.288         207.916 
        1.36833         179.976         26.9996         207.017 
        1.37445          179.23         26.7156         205.354 
        1.38059         177.786         26.4348         204.681 
        1.38675         177.134         26.1574         203.938 
        1.39288          175.98         25.8851         202.103 
        1.39901         175.703         25.6167          201.49 
        1.40515         173.721         25.3516          200.65 
         1.4113         172.839         25.0904         199.509 
        1.41742         171.638         24.8338         198.667 
        1.42355         170.756         24.5803         197.536 
         1.4297         169.469         24.3297          196.61 
        1.43585           168.6         24.0826         195.863 
        1.44198         167.613         23.8399         194.918 
        1.44809         166.938         23.6011         194.046 
        1.45423         165.833         23.3646         192.555 
        1.46036         164.737         23.1318         191.805 
        1.46649         163.452         22.9021         191.251 
        1.47263         162.462         22.6754         190.251 
        1.47877         161.646         22.4518         189.022 
        1.48491          160.03         22.2309         187.977 
        1.49104          159.86         22.0134         187.525 
        1.49718         158.205         21.7987         186.566 
        1.50333         157.623         21.5866         185.589 
        1.50947         156.846         21.3776         184.902 
         1.5156         155.567         21.1718         183.928 
        1.52172          154.82         20.9687         182.624 
        1.52787         153.467         20.7679         182.099 
          1.534         153.067         20.5699         181.318 
        1.54013         152.023         20.3747         180.395 
        1.54627         151.088         20.1817         179.722 
        1.55241         150.024         19.9912         178.886 
        1.55855         149.178         19.8034         177.818 
        1.56467         148.178         19.6185         177.011 
         1.5708         147.376         19.4355          176.24 
        1.57695         146.593         19.2546         175.412 
        1.58308         145.887         19.0764         174.618 
        1.58922         145.018         18.9003         173.757 
        1.59535          143.83         18.7265         173.083 
         1.6015         143.349         18.5547         172.243 
        1.60764         142.362         18.3851         171.315 
        1.61376         141.408         18.2181         170.641 
        1.61989         140.577          18.053         169.902 
        1.62604         139.655         17.8896         168.909 
        1.63218           139.1         17.7284         168.167 
        1.63831         137.963         17.5695         167.621 
        1.64444         137.429         17.4125         166.727 
        1.65059         136.561         17.2571          166.08 
        1.65673         135.355         17.1037         165.247 
        1.66285         135.094         16.9526         164.386 
        1.66898         134.026         16.8033         163.751 
        1.67512         133.744         16.6555         163.015 
        1.68127         132.349         16.5093         162.346 
         1.6874         131.433         16.3653         161.693 
        1.69353         131.087          16.223         160.883 
        1.69967          130.16         16.0821         160.108 
        1.70581         129.416         15.9429         159.488 
        1.71193         128.588         15.8059           158.8 
        1.71806         127.997         15.6703           157.8 
        1.72421         127.171         15.5359         157.193 
        1.73035          126.92         15.4033         156.622 
        1.73649         125.955         15.2723         155.839 
        1.74262          124.94         15.1429         155.176 
        1.74876         124.407         15.0149         154.542 
        1.75489         123.466         14.8886         153.863 
        1.76101         122.691         14.7639          153.19 
        1.76715          122.13         14.6404         152.601 
        1.77329         121.777         14.5182         151.824 
        1.77943         120.656         14.3973         151.014 
        1.78557         120.144          14.278         150.419 
        1.79171         119.348           14.16         149.823 
        1.79785         118.644         14.0433         149.157 
        1.80399         117.883          13.928          148.49 
        1.81012         117.297         13.8141         147.909 
        1.81625         116.652         13.7015         147.285 
        1.82239         116.131           13.59         146.565 
        1.82853         115.403         13.4798         145.854 
        1.83466         114.544          13.371         145.138 
        1.84078         114.199         13.2634         144.537 
        1.84692         113.118         13.1569         144.156 
        1.85306         112.899         13.0514         143.402 
         1.8592         112.017         12.9473         142.585 
        1.86533         111.122         12.8443         142.269 
        1.87147         110.591         12.7423         141.865 
