# k  (h/Mpc)    Pcb(k)  (Mpc/h)^3    Pcb_linear(k) (Mpc/h)^3    Pcb_NL(k) (Mpc/h)^3   ShotnoiseSubtracted = false
     0.00783031         16305.9         16542.4         16460.2 
       0.013688         20874.9         20671.7         20525.8 
       0.019231         21231.8           21202         21006.4 
      0.0249154         19379.2         19835.1         19624.8 
      0.0312784         17086.3         17321.1         17103.1 
      0.0375637         14731.5         14762.2         14570.5 
      0.0433917         12511.4           12774         12572.5 
      0.0492413           11183         11281.1         11094.9 
      0.0555754         9830.89           10171         10006.3 
      0.0619321         9414.61         9413.74         9252.64 
       0.067871         8571.08         8850.84            8701 
      0.0738098         8019.88         8289.88         8057.07 
      0.0800417         7278.86         7624.17         7419.01 
      0.0862327         6661.37         6881.74         6781.11 
      0.0921407         6084.28         6149.56         6082.01 
      0.0982031         5383.22         5446.33         5494.76 
       0.104506         4967.01         4830.41          4970.4 
       0.110769         4517.21         4365.18          4467.3 
       0.116806         4206.84         4049.49         4142.18 
       0.122832         3992.19         3833.85         3932.59 
       0.129052         3724.69         3670.55          3756.2 
       0.135211          3570.9         3522.42         3595.83 
       0.141259         3455.29         3356.98         3466.87 
       0.147318         3283.31         3157.23         3311.05 
       0.153489         3019.31         2924.08         3049.21 
       0.159709         2847.87         2678.64         2867.54 
       0.165845         2718.55         2450.14         2722.98 
       0.171974          2545.2         2254.42          2538.5 
       0.178125         2406.66         2099.85         2432.01 
       0.184229         2289.21         1986.83          2294.7 
        0.19034         2170.77         1904.92         2200.99 
       0.196428         2133.49         1841.06         2115.75 
       0.202534         2060.33         1781.07         2061.11 
       0.208729         1976.76         1713.49         1970.96 
       0.214876         1903.48         1634.68         1935.01 
       0.220989         1839.55         1545.74         1877.39 
       0.227147         1760.45         1451.25         1810.54 
        0.23329         1687.67         1359.67          1747.8 
       0.239377          1658.3         1278.13          1668.2 
       0.245482         1554.46         1209.39         1586.59 
       0.251667         1544.44         1153.78         1542.31 
       0.257832         1483.27         1110.13         1488.13 
       0.263955         1436.12         1074.33         1446.95 
       0.270079         1388.94          1041.5         1411.59 
        0.27624         1374.31         1007.61          1374.8 
       0.282372          1317.9         970.783         1354.03 
        0.28843         1311.38          931.12         1327.32 
       0.294538         1247.47         889.074         1289.23 
       0.300721         1239.01         846.753         1248.84 
        0.30691         1191.19         806.903         1227.53 
       0.313033         1167.17         771.714         1184.47 
       0.319153         1148.46         741.351         1148.29 
       0.325316         1110.87         715.356         1127.47 
        0.33145         1087.19         692.892         1088.33 
       0.337538         1066.94         672.585         1071.97 
       0.343633         1044.41          652.81         1061.89 
       0.349808         1010.19         632.428         1046.89 
       0.355968         1002.91          611.27         1029.67 
       0.362074         993.293         589.714         1010.94 
       0.368217          962.07         567.982         985.586 
       0.374374         926.623         546.895         965.464 
       0.380519         928.257          527.22         944.396 
       0.386598         901.911         509.428          931.39 
       0.392688         898.657         493.395         909.176 
        0.39888         872.539         478.655          894.38 
       0.405048          862.21         465.112         879.776 
       0.411186         850.048         452.324         864.594 
       0.417313         832.294         439.807          854.24 
       0.423458          817.81         427.258         840.111 
       0.429607          807.52         414.687         826.779 
       0.435692         790.943         402.294         809.146 
       0.441815         784.091         390.073          805.63 
       0.447964         767.566         378.298         794.581 
       0.454126         761.084         367.143         771.591 
       0.460267         742.346         356.736         769.515 
       0.466387         733.564         347.082         755.685 
        0.47254         728.936         337.982          744.96 
       0.478662          721.31         329.364         734.012 
       0.484765         700.393         321.079         725.935 
       0.490885         696.271         312.977          712.96 
       0.497035         681.382         304.962          706.74 
       0.503198         677.347         297.038         698.873 
       0.509342         670.239         289.306          686.87 
       0.515458         666.231          281.84         682.058 
       0.521598         649.515         274.618          674.93 
       0.527764         638.069         267.672         668.117 
       0.533884         636.121         261.105          659.88 
           0.54         629.867         254.867         651.519 
       0.546137         624.211         248.878         644.077 
       0.552299         615.578         243.082         635.167 
       0.558452         610.788         237.465         630.233 
       0.564573          602.95         232.023         624.882 
       0.570708         596.375         226.704         617.414 
       0.576825         580.381         221.528         608.824 
       0.582926         582.766          216.49         604.561 
       0.589034         576.531         211.586         595.494 
       0.595184         571.608         206.807         589.462 
       0.601379         563.086          202.17         584.065 
       0.607522         555.505         197.747         575.511 
       0.613639         555.314         193.501         574.188 
       0.619772         543.686         189.381         572.269 
       0.625918         540.525         185.376         563.944 
       0.632068         533.163         181.479         560.714 
       0.638161         531.054         177.722         552.351 
         0.6443         521.888         174.037         548.089 
       0.650464         519.746         170.437         540.138 
       0.656582         515.254         166.959         537.311 
       0.662703         513.409         163.572         533.388 
       0.668861         504.793          160.26         530.896 
       0.675024         500.555         157.038         527.103 
       0.681124         496.986         153.942         518.808 
       0.687237         492.904         150.931         514.167 
       0.693381         486.252         147.994         509.521 
       0.699536         478.686         145.135         506.157 
       0.705665         478.246         142.366         499.982 
       0.711789         475.522         139.672         496.557 
       0.717957         471.027         137.027          495.82 
        0.72409         468.544         134.462         490.236 
       0.730186         461.414         131.975         485.293 
       0.736317         458.726         129.535         481.895 
       0.742472         455.929         127.147         478.366 
       0.748622         451.125         124.821          473.78 
        0.75476         444.511         122.561         474.442 
       0.760888         440.398         120.362         468.331 
       0.767043         440.903         118.211          462.85 
       0.773185         436.298         116.119         460.221 
       0.779291         431.399         114.091         456.273 
       0.785407         428.553         112.109         453.572 
       0.791564         423.634         110.163          451.67 
       0.797719         421.548         108.264         447.243 
       0.803834         416.716         106.421         444.785 
       0.809972         415.887         104.615         441.974 
       0.816124         414.575         102.846         436.558 
       0.822261         408.574         101.122         434.649 
       0.828378         406.673         99.4437         431.372 
       0.834502         401.829         97.8017         429.894 
       0.840667         398.919         96.1864         426.215 
       0.846816         397.043         94.6123         423.092 
       0.852925         394.278         93.0838         420.673 
       0.859047          392.33         91.5862         416.679 
       0.865192         387.345          90.117         413.729 
       0.871341         384.194         88.6795         411.571 
       0.877463         383.849         87.2801          409.22 
       0.883569         380.149         85.9147         407.462 
       0.889708         377.415         84.5718         403.209 
       0.895864         375.695         83.2544         401.155 
       0.902008         372.301         81.9681         398.306 
       0.908149         368.081         80.7098         394.829 
       0.914301         365.873          79.476         391.715 
       0.920448         363.838         78.2693         390.699 
       0.926574         358.619          77.092         387.815 
       0.932687         358.519         75.9416         384.829 
       0.938823          354.57         74.8106         384.093 
       0.944975         354.766         73.7002         380.952 
       0.951105         350.525         72.6165         378.099 
       0.957225          348.31         71.5565         376.222 
       0.963368          344.28         70.5143         373.908 
       0.969511         343.163         69.4929         371.723 
       0.975621         340.997         68.4973         369.169 
       0.981748         339.026         67.5189         367.172 
       0.987916         337.173         66.5535         365.489 
        0.99406         331.852         65.6107         362.969 
        1.00019          330.57         64.6882         359.776 
        1.00632         329.123         63.7844         357.576 
        1.01246         326.255         62.8966         355.216 
        1.01859         326.472         62.0272          353.11 
        1.02471         321.574         61.1755         351.543 
        1.03085         319.977         60.3369         350.303 
        1.03698         318.777         59.5159          348.85 
        1.04314         315.854         58.7068          346.25 
        1.04929          313.07         57.9148         343.275 
        1.05541         313.631         57.1405          341.27 
        1.06154         308.249         56.3786         339.666 
        1.06769          307.47         55.6295         337.347 
        1.07382         305.124         54.8966         335.544 
        1.07993         303.296         54.1785         333.863 
        1.08607          302.42         53.4704         331.434 
        1.09222         299.187         52.7743         329.706 
        1.09836         297.157         52.0914         328.516 
        1.10449         294.812         51.4215         326.788 
        1.11063         291.652         50.7627         324.022 
        1.11677         291.719         50.1158         322.552 
         1.1229         289.479         49.4813         320.634 
        1.12903         287.588         48.8572          319.01 
        1.13518         285.003         48.2435         316.845 
        1.14131         283.445         47.6407         315.339 
        1.14745         282.022         47.0485         313.022 
        1.15359         280.117         46.4664         312.324 
        1.15973         278.033         45.8939          310.26 
        1.16584         276.054         45.3336          309.08 
        1.17197          275.97          44.782          307.53 
        1.17811          272.46         44.2378         305.293 
        1.18424          270.71         43.7043         303.828 
        1.19038         269.786         43.1781         302.848 
        1.19652         267.407         42.6608         300.422 
        1.20267         266.665         42.1521         299.084 
        1.20881         264.593         41.6517         297.492 
        1.21495         262.636         41.1603         295.675 
        1.22108         261.103          40.677         293.848 
         1.2272          259.52         40.2026         292.641 
        1.23334          258.05         39.7347         290.948 
        1.23949         255.858         39.2731         289.494 
        1.24562         254.933         38.8202         287.738 
        1.25174         253.265         38.3752         286.373 
        1.25789         251.165         37.9358         284.744 
        1.26402         249.069         37.5041         283.942 
        1.27014          247.63         37.0801         281.817 
        1.27628         246.143         36.6615         281.244 
        1.28244         245.788         36.2486         279.918 
        1.28858         243.364         35.8426         278.183 
        1.29471         241.901         35.4438         276.205 
        1.30084         240.156         35.0514         274.678 
        1.30697         238.834         34.6644         273.686 
        1.31312         236.406         34.2827          272.22 
        1.31925         235.424         33.9079         270.836 
        1.32537         234.683         33.5392         269.093 
        1.33151          232.46         33.1746         267.994 
        1.33765         230.727         32.8158         266.935 
        1.34378         230.055         32.4629         265.269 
        1.34992         228.622          32.115         263.785 
        1.35606         228.005         31.7715          262.22 
         1.3622         225.574         31.4336          261.47 
        1.36833         223.918         31.1014         260.447 
        1.37445         222.922         30.7743         258.289 
        1.38059          220.99         30.4508         257.552 
        1.38675         220.119         30.1313         256.629 
        1.39288         218.816         29.8176         254.752 
        1.39901          217.87         29.5085         253.335 
        1.40515         216.099         29.2031         251.918 
         1.4113          214.86         28.9021         250.629 
        1.41742          213.21         28.6066         249.673 
        1.42355         212.426         28.3146         248.228 
         1.4297         210.412         28.0259         246.822 
        1.43585         209.351         27.7413         246.427 
        1.44198         208.365         27.4617         244.902 
        1.44809          206.96         27.1866         243.756 
        1.45423         205.903         26.9142         241.952 
        1.46036          204.52          26.646         241.065 
        1.46649         202.987         26.3814         240.174 
        1.47263          201.99         26.1202         238.633 
        1.47877         200.503         25.8627         237.238 
        1.48491         198.712         25.6082         235.918 
        1.49104         198.144         25.3577         235.106 
        1.49718         196.434         25.1104         234.587 
        1.50333         195.699          24.866         233.094 
        1.50947         194.338         24.6254         231.877 
         1.5156          192.72         24.3883         230.897 
        1.52172          192.06         24.1543         229.547 
        1.52787         190.299         23.9229         228.648 
          1.534         189.904         23.6949         227.513 
        1.54013          188.29           23.47         226.468 
        1.54627         187.188         23.2477         225.618 
        1.55241         185.946         23.0283         224.586 
        1.55855         184.695         22.8119         223.439 
        1.56467         183.628          22.599         222.096 
         1.5708         182.769         22.3882         220.985 
        1.57695         181.694         22.1798         220.004 
        1.58308         180.528         21.9745         218.838 
        1.58922         179.093         21.7716         217.822 
        1.59535         177.805         21.5714         217.085 
         1.6015         177.026         21.3735         216.255 
        1.60764         175.943         21.1781         215.055 
        1.61376             175         20.9858         213.847 
        1.61989          173.95         20.7956         212.895 
        1.62604         172.788         20.6075         211.753 
        1.63218         171.771         20.4217         210.799 
        1.63831         170.436         20.2387         210.039 
        1.64444         169.711         20.0578         208.967 
        1.65059         168.677         19.8788         208.069 
        1.65673         167.452         19.7021         207.149 
        1.66285         166.348         19.5281         206.078 
        1.66898         165.453         19.3561         204.998 
        1.67512         164.919         19.1858         204.188 
        1.68127         163.158         19.0175         203.253 
         1.6874         162.531         18.8515         202.283 
        1.69353         161.362         18.6876         201.529 
        1.69967         160.113         18.5253         200.562 
        1.70581         159.578          18.365         199.677 
        1.71193         158.341         18.2072         198.812 
        1.71806         157.652         18.0509         197.638 
        1.72421         156.548         17.8962          196.79 
        1.73035         155.826         17.7434         195.953 
        1.73649         154.923         17.5925         194.948 
        1.74262         153.878         17.4434         194.138 
        1.74876         152.684          17.296         193.272 
        1.75489         152.025         17.1505         192.452 
        1.76101         150.691         17.0068         191.766 
        1.76715          150.32         16.8646         190.958 
        1.77329         149.237         16.7238         190.106 
        1.77943         148.523         16.5845         189.194 
        1.78557         147.633         16.4471         188.207 
        1.79171         146.796         16.3112         187.401 
        1.79785         145.748         16.1768           186.6 
        1.80399         144.898         16.0439         185.654 
        1.81012         143.993         15.9127         185.111 
        1.81625         143.446         15.7831         184.366 
        1.82239         142.262         15.6546         183.266 
        1.82853         141.704         15.5277         182.481 
        1.83466           140.6         15.4023         181.637 
        1.84078         139.987         15.2785         180.781 
        1.84692         138.722         15.1557         180.292 
        1.85306           138.4         15.0342         179.374 
         1.8592         137.414         14.9142         178.338 
        1.86533         136.661         14.7956         177.877 
        1.87147         135.595         14.6782         177.258 
