# k  (h/Mpc)    Pcb(k)  (Mpc/h)^3    Pcb_linear(k) (Mpc/h)^3    Pcb_NL(k) (Mpc/h)^3   ShotnoiseSubtracted = false
     0.00783031         3216.59         3250.94         3236.78 
       0.013688         4078.11         4069.88         4050.44 
       0.019231         4180.83         4176.55         4153.41 
      0.0249154         3872.15          3908.3         3891.02 
      0.0312784         3403.36         3413.49         3403.99 
      0.0375637         2917.19         2909.47         2902.67 
      0.0433917         2506.26         2517.77         2512.34 
      0.0492413         2224.48          2223.6          2219.2 
      0.0555754         1986.92         2004.85         2000.04 
      0.0619321          1867.6         1855.63         1850.37 
       0.067871         1732.16          1744.7         1738.89 
      0.0738098         1620.24         1634.14         1624.59 
      0.0800417         1482.45         1502.93         1494.69 
      0.0862327         1346.13         1356.59         1353.38 
      0.0921407          1211.2         1212.27         1211.01 
      0.0982031          1068.9         1073.64         1078.09 
       0.104506          963.88         952.232         960.945 
       0.110769         871.745         860.523         866.681 
       0.116806         803.934         798.293         803.725 
       0.122832         765.695         755.786         761.581 
       0.129052         724.686         723.596         728.323 
       0.135211          694.81         694.397         698.982 
       0.141259         666.935         661.783         667.776 
       0.147318         630.653         622.407         631.671 
       0.153489         581.417         576.444         583.437 
       0.159709         537.648         528.061         538.342 
       0.165845         500.188         483.016         498.393 
       0.171974         458.528         444.432         459.292 
       0.178125         430.388         413.961         431.633 
       0.184229         409.547          391.68         408.656 
        0.19034         385.567         375.533         391.388 
       0.196428          377.92         362.945         376.131 
       0.202534         368.891         351.117         364.678 
       0.208729         352.275         337.796         350.801 
       0.214876         333.785         322.259         338.772 
       0.220989         321.232         304.727         322.633 
       0.227147         299.876         286.099         304.512 
        0.23329         283.591         268.045         288.932 
       0.239377         271.117          251.97          273.61 
       0.245482         253.353         238.419         258.315 
       0.251667         246.993         227.456         248.579 
       0.257832         238.324         218.852         239.117 
       0.263955         230.242         211.793         231.149 
       0.270079         223.006         205.321          224.27 
        0.27624         218.734         198.641         216.847 
       0.282372          210.57          191.38         210.423 
        0.28843         201.993         183.561         202.945 
       0.294538         193.212         175.272         195.525 
       0.300721         188.346         166.929         188.321 
        0.30691         178.889         159.073         180.933 
       0.313033         172.921         152.136         173.348 
       0.319153         164.754          146.15         167.685 
       0.325316         161.599         141.025         162.895 
        0.33145           155.9         136.597         157.301 
       0.337538         152.912         132.594         152.781 
       0.343633         147.995         128.695         149.403 
       0.349808         143.726         124.677          145.84 
       0.355968         140.215         120.506         142.553 
       0.362074         135.788         116.257         138.042 
       0.368217         131.641         111.972         132.936 
       0.374374         127.483         107.815          129.27 
       0.380519         124.162         103.937         125.084 
       0.386598         120.641         100.429         121.682 
       0.392688         118.244         97.2682         118.591 
        0.39888         114.971         94.3624         115.141 
       0.405048         112.318         91.6926         112.566 
       0.411186         109.778         89.1714         110.405 
       0.417313         106.674         86.7039         107.133 
       0.423458         104.138         84.2299         104.892 
       0.429607         101.386         81.7517         102.336 
       0.435692         98.1458         79.3085         100.006 
       0.441815         96.9354         76.8993          98.234 
       0.447964         95.1477         74.5781         95.4529 
       0.454126         91.0006         72.3788         92.7605 
       0.460267         89.6727         70.3272         91.2147 
       0.466387         87.6295         68.4241         88.8809 
        0.47254         86.1464           66.63         87.2149 
       0.478662         84.7871         64.9312         85.3531 
       0.484765         82.4235         63.2978         83.2111 
       0.490885         80.7696         61.7007           82.06 
       0.497035         79.6042         60.1205         80.6839 
       0.503198         77.4585         58.5583         78.7451 
       0.509342         75.5888          57.034         77.3824 
       0.515458         74.2726         55.5621         76.3423 
       0.521598         73.1407         54.1385         74.1654 
       0.527764         71.7924         52.7692         72.3098 
       0.533884         70.5209         51.4745         71.1031 
           0.54         69.0677         50.2447         69.8807 
       0.546137         68.1683         49.0641         68.9049 
       0.552299         67.1133         47.9214         67.2577 
       0.558452         65.2339         46.8142         65.9655 
       0.564573         64.0973         45.7413         65.1837 
       0.570708         63.2892         44.6927         64.0452 
       0.576825         61.9734         43.6722          62.886 
       0.582926         60.7536         42.6791         61.8022 
       0.589034         59.3294         41.7122         61.0128 
       0.595184         58.5871         40.7702         59.8035 
       0.601379         57.7434         39.8561         59.0176 
       0.607522         56.3681         38.9841         57.6513 
       0.613639         56.1024          38.147         56.8861 
       0.619772         54.7017         37.3349         55.9292 
       0.625918         54.3031         36.5453         55.3261 
       0.632068         53.5058          35.777         54.2382 
       0.638161         52.5753         35.0363         53.5093 
         0.6443         51.6845         34.3099         52.5348 
       0.650464           50.84         33.6002         51.7256 
       0.656582         50.4026         32.9145         51.1392 
       0.662703         49.3748         32.2469         50.1796 
       0.668861         48.6721         31.5938         49.6298 
       0.675024         47.9172         30.9586         48.7387 
       0.681124         47.1104         30.3483         48.0259 
       0.687237         46.2845         29.7547         47.3242 
       0.693381         45.9185         29.1757         46.5978 
       0.699536         44.9502         28.6121         46.2374 
       0.705665          45.023         28.0662         45.6334 
       0.711789         43.8302         27.5352         44.6727 
       0.717957         43.3721         27.0138          44.306 
        0.72409         42.7687          26.508         43.8277 
       0.730186         42.0979         26.0176         43.1615 
       0.736317         41.7939         25.5366         42.5267 
       0.742472         41.0579         25.0658         42.0486 
       0.748622         40.6971         24.6074         41.4136 
        0.75476         40.0937         24.1618         40.9458 
       0.760888         39.4788         23.7283         40.4551 
       0.767043         39.0336         23.3042         40.0743 
       0.773185         38.4334         22.8918         39.5631 
       0.779291         38.2521          22.492          39.128 
       0.785407         37.8554         22.1013         38.5465 
       0.791564         37.1548         21.7176         38.0832 
       0.797719         36.4478         21.3432         37.7367 
       0.803834          36.376           20.98         37.1928 
       0.809972         35.8827         20.6239         36.8025 
       0.816124          35.183         20.2751         36.3849 
       0.822261         34.9771         19.9354         35.8792 
       0.828378          34.678         19.6045         35.4052 
       0.834502         34.2613         19.2808         35.2386 
       0.840667         33.8821         18.9623          34.753 
       0.846816         33.3344          18.652         34.3904 
       0.852925         33.0482         18.3507         34.1813 
       0.859047         32.6326         18.0554         33.6436 
       0.865192         32.3271         17.7658         33.2853 
       0.871341         32.1461         17.4824         33.0052 
       0.877463          31.505         17.2065         32.6439 
       0.883569         31.2026         16.9373          32.372 
       0.889708         30.8922         16.6726          31.949 
       0.895864         30.6122         16.4129         31.5921 
       0.902008         30.3602         16.1593         31.3187 
       0.908149         30.0408         15.9112          31.077 
       0.914301         29.9021          15.668         30.8407 
       0.920448         29.3258         15.4301         30.4183 
       0.926574         29.1322          15.198         30.0742 
       0.932687         28.8011         14.9712         29.8094 
       0.938823          28.426         14.7483         29.4879 
       0.944975         28.2296         14.5294         29.1982 
       0.951105         27.9648         14.3157         28.9333 
       0.957225         27.6344         14.1068         28.6809 
       0.963368          27.481         13.9013         28.3801 
       0.969511         27.2297         13.6999          28.109 
       0.975621          27.011         13.5037         27.9069 
       0.981748         26.6206         13.3108         27.6773 
       0.987916         26.4556         13.1204         27.3646 
        0.99406         26.1905         12.9346         27.1418 
        1.00019          25.857         12.7527         26.8884 
        1.00632          25.738         12.5745         26.6901 
        1.01246         25.5411         12.3995         26.4911 
        1.01859         25.1608         12.2281          26.251 
        1.02471         25.1051         12.0602         25.9963 
        1.03085         24.8597         11.8949         25.7648 
        1.03698         24.4604         11.7331         25.5393 
        1.04314         24.3046         11.5735         25.2711 
        1.04929         24.0767         11.4174         25.1384 
        1.05541         23.8232         11.2648         25.0095 
        1.06154         23.7035         11.1146         24.6786 
        1.06769         23.5259         10.9669         24.4561 
        1.07382         23.2974         10.8224         24.3228 
        1.07993         23.1817         10.6808         24.0847 
        1.08607         22.8595         10.5412         23.9101 
        1.09222         22.7485          10.404         23.7724 
        1.09836         22.4725         10.2694          23.552 
        1.10449         22.3628         10.1373         23.3266 
        1.11063         22.0646         10.0074         23.1884 
        1.11677         21.9923          9.8799         22.9738 
         1.1229         21.8849         9.75481         22.8089 
        1.12903         21.5805         9.63178         22.6416 
        1.13518         21.3892         9.51079         22.4164 
        1.14131         21.3228         9.39195         22.2738 
        1.14745         21.1361         9.27521         22.1348 
        1.15359         21.0192         9.16045         21.9515 
        1.15973         20.7891         9.04758         21.8102 
        1.16584         20.5387         8.93714         21.6601 
        1.17197          20.556         8.82838          21.531 
        1.17811         20.2726         8.72111         21.2563 
        1.18424         20.0973         8.61593         21.1644 
        1.19038         20.0407          8.5122         21.0593 
        1.19652         19.8895         8.41022          20.845 
        1.20267         19.7162         8.30992           20.72 
        1.20881         19.5934         8.21128          20.597 
        1.21495         19.4474         8.11441         20.4704 
        1.22108         19.2806         8.01912         20.2977 
         1.2272         19.0783         7.92559         20.1615 
        1.23334         18.9896         7.83335         20.0553 
        1.23949          18.817         7.74236         19.8672 
        1.24562         18.7457         7.65308         19.7416 
        1.25174         18.6365         7.56534         19.6254 
        1.25789         18.4853         7.47871         19.4831 
        1.26402         18.4085         7.39361         19.3326 
        1.27014         18.1992         7.31004         19.2255 
        1.27628         18.0339         7.22751         19.0691 
        1.28244         17.9695          7.1461         19.0154 
        1.28858         17.8995         7.06607         18.8468 
        1.29471         17.7249         6.98744         18.7185 
        1.30084         17.5801         6.91008         18.6573 
        1.30697         17.4643         6.83379         18.4964 
        1.31312         17.3042         6.75854         18.3645 
        1.31925         17.1915         6.68466         18.2894 
        1.32537         17.1478         6.61197         18.1902 
        1.33151         16.9794          6.5401         18.0586 
        1.33765         16.9071         6.46935         17.9426 
        1.34378         16.8105         6.39978         17.8352 
        1.34992          16.604          6.3312          17.742 
        1.35606         16.5734         6.26347         17.6082 
         1.3622         16.4709         6.19686         17.5067 
        1.36833         16.3205         6.13139         17.4353 
        1.37445          16.276         6.06689         17.2876 
        1.38059         16.1562         6.00312         17.1662 
        1.38675          15.984         5.94012          17.103 
        1.39288         15.9398         5.87828         16.9866 
        1.39901         15.8093         5.81734         16.8952 
        1.40515          15.741         5.75714         16.7986 
         1.4113         15.6148         5.69781         16.7061 
        1.41742         15.4962         5.63955         16.6217 
        1.42355         15.4363         5.58199         16.4937 
         1.4297         15.3512         5.52507         16.4071 
        1.43585         15.2924         5.46896         16.3464 
        1.44198          15.138         5.41385         16.2449 
        1.44809         15.0709          5.3596         16.1667 
        1.45423         14.9704          5.3059         16.0499 
        1.46036         14.9043         5.25304          15.948 
        1.46649          14.822         5.20088         15.8765 
        1.47263         14.6922         5.14938         15.8185 
        1.47877          14.621         5.09861         15.7397 
        1.48491         14.5456         5.04845         15.5972 
        1.49104         14.4907         4.99906         15.5323 
        1.49718         14.3685         4.95031         15.4725 
        1.50333         14.3006         4.90213         15.3865 
        1.50947          14.228         4.85468         15.3134 
         1.5156          14.109         4.80794         15.2316 
        1.52172         14.0294         4.76182          15.126 
        1.52787         13.9687          4.7162         15.0464 
          1.534         13.8751         4.67125         14.9726 
        1.54013         13.7704         4.62692         14.8652 
        1.54627         13.7041         4.58309         14.7822 
        1.55241         13.6319         4.53983         14.7313 
        1.55855          13.562         4.49718         14.6605 
        1.56467         13.4807          4.4552         14.5853 
         1.5708         13.4546         4.41364          14.525 
        1.57695         13.3221         4.37255         14.4505 
        1.58308         13.2798         4.33208         14.3772 
        1.58922         13.2085         4.29209         14.3262 
        1.59535         13.1381         4.25263         14.2493 
         1.6015         13.0441         4.21361         14.1701 
        1.60764         12.9822         4.17509         14.0882 
        1.61376         12.9361         4.13717         14.0084 
        1.61989         12.8129         4.09969         13.9656 
        1.62604         12.8045         4.06259         13.9186 
        1.63218         12.7091         4.02597         13.8449 
        1.63831         12.6654         3.98989         13.7706 
        1.64444         12.5515         3.95423         13.7151 
        1.65059         12.4958         3.91893         13.6296 
        1.65673         12.4659          3.8841         13.5745 
        1.66285         12.3447         3.84979         13.5214 
        1.66898         12.3235         3.81589         13.4324 
        1.67512         12.2663         3.78232         13.3646 
        1.68127         12.1823         3.74914         13.3072 
         1.6874         12.1156         3.71642         13.2438 
        1.69353         12.0581         3.68411         13.1764 
        1.69967         11.9893         3.65211         13.1306 
        1.70581           11.93         3.62051         13.0842 
        1.71193         11.8569          3.5894         13.0236 
        1.71806         11.8241         3.55859         12.9598 
        1.72421         11.7412         3.52808         12.9122 
        1.73035         11.7078         3.49796         12.8537 
        1.73649         11.6409         3.46821         12.7813 
        1.74262         11.6015         3.43882         12.7296 
        1.74876         11.5375         3.40975         12.6689 
        1.75489         11.4833         3.38109         12.5995 
        1.76101         11.3924         3.35276          12.542 
        1.76715         11.3951         3.32471         12.5068 
        1.77329         11.2981         3.29696         12.4435 
        1.77943         11.2407          3.2695          12.379 
        1.78557         11.2005         3.24241         12.3482 
        1.79171          11.166         3.21561         12.2895 
        1.79785         11.0772         3.18911         12.2223 
        1.80399         11.0326         3.16292         12.1857 
        1.81012         10.9904         3.13706         12.1305 
        1.81625         10.9214          3.1115          12.084 
        1.82239         10.8808         3.08618         12.0504 
        1.82853         10.7969         3.06116         11.9861 
        1.83466         10.7612         3.03644         11.9299 
        1.84078         10.6845         3.01202         11.8876 
        1.84692         10.6725         2.98783          11.829 
        1.85306         10.6068         2.96387         11.7777 
         1.8592         10.5632         2.94022          11.736 
        1.86533         10.5196         2.91683         11.6862 
        1.87147         10.4679         2.89368          11.637 
