# k  (h/Mpc)    Pcb(k)  (Mpc/h)^3    Pcb_linear(k) (Mpc/h)^3    Pcb_NL(k) (Mpc/h)^3   ShotnoiseSubtracted = false
     0.00783031         9651.26         9775.16         9730.23 
       0.013688         12309.7         12226.4         12154.6 
       0.019231           12564         12543.3         12451.2 
      0.0249154         11540.3           11736         11648.2 
      0.0312784         10164.7         10249.3         10170.8 
      0.0375637         8741.97         8735.48         8668.39 
      0.0433917         7461.35         7559.22         7490.92 
      0.0492413         6649.45         6675.86         6613.81 
      0.0555754         5886.75         6019.02         5962.75 
      0.0619321         5596.57         5570.95         5514.86 
       0.067871         5135.07         5237.87         5184.62 
      0.0738098         4803.39         4905.92         4822.21 
      0.0800417         4374.62         4511.98          4438.2 
      0.0862327         3990.55         4072.63         4038.46 
      0.0921407         3620.09         3639.34         3617.47 
      0.0982031         3195.82         3223.17          3246.1 
       0.104506         2921.99         2858.67         2916.21 
       0.110769          2649.7         2583.35         2623.26 
       0.116806         2453.12         2396.52         2432.61 
       0.122832         2334.23         2268.91         2308.05 
       0.129052         2189.33         2172.27         2205.13 
       0.135211         2100.67         2084.61         2114.56 
       0.141259         2025.87          1986.7         2029.55 
       0.147318         1919.97         1868.49         1932.17 
       0.153489         1766.24         1730.51         1779.41 
       0.159709         1654.35         1585.26         1659.53 
       0.165845         1560.72         1450.03         1560.51 
       0.171974         1447.93          1334.2         1445.55 
       0.178125         1365.06         1242.72         1375.05 
       0.184229         1301.51         1175.83         1299.78 
        0.19034         1221.54         1127.36         1245.17 
       0.196428         1204.36         1089.57         1193.63 
       0.202534         1170.92         1054.06         1160.74 
       0.208729         1119.37         1014.07          1112.3 
       0.214876         1066.63         967.427          1087.8 
       0.220989         1031.26         914.795         1047.04 
       0.227147         975.832         858.874         999.285 
        0.23329         931.341         804.675         960.253 
       0.239377         906.199         756.417         914.095 
       0.245482         843.861         715.737         865.168 
       0.251667         834.299         682.825         839.227 
       0.257832         803.521         656.996         807.784 
       0.263955         778.196         635.805         782.518 
       0.270079         751.729         616.377         761.926 
        0.27624         743.877         596.322         739.398 
       0.282372         713.421         574.526         721.875 
        0.28843         697.684         551.053         701.508 
       0.294538         663.161         526.169           681.5 
       0.300721         658.299         501.123         660.427 
        0.30691         627.454         477.539         643.279 
       0.313033         614.168         456.714         618.573 
       0.319153         595.755         438.745         599.804 
       0.325316         578.092          423.36         586.222 
        0.33145         562.071         410.066         565.091 
       0.337538         554.151         398.048         552.933 
       0.343633          537.25         386.345         547.336 
       0.349808         519.703         374.282         537.314 
       0.355968         514.953          361.76          527.41 
       0.362074         505.257         349.003         514.809 
       0.368217         491.081         336.142         498.674 
       0.374374         471.023         323.662         487.157 
       0.380519         467.273         312.018         474.501 
       0.386598         455.567         301.488         467.257 
       0.392688         452.455             292         453.754 
        0.39888         439.459         283.276         445.524 
       0.405048         430.456         275.262         439.584 
       0.411186         422.375         267.693         428.281 
       0.417313         414.701         260.286         419.528 
       0.423458         406.899         252.859         413.223 
       0.429607         398.815         245.419         405.171 
       0.435692         389.318         238.085         396.562 
       0.441815         386.117         230.852         392.781 
       0.447964         377.863         223.884         385.155 
       0.454126         366.792         217.282         374.479 
       0.460267         361.458         211.123         371.891 
       0.466387         357.438          205.41         364.423 
        0.47254         349.866         200.024         358.975 
       0.478662         348.731         194.924         352.146 
       0.484765         337.654          190.02         344.982 
       0.490885         333.907         185.226         340.543 
       0.497035         327.961         180.482         336.519 
       0.503198         322.024         175.792         331.453 
       0.509342         319.302         171.216         327.223 
       0.515458         315.456         166.798          323.96 
       0.521598         309.064         162.524         317.594 
       0.527764          303.84         158.413           313.4 
       0.533884         301.062         154.527          309.23 
           0.54         296.883         150.835         304.295 
       0.546137         295.308         147.291          300.82 
       0.552299         289.267          143.86         295.997 
       0.558452         286.767         140.536         292.564 
       0.564573         282.284         137.316         290.091 
       0.570708         277.157         134.168         286.989 
       0.576825         272.858         131.104         281.331 
       0.582926         270.136         128.123         278.287 
       0.589034         267.264          125.22         275.114 
       0.595184          264.43         122.392         270.402 
       0.601379         261.567         119.648         268.482 
       0.607522         256.836         117.031         264.919 
       0.613639         255.368         114.517         262.723 
       0.619772         249.634         112.079          260.47 
       0.625918         248.286         109.709         256.805 
       0.632068         244.624         107.403          253.09 
       0.638161         243.477         105.179         251.681 
         0.6443         239.475         102.998         248.883 
       0.650464         237.009         100.868         244.331 
       0.656582         235.379         98.8094         242.413 
       0.662703         233.394         96.8052         240.735 
       0.668861         229.295         94.8446         238.138 
       0.675024         226.533         92.9378         235.508 
       0.681124         225.628         91.1057          232.53 
       0.687237         222.527         89.3238         230.199 
       0.693381         219.213         87.5855         227.754 
       0.699536         217.557         85.8935         225.869 
       0.705665         216.325          84.255         224.187 
       0.711789         213.236         82.6607         221.825 
       0.717957          212.21         81.0954         219.892 
        0.72409         209.656         79.5772         218.369 
       0.730186         206.906          78.105         216.341 
       0.736317         204.947          76.661         213.717 
       0.742472         203.805         75.2477         211.702 
       0.748622          202.14         73.8715         209.506 
        0.75476         200.404         72.5337         208.502 
       0.760888         197.636         71.2324         205.643 
       0.767043         197.237         69.9593         204.445 
       0.773185         194.905         68.7212         203.002 
       0.779291         191.441          67.521          200.71 
       0.785407         190.937         66.3483         198.879 
       0.791564         189.014         65.1964         197.516 
       0.797719         186.609         64.0725         196.379 
       0.803834         185.598         62.9821         194.563 
       0.809972          183.97         61.9129         192.935 
       0.816124         183.839          60.866         191.339 
       0.822261         181.253         59.8461         189.788 
       0.828378         179.613         58.8526          187.83 
       0.834502         179.451         57.8809         186.591 
       0.840667         176.466         56.9249         185.284 
       0.846816         175.158         55.9933         183.923 
       0.852925         174.355         55.0887         182.479 
       0.859047         172.395         54.2024         181.166 
       0.865192         170.966         53.3329         179.666 
       0.871341         169.398         52.4822         178.127 
       0.877463         168.151          51.654          177.17 
       0.883569         167.232         50.8459         176.195 
       0.889708         165.757         50.0512          174.55 
       0.895864         163.764         49.2715         173.638 
       0.902008         163.098         48.5102         171.978 
       0.908149         162.346         47.7656         170.501 
       0.914301         160.432         47.0354         169.552 
       0.920448          159.23         46.3213         168.236 
       0.926574         158.381         45.6245         166.794 
       0.932687         157.833         44.9437         165.737 
       0.938823         155.706         44.2743          164.91 
       0.944975         154.332         43.6172         163.959 
       0.951105         153.669         42.9758         162.576 
       0.957225         151.976         42.3485         161.374 
       0.963368         150.419         41.7317         159.939 
       0.969511         150.036         41.1272         158.934 
       0.975621         149.116          40.538         158.815 
       0.981748         148.518         39.9589         157.513 
       0.987916         146.682         39.3876         156.486 
        0.99406         145.715         38.8296         155.368 
        1.00019         145.355         38.2837         154.152 
        1.00632         143.919         37.7488         152.902 
        1.01246         143.028         37.2234         151.656 
        1.01859         141.895         36.7089         151.352 
        1.02471          140.88         36.2048         150.794 
        1.03085         139.573         35.7085         149.612 
        1.03698         138.847         35.2227         148.629 
        1.04314         137.672         34.7438         147.659 
        1.04929         136.725          34.275         146.838 
        1.05541         136.058         33.8168         146.045 
        1.06154         135.124         33.3659         145.199 
        1.06769         134.953         32.9226         144.447 
        1.07382         133.816         32.4888          143.53 
        1.07993         132.633         32.0639         142.569 
        1.08607         131.788         31.6448         141.902 
        1.09222         131.242         31.2328         141.219 
        1.09836         130.082         30.8287         140.265 
        1.10449         129.004         30.4322         139.419 
        1.11063         128.138         30.0423         138.282 
        1.11677         127.733         29.6595         137.569 
         1.1229         126.414         29.2839          136.92 
        1.12903         125.679         28.9146         136.104 
        1.13518         125.578         28.5514         135.356 
        1.14131         124.203         28.1946         134.366 
        1.14745         123.638         27.8442          133.82 
        1.15359         122.736         27.4997         132.964 
        1.15973         122.324         27.1609         132.466 
        1.16584         121.106         26.8293         131.249 
        1.17197         120.532         26.5028         130.824 
        1.17811         119.746         26.1808         130.315 
        1.18424         119.153          25.865         129.397 
        1.19038         118.692         25.5536         128.837 
        1.19652         117.798         25.2475         128.188 
        1.20267         116.976         24.9464         127.407 
        1.20881         116.066         24.6503         126.798 
        1.21495         115.513         24.3595           125.9 
        1.22108         114.885         24.0734         125.597 
         1.2272         113.907         23.7926          124.58 
        1.23334         113.394         23.5157         124.291 
        1.23949         112.317         23.2426          123.36 
        1.24562         111.906         22.9745         122.534 
        1.25174         110.904         22.7112         122.069 
        1.25789         110.506         22.4511         121.455 
        1.26402          109.96         22.1956         120.807 
        1.27014         109.191         21.9447         120.651 
        1.27628         108.626          21.697         120.186 
        1.28244          107.97         21.4526         119.016 
        1.28858         107.578         21.2123          118.36 
        1.29471         106.479         20.9763         117.928 
        1.30084         106.048         20.7441         117.198 
        1.30697          105.37          20.515         116.757 
        1.31312         105.011         20.2891         116.029 
        1.31925          104.05         20.0674         115.475 
        1.32537         103.645         19.8491         115.092 
        1.33151         102.677         19.6334         114.372 
        1.33765         102.285          19.421         113.898 
        1.34378          101.62         19.2122         113.327 
        1.34992         101.459         19.0063         112.683 
        1.35606         100.696          18.803         112.073 
         1.3622         99.7942          18.603         111.615 
        1.36833         99.5058         18.4064         110.946 
        1.37445         98.7998         18.2128         110.437 
        1.38059         98.3273         18.0214         109.913 
        1.38675         97.5829         17.8322         109.254 
        1.39288         97.1786         17.6466          108.72 
        1.39901         96.8118         17.4637         108.395 
        1.40515         96.1261         17.2829         108.012 
         1.4113         95.3278         17.1048         107.522 
        1.41742         95.2389         16.9299         106.994 
        1.42355         94.4198         16.7571         106.434 
         1.4297          93.933         16.5862         105.928 
        1.43585         93.1876         16.4178         105.264 
        1.44198         92.9304         16.2524          104.87 
        1.44809         92.2824         16.0895         104.414 
        1.45423         91.6697         15.9283         103.823 
        1.46036         91.4716         15.7696         103.379 
        1.46649         90.8103          15.613         103.059 
        1.47263         90.2719         15.4584         102.612 
        1.47877         90.0179          15.306         101.859 
        1.48491         89.1902         15.1554          101.58 
        1.49104         88.8988         15.0072         101.291 
        1.49718          88.256         14.8608         100.485 
        1.50333         87.7822         14.7162         100.031 
        1.50947         87.3266         14.5738         99.6501 
         1.5156         86.9058         14.4334         99.2038 
        1.52172         86.2846          14.295         98.8305 
        1.52787         86.0668          14.158         98.2949 
          1.534         85.4549         14.0231         97.9078 
        1.54013         84.8575           13.89         97.4653 
        1.54627         84.5477         13.7584         97.0145 
        1.55241          83.985         13.6286         96.6392 
        1.55855         83.7288         13.5005         96.1343 
        1.56467          83.157         13.3745         95.7034 
         1.5708         82.6904         13.2498         95.3286 
        1.57695         82.4839         13.1264         94.9147 
        1.58308         81.5922         13.0049         94.4635 
        1.58922         81.4906         12.8849         94.0047 
        1.59535         81.1097         12.7664         93.6275 
         1.6015         80.4863         12.6492         93.1678 
        1.60764         80.1176         12.5336         92.7973 
        1.61376         79.7574         12.4198         92.6117 
        1.61989         79.2571         12.3073         92.1883 
        1.62604           78.97         12.1959         91.5545 
        1.63218         78.5408          12.086         91.1359 
        1.63831         77.8813         11.9776         90.9572 
        1.64444          77.621         11.8706         90.4922 
        1.65059         77.0749         11.7646         89.9486 
        1.65673         76.5781         11.6601         89.6374 
        1.66285         76.3379         11.5571         89.3678 
        1.66898         75.8882         11.4553         88.9236 
        1.67512         75.4192         11.3545         88.5541 
        1.68127         75.0582         11.2549         88.1122 
         1.6874          74.688         11.1567         87.7017 
        1.69353         74.2843         11.0597         87.4729 
        1.69967         73.7834         10.9636         87.0783 
        1.70581         73.6005         10.8688         86.6201 
        1.71193         73.3198         10.7754         86.2771 
        1.71806         72.6181         10.6829         86.0711 
        1.72421         72.3602         10.5913         85.6886 
        1.73035          72.004         10.5009         85.1905 
        1.73649          71.608         10.4116         84.7804 
        1.74262         71.2775         10.3233         84.5676 
        1.74876         70.9282         10.2361         84.2164 
        1.75489         70.3654           10.15         83.7696 
        1.76101         70.1895          10.065         83.3839 
        1.76715         69.7059         9.98078         83.0505 
        1.77329         69.3979         9.89746         82.7684 
        1.77943         68.9038         9.81505         82.4435 
        1.78557         68.7291          9.7337         82.0345 
        1.79171         68.2848         9.65326         81.7073 
        1.79785         67.9917         9.57372         81.4392 
        1.80399         67.6767         9.49509         81.1145 
        1.81012         67.3926         9.41745         80.7273 
        1.81625         66.8311         9.34071         80.3563 
        1.82239         66.5792         9.26471         80.0595 
        1.82853         66.2555          9.1896         79.8044 
        1.83466         65.8936         9.11539         79.4552 
        1.84078         65.5627         9.04208         79.0983 
        1.84692         65.0885         8.96945         78.9225 
        1.85306         64.8171         8.89754         78.5814 
         1.8592         64.3526         8.82653         78.1526 
        1.86533         64.1454         8.75633         77.8613 
        1.87147         63.6975         8.68682         77.4107 
