# k  (h/Mpc)    Pcb(k)  (Mpc/h)^3    Pcb_linear(k) (Mpc/h)^3    Pcb_NL(k) (Mpc/h)^3   ShotnoiseSubtracted = false
     0.00783031           13712         13902.5         13835.5 
       0.013688         17531.8         17379.2         17264.6 
       0.019231         17854.5         17826.9         17675.4 
      0.0249154         16334.3         16678.3         16521.5 
      0.0312784         14397.1         14564.9           14409 
      0.0375637         12401.5         12413.3         12277.3 
      0.0433917         10551.5         10741.6         10599.7 
      0.0492413         9421.08         9486.29         9355.66 
      0.0555754          8303.4         8552.85         8436.53 
      0.0619321         7931.62          7916.1         7801.62 
       0.067871         7241.26         7442.78         7335.77 
      0.0738098         6774.58         6971.07          6804.3 
      0.0800417          6156.2         6411.28         6264.09 
      0.0862327         5627.33         5786.97          5715.9 
      0.0921407         5127.05         5171.28         5123.86 
      0.0982031         4531.68         4579.92         4617.62 
       0.104506         4168.16         4061.99         4166.32 
       0.110769          3786.3         3670.76         3745.03 
       0.116806          3517.9          3405.3         3472.61 
       0.122832         3341.89         3223.97         3296.29 
       0.129052          3123.3         3086.65         3148.51 
       0.135211         2995.96         2962.08         3016.21 
       0.141259         2895.35         2822.96         2902.94 
       0.147318         2748.25         2654.99         2769.78 
       0.153489         2527.14         2458.92         2550.13 
       0.159709         2378.44         2252.53         2391.06 
       0.165845         2260.41         2060.38         2263.05 
       0.171974         2109.92         1895.79         2104.51 
       0.178125         1992.56         1765.81         2011.58 
       0.184229         1897.85         1670.77         1899.09 
        0.19034          1790.8         1601.89         1820.62 
       0.196428         1763.13         1548.19          1747.7 
       0.202534          1707.2         1497.74         1701.56 
       0.208729          1635.3         1440.92         1627.76 
       0.214876         1568.27         1374.64         1596.83 
       0.220989         1516.11         1299.85         1544.86 
       0.227147         1445.22         1220.39         1484.23 
        0.23329         1383.45         1143.38         1431.18 
       0.239377         1354.97         1074.81         1364.59 
       0.245482         1266.46         1017.01         1295.41 
       0.251667         1256.73          970.24         1258.72 
       0.257832         1207.54         933.539         1213.09 
       0.263955         1169.63         903.428         1177.68 
       0.270079         1130.24         875.823         1148.31 
        0.27624         1119.26         847.326         1117.13 
       0.282372         1072.69         816.356         1096.25 
        0.28843         1061.34         783.002         1071.22 
       0.294538         1008.26         747.644         1040.91 
       0.300721         1002.54         712.055         1008.28 
        0.30691         960.087         678.545         988.355 
       0.313033         941.073         648.954         952.517 
       0.319153          921.44         623.421         923.576 
       0.325316         891.963          601.56         905.155 
        0.33145         871.092          582.67         873.081 
       0.337538         856.656         565.594         858.146 
       0.343633         835.119         548.965         850.363 
       0.349808         806.993         531.825         836.924 
       0.355968         801.712         514.032         822.826 
       0.362074         791.816         495.906         806.184 
       0.368217         768.057          477.63         783.788 
       0.374374         736.988         459.898         767.331 
       0.380519         736.518         443.353         749.152 
       0.386598         716.681         428.391         739.429 
       0.392688         714.237         414.908          719.19 
        0.39888         692.891         402.513         708.016 
       0.405048         682.348         391.125         697.324 
       0.411186         672.214          380.37         682.592 
       0.417313         658.583         369.845         672.555 
       0.423458         646.977         359.292         662.666 
       0.429607         637.257         348.721         650.559 
       0.435692         623.201         338.299         636.919 
       0.441815          618.08         328.022         632.791 
       0.447964         604.648         318.121          622.58 
       0.454126          595.85          308.74         605.079 
       0.460267         583.129         299.988         602.787 
       0.466387         576.777          291.87         591.555 
        0.47254         568.823         284.217          583.31 
       0.478662         565.687         276.971         573.454 
       0.484765         547.776         270.003         565.381 
       0.490885         543.839         263.191         556.248 
       0.497035         532.664          256.45         550.705 
       0.503198         528.015         249.786         543.742 
       0.509342         523.213         243.285         535.482 
       0.515458         518.855         237.006         531.348 
       0.521598         506.051         230.933         524.084 
       0.527764         496.826         225.092          518.36 
       0.533884         495.101          219.57         511.613 
           0.54         488.977         214.324         504.183 
       0.546137         486.121         209.288         498.152 
       0.552299         477.513         204.414         491.244 
       0.558452         474.711         199.691         486.968 
       0.564573         467.913         195.114         483.136 
       0.570708         461.732         190.641         478.129 
       0.576825         450.107         186.288         470.032 
       0.582926         450.171         182.052         465.965 
       0.589034         445.881         177.928         459.196 
       0.595184         441.875         173.909          454.01 
       0.601379         435.467          170.01          449.63 
       0.607522         429.514         166.291          443.58 
       0.613639         428.454          162.72         442.065 
       0.619772         418.549         159.256         440.461 
       0.625918         417.127         155.888         433.166 
       0.632068         410.646         152.611         429.592 
       0.638161         409.114         149.451         424.622 
         0.6443         401.871         146.352         421.186 
       0.650464         399.063         143.325         413.905 
       0.656582         396.598           140.4          411.35 
       0.662703         394.889         137.552         409.063 
       0.668861         387.894         134.766          406.25 
       0.675024         384.308         132.057         402.725 
       0.681124         381.548         129.454         396.156 
       0.687237         378.038         126.922          392.72 
       0.693381         372.764         124.452         389.302 
       0.699536         368.206         122.048         386.684 
       0.705665         366.344         119.719         382.041 
       0.711789          364.07         117.454         379.739 
       0.717957         360.952          115.23         378.194 
        0.72409         358.089         113.073         374.193 
       0.730186         353.483         110.981         370.594 
       0.736317         350.445         108.929         367.278 
       0.742472         348.593         106.921          363.89 
       0.748622         345.061         104.965         360.749 
        0.75476          341.03         103.064         361.089 
       0.760888         337.329         101.215         355.944 
       0.767043         337.973         99.4065         352.955 
       0.773185         333.505         97.6472         350.497 
       0.779291         328.865         95.9418         347.116 
       0.785407         327.739         94.2754         345.146 
       0.791564         323.621         92.6387         342.728 
       0.797719         321.191         91.0417         339.581 
       0.803834         318.282         89.4923         338.121 
       0.809972         317.296         87.9731         335.601 
       0.816124         316.722         86.4856         331.352 
       0.822261         312.112         85.0364         329.962 
       0.828378         310.119         83.6247         327.307 
       0.834502         307.552          82.244         325.664 
       0.840667         304.425         80.8856         322.658 
       0.846816         302.876         79.5619         320.747 
       0.852925         300.881         78.2765          318.71 
       0.859047         298.856         77.0172         316.322 
       0.865192         295.288         75.7817         313.598 
       0.871341         293.133         74.5728         311.898 
       0.877463         291.773         73.3961         309.964 
       0.883569         290.096         72.2479         308.643 
       0.889708         287.212         71.1186         305.502 
       0.895864         284.498         70.0108         303.785 
       0.902008         282.973         68.9291         301.594 
       0.908149         281.136          67.871         299.083 
       0.914301         277.867         66.8334         296.876 
       0.920448         276.247         65.8187         295.154 
       0.926574         273.457         64.8287         293.048 
       0.932687         273.639         63.8612          291.18 
       0.938823         270.215         62.9102         290.419 
       0.944975         269.411         61.9764         288.004 
       0.951105         267.219         61.0651         285.894 
       0.957225         265.273         60.1737         284.231 
       0.963368         261.902         59.2973         282.532 
       0.969511         260.677         58.4383         280.518 
       0.975621         258.571         57.6012         279.021 
       0.981748         258.197         56.7783         277.475 
       0.987916         256.081         55.9665         275.975 
        0.99406         252.493         55.1737          274.13 
        1.00019         252.278          54.398         271.716 
        1.00632         250.489         53.6379         270.095 
        1.01246         248.376         52.8913         267.975 
        1.01859         248.622         52.1603         266.551 
        1.02471         244.719          51.444         265.529 
        1.03085         243.034         50.7389         264.354 
        1.03698         242.226         50.0485         263.299 
        1.04314         239.704         49.3681         261.135 
        1.04929         238.227          48.702         259.127 
        1.05541         238.373         48.0509         257.691 
        1.06154         234.748         47.4102         256.361 
        1.06769         234.288         46.7803         254.871 
        1.07382         232.556         46.1639         253.367 
        1.07993         230.712         45.5601         252.131 
        1.08607         230.124         44.9646         250.219 
        1.09222         228.262         44.3793          248.94 
        1.09836         226.455          43.805         247.978 
        1.10449         224.155         43.2417         246.624 
        1.11063         222.274         42.6877         244.998 
        1.11677         221.897         42.1436         243.317 
         1.1229         220.231         41.6101         242.215 
        1.12903         218.972         41.0853         241.088 
        1.13518         217.498         40.5692         239.479 
        1.14131         215.633         40.0623         238.077 
        1.14745         215.386         39.5643         236.756 
        1.15359         213.477         39.0748         235.627 
        1.15973         211.987         38.5933         234.341 
        1.16584         210.304         38.1222         232.785 
        1.17197         210.212         37.6583         232.101 
        1.17811         207.726         37.2007         230.724 
        1.18424         206.704         36.7521          229.32 
        1.19038         206.043         36.3096         228.647 
        1.19652         204.326         35.8746         227.138 
        1.20267         203.738         35.4468         225.648 
        1.20881         201.806          35.026         224.651 
        1.21495         200.733         34.6128          223.33 
        1.22108         199.489         34.2063         221.955 
         1.2272         197.908         33.8074         220.424 
        1.23334         197.118         33.4139         219.673 
        1.23949         195.679         33.0258         218.867 
        1.24562         194.632         32.6449         217.294 
        1.25174         193.079         32.2707         216.344 
        1.25789         191.751         31.9012         215.042 
        1.26402         190.258         31.5381         214.365 
        1.27014          189.03         31.1817         213.092 
        1.27628         188.189         30.8296         212.569 
        1.28244         187.971         30.4824         211.409 
        1.28858         185.843          30.141         210.043 
        1.29471         184.392         29.8056         208.419 
        1.30084         183.724         29.4756         207.572 
        1.30697         182.274         29.1502         206.795 
        1.31312         180.866         28.8292         205.394 
        1.31925           180.3         28.5141         204.439 
        1.32537         179.374          28.204         203.535 
        1.33151         177.534         27.8974          202.49 
        1.33765         176.637         27.5956         201.484 
        1.34378          175.89         27.2989         200.681 
        1.34992          174.99         27.0063         199.266 
        1.35606         174.741         26.7174         198.131 
         1.3622         172.782         26.4333         197.474 
        1.36833         171.301          26.154         196.576 
        1.37445         170.538         25.8789         195.078 
        1.38059          169.26         25.6069         194.367 
        1.38675         168.617         25.3381         193.647 
        1.39288         167.527         25.0743         191.881 
        1.39901         167.323         24.8144          191.39 
        1.40515         165.388         24.5576          190.66 
         1.4113         164.505         24.3045         189.567 
        1.41742         163.426          24.056         188.738 
        1.42355          162.55         23.8105         187.705 
         1.4297          161.42         23.5677          186.84 
        1.43585         160.505         23.3284         186.002 
        1.44198         159.597         23.0933         185.191 
        1.44809         158.948         22.8619         184.329 
        1.45423         157.887         22.6328         182.956 
        1.46036         156.835         22.4073          182.22 
        1.46649         155.642         22.1848          181.71 
        1.47263         154.716         21.9652         180.838 
        1.47877         153.987         21.7486          179.64 
        1.48491         152.392         21.5346         178.659 
        1.49104         152.281          21.324         178.267 
        1.49718         150.686          21.116         177.239 
        1.50333         150.142         20.9105         176.317 
        1.50947         149.443         20.7081         175.708 
         1.5156         148.232         20.5087         174.784 
        1.52172          147.45          20.312         173.547 
        1.52787         146.244         20.1174         173.048 
          1.534         145.802         19.9256         172.312 
        1.54013         144.831         19.7366         171.447 
        1.54627         143.999         19.5496         170.807 
        1.55241         142.941         19.3651         170.002 
        1.55855         142.122         19.1831         168.983 
        1.56467         141.292         19.0041         168.243 
         1.5708         140.419         18.8268         167.527 
        1.57695         139.693         18.6515          166.74 
        1.58308         139.039         18.4789             166 
        1.58922         138.278         18.3083         165.192 
        1.59535         137.133           18.14         164.533 
         1.6015         136.653         17.9735         163.699 
        1.60764         135.739         17.8092         162.821 
        1.61376         134.856         17.6475         162.232 
        1.61989         134.015         17.4876         161.557 
        1.62604         133.186         17.3293         160.593 
        1.63218          132.67         17.1731          159.88 
        1.63831          131.57         17.0192          159.36 
        1.64444         131.079         16.8672          158.48 
        1.65059         130.315         16.7166         157.906 
        1.65673         129.083          16.568         157.109 
        1.66285         128.882         16.4217         156.282 
        1.66898         127.927          16.277         155.717 
        1.67512         127.578         16.1339             155 
        1.68127         126.299         15.9923         154.384 
         1.6874         125.379         15.8527         153.801 
        1.69353         125.096         15.7149         153.005 
        1.69967         124.278         15.5784         152.251 
        1.70581         123.503         15.4436          151.66 
        1.71193         122.774         15.3109          151.01 
        1.71806         122.177         15.1795         150.062 
        1.72421         121.374         15.0493         149.498 
        1.73035          121.16         14.9209         148.963 
        1.73649          120.22          14.794         148.216 
        1.74262          119.27         14.6686         147.592 
        1.74876         118.828         14.5446         146.997 
        1.75489         117.876         14.4223         146.347 
        1.76101         117.182         14.3015          145.69 
        1.76715         116.562         14.1819         145.127 
        1.77329         116.284         14.0635         144.377 
        1.77943         115.186         13.9464         143.605 
        1.78557         114.681         13.8308         143.068 
        1.79171         113.916         13.7165         142.516 
        1.79785         113.291         13.6035         141.886 
        1.80399         112.543         13.4917         141.253 
        1.81012         112.009         13.3814         140.654 
        1.81625         111.368         13.2724         140.067 
        1.82239         110.945         13.1644         139.439 
        1.82853          110.22         13.0577         138.751 
        1.83466         109.389         12.9522         138.065 
        1.84078          109.08          12.848         137.512 
        1.84692         108.081         12.7449         137.135 
        1.85306         107.814         12.6427         136.433 
         1.8592         106.991         12.5418         135.674 
        1.86533         106.126          12.442          135.34 
        1.87147         105.663         12.3432          134.93 
