# k  (h/Mpc)    P(k)  (Mpc/h)^3    P_linear(k)  (Mpc/h)^3     P_NL(k)  ShotnoiseSubtracted = false
     0.00783031         10438.5           10575         10525.9 
       0.013688         13321.5         13225.2         13145.5 
       0.019231         13589.9         13567.6         13464.6 
      0.0249154         12471.3         12694.2         12593.9 
      0.0312784         10986.6           11086         10993.7 
      0.0375637         9452.23         9448.51         9369.19 
      0.0433917         8061.76          8176.2         8094.85 
      0.0492413         7187.63         7220.74         7146.54 
      0.0555754         6356.78         6510.27         6443.34 
      0.0619321         6050.19         6025.61         5959.13 
       0.067871          5544.9         5665.35         5602.52 
      0.0738098         5186.88         5306.31         5207.77 
      0.0800417         4721.46         4880.21          4793.3 
      0.0862327         4309.01            4405         4364.29 
      0.0921407         3912.78         3936.34         3909.93 
      0.0982031         3454.96         3486.21         3511.92 
       0.104506         3163.38         3091.97         3158.06 
       0.110769         2869.63         2794.17         2840.19 
       0.116806         2658.72          2592.1         2633.74 
       0.122832         2529.01         2454.08         2499.16 
       0.129052         2369.95         2349.55         2387.54 
       0.135211         2273.97         2254.73         2289.03 
       0.141259         2194.02         2148.83         2198.33 
       0.147318         2079.98         2020.97         2094.03 
       0.153489         1913.19         1871.73         1928.21 
       0.159709         1794.14         1714.63         1800.51 
       0.165845         1695.37         1568.36         1695.72 
       0.171974         1575.13         1443.08          1572.1 
       0.178125         1485.51         1344.14         1497.21 
       0.184229         1416.25         1271.79         1414.83 
        0.19034          1330.3         1219.36         1355.59 
       0.196428         1311.48         1178.49         1299.72 
       0.202534         1273.98         1140.08         1264.25 
       0.208729         1218.35         1096.83         1210.94 
       0.214876         1162.45         1046.38         1185.32 
       0.220989         1124.01          989.45         1142.26 
       0.227147         1065.39         928.965         1091.78 
        0.23329         1017.59         870.342         1050.14 
       0.239377          991.68         818.146         1000.03 
       0.245482         924.066         774.144           947.1 
       0.251667         914.509         738.545         919.169 
       0.257832         880.214         710.611         884.918 
       0.263955         852.628         687.691         857.598 
       0.270079         823.582         666.681         835.345 
        0.27624         815.321         644.987         811.138 
       0.282372         781.679         621.412         792.698 
        0.28843         766.556         596.025         771.246 
       0.294538         728.284         569.108         749.429 
       0.300721          723.53         542.018         726.234 
        0.30691         690.226          516.51         708.482 
       0.313033         676.001         493.986         681.607 
       0.319153         657.204         474.547         660.936 
       0.325316         637.278         457.909         646.332 
        0.33145         620.238         443.531         623.079 
       0.337538         611.292         430.531         610.341 
       0.343633         593.194         417.873         604.475 
       0.349808         573.557         404.829         593.733 
       0.355968         568.962         391.282         583.061 
       0.362074         559.143         377.485         569.605 
       0.368217         543.286         363.574         552.117 
       0.374374         520.732         350.074         539.674 
       0.380519          517.64         337.482         525.917 
       0.386598         504.523         326.092         518.398 
       0.392688         501.695         315.829         503.317 
        0.39888         487.037         306.394         494.739 
       0.405048         477.539         297.725         488.036 
       0.411186          469.08         289.539         475.769 
       0.417313         460.363         281.527         466.691 
       0.423458         451.877         273.494         459.883 
       0.429607         443.382         265.449         450.913 
       0.435692         433.083         257.513         441.385 
       0.441815         429.541         249.691         437.452 
       0.447964         420.226         242.154         429.277 
       0.454126         409.373         235.014         417.425 
       0.460267         402.913          228.35         414.874 
       0.466387         398.465         222.173         406.687 
        0.47254         390.429         216.347         400.803 
       0.478662         389.283         210.831         393.243 
       0.484765         376.751         205.527         385.772 
       0.490885         372.941         200.342         380.581 
       0.497035         366.004          195.21         376.234 
       0.503198          360.23         190.138         370.744 
       0.509342         357.307         185.189         365.957 
       0.515458         353.286         180.409         362.473 
       0.521598         345.656         175.787         355.776 
       0.527764         339.631         171.341          351.36 
       0.533884         337.117         167.137         346.689 
           0.54         332.513         163.144         341.186 
       0.546137         330.873          159.31         337.233 
       0.552299         324.104           155.6          332.13 
       0.558452         321.753         152.005          328.52 
       0.564573         316.788         148.521         325.818 
       0.570708         311.256         145.117         322.497 
       0.576825         305.793         141.803         316.234 
       0.582926         303.408         138.578         312.957 
       0.589034          300.36         135.439         309.149 
       0.595184         297.296          132.38          304.27 
       0.601379         293.861         129.412         301.846 
       0.607522         288.925         126.581         297.995 
       0.613639         287.358         123.863         295.843 
       0.619772         280.793         121.226         293.783 
       0.625918         279.649         118.662         289.323 
       0.632068         275.312         116.168         285.485 
       0.638161         274.146         113.762         283.649 
         0.6443         269.522         111.404         280.713 
       0.650464         266.849           109.1         275.597 
       0.656582         265.255         106.873         273.459 
       0.662703         263.398         104.705           271.9 
       0.668861         258.646         102.585         269.109 
       0.675024         255.617         100.522          266.32 
       0.681124           254.5         98.5406         262.577 
       0.687237         251.394         96.6132         260.133 
       0.693381         247.622         94.7331         257.514 
       0.699536         245.561          92.903         255.527 
       0.705665         243.888         91.1307         253.269 
       0.711789         241.135         89.4064         251.072 
       0.717957         239.735         87.7134         249.082 
        0.72409         237.058         86.0712         247.121 
       0.730186         234.177         84.4789         244.823 
       0.736317         231.766         82.9171          242.02 
       0.742472         230.518         81.3884         239.682 
       0.748622         228.621            79.9          237.37 
        0.75476         226.617         78.4529         236.633 
       0.760888         223.598         77.0455          233.33 
       0.767043         223.457         75.6685          231.92 
       0.773185         220.637         74.3293         230.186 
       0.779291         216.722         73.0311         227.614 
       0.785407         216.244         71.7627         225.808 
       0.791564         213.944         70.5169         224.171 
       0.797719         211.472         69.3013          222.77 
       0.803834         210.206         68.1218         221.071 
       0.809972         208.667         66.9654         219.208 
       0.816124         208.539         65.8331         217.173 
       0.822261          205.53           64.73         215.636 
       0.828378         203.764         63.6554         213.582 
       0.834502         203.421         62.6043         212.156 
       0.840667         200.173         61.5703         210.492 
       0.846816         198.826         60.5628         209.188 
       0.852925         197.955         59.5843         207.564 
       0.859047         195.937         58.6257          206.12 
       0.865192          194.07         57.6853         204.366 
       0.871341         192.383         56.7651         202.767 
       0.877463         191.002         55.8693         201.669 
       0.883569          190.13         54.9953         200.628 
       0.889708         188.288         54.1357         198.649 
       0.895864         185.942         53.2924         197.559 
       0.902008         185.351          52.469         195.889 
       0.908149         184.557         51.6636         194.196 
       0.914301          182.22         50.8738         193.048 
       0.920448         180.907         50.1014         191.494 
       0.926574         179.918         49.3478         190.047 
       0.932687         179.482         48.6114         188.874 
       0.938823         177.155         47.8874         187.981 
       0.944975         175.703         47.1766         186.917 
       0.951105         174.922         46.4829         185.394 
       0.957225         173.108         45.8044         183.988 
       0.963368         171.093         45.1373         182.495 
       0.969511         170.552         44.4835         181.253 
       0.975621         169.336         43.8462         180.938 
       0.981748         169.013         43.2199         179.652 
       0.987916         166.961         42.6019         178.455 
        0.99406         165.664         41.9984         177.255 
        1.00019         165.486         41.4079         175.893 
        1.00632          163.79         40.8293         174.468 
        1.01246         162.735         40.2611         173.073 
        1.01859         161.867         39.7046         172.646 
        1.02471         160.309         39.1594         171.968 
        1.03085         158.792         38.6226         170.748 
        1.03698         158.049         38.0971         169.826 
        1.04314          156.73         37.5791         168.568 
        1.04929         155.614         37.0721         167.524 
        1.05541          155.12         36.5765         166.618 
        1.06154         153.885         36.0888         165.634 
        1.06769         153.708         35.6093         164.853 
        1.07382         152.331         35.1401         163.761 
        1.07993         150.956         34.6805         162.718 
        1.08607         150.181         34.2272         161.929 
        1.09222         149.489         33.7816         161.147 
        1.09836         148.163         33.3445         160.234 
        1.10449         146.765         32.9157         159.286 
        1.11063         145.685          32.494         158.069 
        1.11677         145.362         32.0799         157.115 
         1.1229         143.982         31.6737         156.347 
        1.12903         143.246         31.2743         155.522 
        1.13518         142.854         30.8814         154.628 
        1.14131         141.302         30.4955         153.536 
        1.14745         140.867         30.1165         152.924 
        1.15359         139.803         29.7438         151.976 
        1.15973         139.259         29.3774         151.226 
        1.16584         137.793         29.0187         149.876 
        1.17197         137.247         28.6656         149.495 
        1.17811         136.367         28.3173         148.868 
        1.18424         135.696         27.9758          147.74 
        1.19038         135.268          27.639         147.246 
        1.19652          134.17         27.3079         146.543 
        1.20267         133.355         26.9822         145.544 
        1.20881         132.177         26.6619         144.874 
        1.21495         131.695         26.3474         143.931 
        1.22108         130.939          26.038         143.478 
         1.2272           129.8         25.7343          142.24 
        1.23334         129.223         25.4348         141.957 
        1.23949         128.078         25.1393         141.105 
        1.24562         127.478         24.8494         140.012 
        1.25174         126.252         24.5645         139.525 
        1.25789         125.784         24.2833          138.77 
        1.26402         125.086         24.0069         138.018 
        1.27014         124.277         23.7356         137.764 
        1.27628          123.62         23.4676         137.303 
        1.28244          123.08         23.2033         136.092 
        1.28858         122.503         22.9434         135.314 
        1.29471         121.118         22.6881         134.725 
        1.30084         120.747         22.4369         133.946 
        1.30697         119.922         22.1892         133.418 
        1.31312         119.537         21.9449         132.518 
        1.31925         118.444          21.705         131.928 
        1.32537          117.92          21.469         131.546 
        1.33151         116.799         21.2356         130.717 
        1.33765         116.482         21.0059         130.116 
        1.34378         115.695           20.78         129.501 
        1.34992         115.471         20.5573         128.704 
        1.35606         114.644         20.3374         128.005 
         1.3622          113.65         20.1211         127.518 
        1.36833         113.125         19.9085         126.738 
        1.37445         112.392         19.6991         126.174 
        1.38059         111.931          19.492         125.513 
        1.38675         111.081         19.2875         124.847 
        1.39288         110.694         19.0867         124.047 
        1.39901         110.215         18.8888         123.768 
        1.40515          109.35         18.6933         123.379 
         1.4113         108.462         18.5007         122.784 
        1.41742         108.233         18.3115         122.231 
        1.42355          107.41         18.1246         121.657 
         1.4297          106.82         17.9398         121.014 
        1.43585         105.923         17.7576         120.203 
        1.44198         105.718         17.5787          119.77 
        1.44809         104.923         17.4025         119.269 
        1.45423         104.222         17.2282         118.591 
        1.46036         103.975         17.0565          118.05 
        1.46649         103.177         16.8872         117.684 
        1.47263         102.603           16.72         117.225 
        1.47877         102.263         16.5551         116.392 
        1.48491         101.232         16.3922         115.979 
        1.49104         101.011         16.2319         115.709 
        1.49718         100.162         16.0736         114.721 
        1.50333         99.7205         15.9171          114.18 
        1.50947          99.246         15.7631         113.789 
         1.5156         98.6327         15.6113          113.27 
        1.52172         97.9718         15.4615         112.788 
        1.52787         97.5926         15.3134         112.219 
          1.534         96.9498         15.1675         111.761 
        1.54013         96.3279         15.0235         111.294 
        1.54627         95.9588         14.8812         110.784 
        1.55241         95.2492         14.7407         110.294 
        1.55855         94.9107         14.6023         109.756 
        1.56467         94.4495          14.466         109.224 
         1.5708         93.7447          14.331          108.82 
        1.57695         93.5461         14.1976         108.362 
        1.58308         92.6127         14.0662         107.776 
        1.58922         92.4526         13.9364         107.277 
        1.59535         91.8764         13.8082         106.862 
         1.6015         91.3129         13.6815         106.326 
        1.60764         90.8064         13.5565         105.847 
        1.61376         90.5637         13.4333         105.614 
        1.61989         89.8409         13.3116         105.203 
        1.62604         89.5345         13.1911          104.45 
        1.63218         89.0159         13.0722         103.953 
        1.63831         88.2398         12.9551         103.733 
        1.64444         87.9792         12.8393         103.134 
        1.65059         87.4078         12.7247          102.66 
        1.65673         86.6419         12.6116          102.25 
        1.66285           86.53         12.5002         101.859 
        1.66898         85.9658         12.3901         101.465 
        1.67512         85.4652         12.2811         100.998 
        1.68127         85.0193         12.1734         100.487 
         1.6874         84.5272         12.0671         100.064 
        1.69353         84.0498         11.9622         99.7587 
        1.69967         83.5638         11.8583         99.2618 
        1.70581         83.2571         11.7557         98.7719 
        1.71193         82.9428         11.6547          98.401 
        1.71806         82.2437         11.5547         98.0428 
        1.72421          81.822         11.4556         97.6131 
        1.73035         81.4246         11.3578         97.1014 
        1.73649         80.9764         11.2612         96.6268 
        1.74262         80.5067         11.1658         96.3491 
        1.74876         80.1801         11.0714         95.9402 
        1.75489         79.4932         10.9783         95.4278 
        1.76101         79.2886         10.8863         94.9845 
        1.76715         78.7233         10.7953         94.6431 
        1.77329         78.4084         10.7052         94.2732 
        1.77943         77.8236          10.616         93.8629 
        1.78557         77.6342          10.528         93.4788 
        1.79171         77.0519          10.441         93.1283 
        1.79785         76.7187          10.355         92.7803 
        1.80399         76.3646           10.27          92.384 
        1.81012         76.0432          10.186         91.9023 
        1.81625         75.4636          10.103          91.495 
        1.82239         75.1814         10.0208         91.1892 
        1.82853         74.8603         9.93953         90.8301 
        1.83466         74.3247         9.85927         90.4151 
        1.84078          74.101         9.77997         90.0526 
        1.84692         73.4803         9.70142          89.825 
        1.85306         73.0849         9.62364         89.4106 
         1.8592         72.6875         9.54683         88.9416 
        1.86533         72.3564         9.47091         88.6295 
        1.87147         71.8075         9.39572          88.111 
        1.87761         71.5697         9.32132         87.7145 
