# k  (h/Mpc)    Pcb(k)  (Mpc/h)^3    Pcb_linear(k) (Mpc/h)^3    Pcb_NL(k) (Mpc/h)^3   ShotnoiseSubtracted = false
     0.00783031         3998.56         4042.56         4024.94 
       0.013688         5074.53         5060.25         5035.45 
       0.019231         5198.94         5192.67         5162.77 
      0.0249154         4809.05         4859.06         4835.81 
      0.0312784          4228.5         4243.81         4229.55 
      0.0375637         3626.34         3617.16         3606.38 
      0.0433917         3112.44         3130.18         3120.82 
      0.0492413         2764.24         2764.45         2756.55 
      0.0555754         2465.86         2492.49         2484.44 
      0.0619321         2322.09         2306.96         2298.44 
       0.067871         2150.15         2169.05         2160.09 
      0.0738098         2011.19          2031.6         2017.02 
      0.0800417         1838.89         1868.47         1855.83 
      0.0862327         1670.98         1686.54         1681.45 
      0.0921407          1505.2         1507.11         1504.77 
      0.0982031         1328.16         1334.77         1341.02 
       0.104506         1200.28         1183.83         1196.55 
       0.110769          1085.9         1069.82         1078.72 
       0.116806          1001.6         992.451         1000.38 
       0.122832          954.13         939.605         948.137 
       0.129052         901.715         899.586         906.598 
       0.135211         864.685         863.284         870.059 
       0.141259         830.656         822.739         831.689 
       0.147318         785.744         773.785         787.561 
       0.153489         724.084         716.643         727.003 
       0.159709         670.913         656.493         671.808 
       0.165845         625.442         600.492         623.438 
       0.171974         574.152         552.524         574.814 
       0.178125         539.388         514.642         541.195 
       0.184229         513.551         486.942         512.364 
        0.19034         482.721         466.867         490.671 
       0.196428         473.924         451.218         471.163 
       0.202534         462.571         436.514         457.039 
       0.208729         441.671         419.952         439.475 
       0.214876         418.553         400.636         425.363 
       0.220989         403.277          378.84           405.7 
       0.227147         377.036         355.682          383.42 
        0.23329         357.152         333.237         364.628 
       0.239377          342.46         313.252         345.661 
       0.245482         319.502         296.405         326.315 
       0.251667         312.329         282.776         314.489 
       0.257832         301.516         272.079         302.516 
       0.263955          291.32         263.304         292.468 
       0.270079          282.02         255.258         283.887 
        0.27624         277.087         246.953          274.54 
       0.282372         266.629         237.926          266.64 
        0.28843         256.255         228.205         257.394 
       0.294538         244.969         217.901         248.419 
       0.300721         239.655         207.528         239.682 
        0.30691         227.679         197.762         230.699 
       0.313033         220.597         189.137         221.117 
       0.319153         210.584         181.696         214.054 
       0.325316         206.183         175.325         208.169 
        0.33145         199.082         169.819         200.924 
       0.337538         195.619         164.842         195.269 
       0.343633         189.331         159.996         191.382 
       0.349808         183.767             155         187.015 
       0.355968         179.708         149.815         182.919 
       0.362074         174.276         144.532         177.364 
       0.368217         169.113         139.205         170.955 
       0.374374          163.77         134.037         166.359 
       0.380519         159.818         129.215         161.158 
       0.386598         155.394         124.855         156.992 
       0.392688         152.552         120.925         153.068 
        0.39888         148.447         117.312         148.719 
       0.405048         145.027         113.993         145.766 
       0.411186         141.755         110.859         142.793 
       0.417313         138.116         107.791         138.647 
       0.423458         134.959         104.716         135.863 
       0.429607         131.473         101.635         132.785 
       0.435692          127.32         98.5973         129.811 
       0.441815         126.007         95.6021         127.725 
       0.447964         123.684         92.7164         124.271 
       0.454126         118.243         89.9823         120.743 
       0.460267         116.684         87.4317         118.959 
       0.466387         114.431         85.0657         116.033 
        0.47254         112.334         82.8353         113.913 
       0.478662         110.752         80.7233         111.594 
       0.484765         107.679         78.6926         108.773 
       0.490885         105.674          76.707         107.332 
       0.497035         104.165         74.7425         105.668 
       0.503198         101.321         72.8004          103.35 
       0.509342         99.1147         70.9054         101.637 
       0.515458         97.5471         69.0755          100.36 
       0.521598          96.126         67.3057         97.6176 
       0.527764         94.4784         65.6033         95.2801 
       0.533884         92.8218         63.9937         93.8113 
           0.54         90.9974         62.4648          92.277 
       0.546137         89.9515          60.997         91.0702 
       0.552299         88.5648         59.5765         88.9617 
       0.558452         86.2876            58.2         87.3214 
       0.564573         84.7158         56.8662          86.352 
       0.570708         83.6966         55.5626         84.9167 
       0.576825         82.1754         54.2938          83.397 
       0.582926         80.5696         53.0592         82.0077 
       0.589034         78.8573         51.8571         81.0676 
       0.595184         77.8769          50.686         79.5877 
       0.601379          76.886         49.5496         78.6038 
       0.607522         74.9666         48.4656         76.8138 
       0.613639         74.7408         47.4248         75.9246 
       0.619772         72.9407         46.4152         74.6184 
       0.625918         72.3013         45.4336         73.9031 
       0.632068         71.3372         44.4785         72.5249 
       0.638161         70.2485         43.5575         71.6944 
         0.6443         69.1933         42.6545         70.4226 
       0.650464         68.1316         41.7722         69.2143 
       0.656582         67.4099         40.9197         68.6061 
       0.662703         66.0449         40.0897         67.3547 
       0.668861         65.2624         39.2778         66.6393 
       0.675024         64.3393         38.4881          65.545 
       0.681124         63.3474         37.7294         64.6366 
       0.687237         62.2291         36.9915          63.756 
       0.693381         61.6895         36.2716         62.8089 
       0.699536         60.5941         35.5709         62.4077 
       0.705665         60.7946         34.8923         61.6486 
       0.711789         59.1058         34.2321         60.3467 
       0.717957         58.5934         33.5838         59.9178 
        0.72409          57.779         32.9551         59.3779 
       0.730186         56.8377         32.3454         58.5298 
       0.736317         56.5755         31.7474         57.6573 
       0.742472         55.6564         31.1622         57.0134 
       0.748622         55.1541         30.5923         56.2419 
        0.75476          54.435         30.0382         55.6172 
       0.760888         53.6042         29.4993         54.9293 
       0.767043         53.0255         28.9721         54.5397 
       0.773185          52.306         28.4594         53.9424 
       0.779291         52.0293         27.9623         53.3303 
       0.785407         51.5273         27.4767         52.5391 
       0.791564         50.6449         26.9996         51.9472 
       0.797719         49.8058         26.5342         51.5642 
       0.803834           49.66         26.0826          50.835 
       0.809972         48.8462         25.6398         50.3132 
       0.816124         48.1463         25.2063         49.8536 
       0.822261         47.8487         24.7839         49.1659 
       0.828378         47.4597         24.3725         48.5017 
       0.834502         46.8859         23.9701         48.3257 
       0.840667         46.4263         23.5742         47.7661 
       0.846816         45.7441         23.1884         47.2723 
       0.852925         45.3539         22.8138         46.9176 
       0.859047         44.7408         22.4467         46.2567 
       0.865192         44.4087         22.0867         45.8401 
       0.871341         44.1811         21.7343         45.4225 
       0.877463         43.2956         21.3913         44.9875 
       0.883569         42.9532         21.0567         44.6645 
       0.889708         42.6471         20.7276         44.1195 
       0.895864         42.2205         20.4047         43.6718 
       0.902008         41.8596         20.0894         43.2824 
       0.908149         41.4634          19.781         42.9782 
       0.914301         41.2142         19.4787         42.6579 
       0.920448         40.5774         19.1829         42.1323 
       0.926574         40.2792         18.8944         41.6698 
       0.932687         39.8724         18.6124         41.3905 
       0.938823         39.3161         18.3352         40.9104 
       0.944975         39.1639         18.0631         40.5299 
       0.951105         38.7611         17.7975         40.2962 
       0.957225         38.2924         17.5377          39.896 
       0.963368         38.1699         17.2822         39.4813 
       0.969511         37.8178         17.0319         39.1305 
       0.975621         37.4958         16.7879         38.9374 
       0.981748         37.0035         16.5481         38.5803 
       0.987916         36.7738         16.3115          38.239 
        0.99406         36.4962         16.0804         37.9279 
        1.00019         36.0158         15.8543         37.5901 
        1.00632         35.8497         15.6328         37.3072 
        1.01246         35.5807         15.4152         37.0005 
        1.01859         35.0868         15.2022         36.7386 
        1.02471         35.0591         14.9934         36.4423 
        1.03085         34.7053         14.7879         36.1089 
        1.03698         34.2199         14.5867         35.8039 
        1.04314         33.9493         14.3884         35.4438 
        1.04929         33.7295         14.1942         35.2898 
        1.05541         33.3628         14.0045         35.1443 
        1.06154          33.245         13.8178         34.7105 
        1.06769         32.9457         13.6342          34.434 
        1.07382         32.6964         13.4545         34.2382 
        1.07993         32.5538         13.2785         33.9022 
        1.08607         32.1006          13.105          33.678 
        1.09222         31.9888         12.9344         33.5087 
        1.09836         31.6476          12.767         33.2406 
        1.10449         31.4584         12.6028         32.9231 
        1.11063         31.0269         12.4414          32.722 
        1.11677         30.9128         12.2828         32.4688 
         1.1229         30.8028         12.1273         32.2344 
        1.12903         30.3603         11.9743          32.009 
        1.13518         30.2075         11.8239         31.7261 
        1.14131         30.1203         11.6762         31.5506 
        1.14745         29.7908         11.5311         31.3532 
        1.15359         29.6833         11.3884         31.1357 
        1.15973         29.3343         11.2481         30.9488 
        1.16584          29.049         11.1108         30.7057 
        1.17197         29.0767         10.9755         30.5174 
        1.17811         28.6756         10.8422         30.1838 
        1.18424         28.4276         10.7114         30.0408 
        1.19038         28.3873         10.5825         29.9539 
        1.19652         28.2033         10.4557         29.6474 
        1.20267         27.9763          10.331         29.5065 
        1.20881         27.7494         10.2084         29.3022 
        1.21495         27.5459         10.0879         29.1792 
        1.22108         27.3625         9.96947         28.9113 
         1.2272         27.0442         9.85319         28.7739 
        1.23334         26.9649         9.73852         28.5907 
        1.23949         26.7823          9.6254         28.3336 
        1.24562         26.6385          9.5144         28.1974 
        1.25174         26.5003         9.40532         28.0327 
        1.25789         26.2889         9.29763         27.8405 
        1.26402         26.1679         9.19182         27.6468 
        1.27014         25.8672         9.08793         27.5088 
        1.27628         25.7142         8.98533         27.3009 
        1.28244         25.5863         8.88412         27.2314 
        1.28858         25.4832         8.78462         27.0066 
        1.29471         25.2948         8.68687         26.8449 
        1.30084         25.1103          8.5907         26.7093 
        1.30697         24.9122         8.49585         26.4992 
        1.31312         24.7026         8.40229         26.3659 
        1.31925         24.5835         8.31045         26.2252 
        1.32537         24.5039         8.22008         26.0916 
        1.33151         24.2791         8.13073         25.9457 
        1.33765         24.2141         8.04277         25.7929 
        1.34378         24.0823         7.95629         25.6405 
        1.34992          23.754         7.87102         25.5191 
        1.35606         23.6946         7.78683         25.3686 
         1.3622         23.5514         7.70402         25.2352 
        1.36833         23.3838         7.62261         25.1053 
        1.37445         23.3621         7.54243         24.9073 
        1.38059         23.1798         7.46315         24.7845 
        1.38675         22.9336         7.38483         24.6818 
        1.39288         22.8837         7.30795         24.5305 
        1.39901          22.693         7.23219         24.4065 
        1.40515         22.5995         7.15735         24.2546 
         1.4113         22.4478         7.08359          24.114 
        1.41742         22.2346         7.01115         24.0181 
        1.42355         22.2025          6.9396         23.8556 
         1.4297         22.0573         6.86883          23.713 
        1.43585         21.9961         6.79908         23.6384 
        1.44198         21.7599         6.73056         23.4996 
        1.44809         21.6822         6.66312         23.3943 
        1.45423          21.573         6.59636         23.2186 
        1.46036         21.4879         6.53064          23.097 
        1.46649         21.3314         6.46579         23.0133 
        1.47263         21.1811         6.40178         22.9256 
        1.47877         21.0873         6.33866         22.8254 
        1.48491          20.965         6.27629         22.6457 
        1.49104         20.9175          6.2149         22.5421 
        1.49718         20.7134         6.15428         22.4486 
        1.50333         20.6455         6.09438         22.3509 
        1.50947         20.5602          6.0354         22.2579 
         1.5156          20.376         5.97729         22.1379 
        1.52172         20.2255         5.91995         21.9906 
        1.52787         20.2268         5.86324           21.88 
          1.534         20.0552         5.80735         21.7866 
        1.54013         19.8904         5.75224         21.6597 
        1.54627         19.8438         5.69776         21.5387 
        1.55241         19.7134         5.64397         21.4492 
        1.55855         19.6063         5.59095         21.3666 
        1.56467         19.5182         5.53876         21.2725 
         1.5708         19.4501         5.48709         21.1681 
        1.57695         19.2526         5.43601          21.051 
        1.58308         19.2727          5.3857         20.9555 
        1.58922         19.1287         5.33598         20.8901 
        1.59535         19.0112         5.28692         20.7924 
         1.6015         18.9084         5.23841         20.6793 
        1.60764         18.8515         5.19053          20.563 
        1.61376         18.7286         5.14338         20.4593 
        1.61989         18.5652         5.09678         20.3974 
        1.62604         18.5536         5.05066         20.3435 
        1.63218          18.415         5.00513         20.2562 
        1.63831         18.3746         4.96028         20.1513 
        1.64444         18.2137         4.91595          20.066 
        1.65059          18.131         4.87207         19.9533 
        1.65673         18.0773         4.82876         19.8632 
        1.66285         17.9445         4.78611         19.7885 
        1.66898         17.8994         4.74396         19.6919 
        1.67512         17.8262         4.70223         19.5833 
        1.68127         17.6894         4.66097         19.5147 
         1.6874         17.5983          4.6203         19.4323 
        1.69353           17.55         4.58013         19.2864 
        1.69967         17.4095         4.54035          19.232 
        1.70581         17.3318         4.50106         19.1875 
        1.71193          17.242         4.46238         19.1049 
        1.71806         17.1782         4.42408         19.0237 
        1.72421         17.0884         4.38615         18.9448 
        1.73035         17.0232         4.34871         18.8682 
        1.73649         16.9152         4.31172          18.783 
        1.74262         16.8823         4.27518          18.675 
        1.74876         16.7773         4.23905         18.5966 
        1.75489         16.7001         4.20341         18.5349 
        1.76101         16.6099         4.16819           18.46 
        1.76715         16.5745         4.13332         18.3743 
        1.77329         16.4729         4.09881         18.2801 
        1.77943         16.3792         4.06469          18.206 
        1.78557         16.3127           4.031         18.1599 
        1.79171         16.2638         3.99769         18.0833 
        1.79785         16.1331         3.96475         18.0013 
        1.80399         16.0677         3.93218         17.9507 
        1.81012         16.0328         3.90003         17.8617 
        1.81625         15.9324         3.86825         17.7873 
        1.82239         15.8978         3.83678         17.7434 
        1.82853          15.755         3.80567         17.6629 
        1.83466         15.6861         3.77494         17.5834 
        1.84078          15.577         3.74458         17.5192 
        1.84692         15.5719          3.7145         17.4469 
        1.85306         15.4726         3.68472         17.3722 
         1.8592         15.4205         3.65531         17.3054 
        1.86533         15.3545         3.62624         17.2421 
        1.87147         15.2745         3.59746           17.17 
