# k  (h/Mpc)    P(k)  (Mpc/h)^3    P_linear(k)  (Mpc/h)^3     P_NL(k)  ShotnoiseSubtracted = false
     0.00783031         14475.6         14679.8         14608.2 
       0.013688         18516.5         18348.6         18224.6 
       0.019231         18848.9         18820.5         18655.9 
      0.0249154         17230.1         17607.7         17434.9 
      0.0312784         15188.4         15376.3         15201.9 
      0.0375637         13087.3         13104.8         12952.1 
      0.0433917         11128.1           11340         11180.1 
      0.0492413         9939.58         10014.7         9867.33 
      0.0555754         8752.52         9029.23         8898.39 
      0.0619321         8368.16         8357.01         8228.49 
       0.067871         7632.29         7857.31         7737.42 
      0.0738098         7140.74         7359.33          7172.7 
      0.0800417         6486.13         6768.35         6603.69 
      0.0862327         5931.33         6109.27         6029.28 
      0.0921407         5408.73         5459.28         5405.74 
      0.0982031         4782.21         4834.99         4875.87 
       0.104506         4403.53         4288.21         4403.24 
       0.110769         4001.68          3875.2         3957.72 
       0.116806         3720.97         3594.95         3669.78 
       0.122832         3533.52         3403.52          3483.7 
       0.129052         3300.32         3258.55         3327.45 
       0.135211         3165.28         3127.05         3186.89 
       0.141259          3060.3         2980.17         3069.01 
       0.147318         2905.89         2802.85          2929.3 
       0.153489         2672.08         2595.86         2697.15 
       0.159709         2516.87         2377.98         2531.56 
       0.165845         2395.64         2175.13         2398.87 
       0.171974          2238.6         2001.37         2232.71 
       0.178125         2114.96         1864.16         2135.92 
       0.184229         2013.59         1763.82         2016.04 
        0.19034         1903.03          1691.1         1933.07 
       0.196428          1872.6         1634.41         1856.46 
       0.202534         1811.55         1581.15         1807.84 
       0.208729         1736.19         1521.16         1729.09 
       0.214876         1667.37         1451.19         1696.82 
       0.220989         1611.71         1372.24         1643.25 
       0.227147         1538.55         1288.36         1580.86 
        0.23329         1473.54         1207.06         1525.06 
       0.239377         1444.91         1134.67         1454.59 
       0.245482         1351.82         1073.64         1381.74 
       0.251667         1342.13         1024.27         1342.86 
       0.257832         1289.27         985.528         1294.66 
       0.263955         1248.63         953.741         1257.52 
       0.270079          1206.9         924.602         1226.42 
        0.27624         1194.94         894.515         1193.62 
       0.282372         1145.34         861.819         1172.75 
        0.28843          1135.6          826.61         1147.26 
       0.294538         1079.19         789.281         1114.67 
       0.300721          1072.8         751.709         1079.66 
        0.30691         1028.68         716.334         1059.43 
       0.313033         1008.27         685.096         1021.47 
       0.319153         988.943         658.136         990.387 
       0.325316         957.025         635.061         971.251 
        0.33145         935.373         615.121         937.057 
       0.337538          919.21         597.091         921.726 
       0.343633         897.367         579.536         913.307 
       0.349808          867.32         561.446         899.401 
       0.355968         861.539         542.658          884.38 
       0.362074         851.823         523.523          867.15 
       0.368217          825.82          504.23         843.862 
       0.374374         793.291         485.507         826.361 
       0.380519         793.567         468.044         807.259 
       0.386598         771.797         452.248         796.681 
       0.392688         769.233         438.014         775.705 
        0.39888         746.364         424.929          763.56 
       0.405048         735.891         412.907         751.676 
       0.411186         725.269         401.554         736.801 
       0.417313         710.337         390.441         726.721 
       0.423458         697.883           379.3          715.66 
       0.429607         688.062         368.143         703.108 
       0.435692          673.17         357.138          688.31 
       0.441815         667.558          346.29         684.354 
       0.447964         653.174         335.837         673.851 
       0.454126         645.258         325.934         654.694 
       0.460267         630.574         316.692         652.523 
       0.466387         623.613         308.126         640.532 
        0.47254         616.516         300.045         631.562 
       0.478662         612.189         292.396         621.362 
       0.484765         593.251          285.04         613.346 
       0.490885         589.306         277.848         603.025 
       0.497035         577.018         270.732         597.252 
       0.503198         572.698         263.697         590.031 
       0.509342         567.224         256.833         580.618 
       0.515458         562.949         250.205         576.338 
       0.521598         548.865         243.794         569.184 
       0.527764         538.932         237.628         563.123 
       0.533884         537.248         231.798         555.893 
           0.54         530.983          226.26         548.162 
       0.546137         527.438         220.943         541.642 
       0.552299          518.75         215.798          534.13 
       0.558452         515.479         210.811          529.71 
       0.564573         508.341          205.98         525.475 
       0.570708          502.14         201.258         519.782 
       0.576825         488.913         196.663         511.491 
       0.582926         489.854          192.19         507.361 
       0.589034         485.031         187.837         499.811 
       0.595184         480.757         183.594         494.484 
       0.601379         473.612         179.478         489.742 
       0.607522         467.271         175.552         482.931 
       0.613639         466.535         171.782         481.597 
       0.619772          455.98         168.125         479.971 
       0.625918         454.151         164.569          472.25 
       0.632068         447.319         161.109          468.88 
       0.638161         445.663         157.774         462.793 
         0.6443         437.785         154.503         459.193 
       0.650464         435.154         151.307         451.587 
       0.656582          432.16         148.219         449.022 
       0.662703         430.415         145.213         446.248 
       0.668861         422.922         142.272          443.58 
       0.675024         419.245         139.411         439.958 
       0.681124         416.146         136.663         432.805 
       0.687237         412.464          133.99         428.996 
       0.693381         406.794         131.383         425.271 
       0.699536         401.337         128.844         422.427 
       0.705665         399.899         126.387         417.269 
       0.711789         397.564         123.995          414.67 
       0.717957         393.972         121.647         413.426 
        0.72409         391.269          119.37         408.879 
       0.730186         385.877         117.161         404.899 
       0.736317         382.927         114.995         401.561 
       0.742472         380.877         112.875         398.066 
       0.748622         376.878         110.811         394.541 
        0.75476         372.054         108.804         395.111 
       0.760888          368.21         106.852         389.554 
       0.767043         368.942         104.942         385.855 
       0.773185         364.357         103.085         383.374 
       0.779291         359.676         101.285         379.836 
       0.785407         358.117         99.5257         377.701 
       0.791564         353.641         97.7978          375.37 
       0.797719         351.322         96.1119         371.727 
       0.803834         347.836         94.4762         370.093 
       0.809972         346.992         92.8724           367.5 
       0.816124         346.157          91.302         362.753 
       0.822261         341.168         89.7721         361.308 
       0.828378         339.215         88.2818         358.466 
       0.834502         335.836         86.8241         356.921 
       0.840667         332.873         85.3901         353.622 
       0.846816         331.298         83.9927         351.343 
       0.852925         328.971         82.6358         349.254 
       0.859047          326.99         81.3063         346.413 
       0.865192         323.016          80.002         343.545 
       0.871341         320.582         78.7258          341.81 
       0.877463         319.554         77.4835         339.678 
       0.883569         317.276         76.2714          338.27 
       0.889708         314.351         75.0793         334.818 
       0.895864         311.946         73.9097         333.023 
       0.902008         309.828         72.7677           330.6 
       0.908149         307.339         71.6507         327.848 
       0.914301         304.302         70.5554         325.335 
       0.920448         302.534         69.4842         323.827 
       0.926574         298.998          68.439         321.418 
       0.932687         299.205         67.4177           319.3 
       0.938823         295.593         66.4137         318.614 
       0.944975         295.164         65.4279         315.804 
       0.951105         292.307         64.4658         313.506 
       0.957225         290.316         63.5248          311.85 
       0.963368         286.745         62.5995          310.03 
       0.969511         285.507         61.6928         307.957 
       0.975621         283.367          60.809         306.054 
       0.981748         282.563         59.9403         304.363 
       0.987916          280.59         59.0833          302.86 
        0.99406         276.324         58.2464         300.812 
        1.00019         275.812         57.4274         298.099 
        1.00632         274.196          56.625          296.36 
        1.01246         271.838         55.8369         294.111 
        1.01859         272.239         55.0651          292.45 
        1.02471         267.835          54.309         291.318 
        1.03085          266.24         53.5645         290.116 
        1.03698         265.383         52.8357         288.935 
        1.04314         262.591         52.1174         286.672 
        1.04929         260.819         51.4142         284.357 
        1.05541         261.129         50.7269         282.755 
        1.06154         256.808         50.0505         281.374 
        1.06769         256.313         49.3855         279.598 
        1.07382         254.455         48.7348         278.045 
        1.07993         252.615         48.0973           276.7 
        1.08607         251.925         47.4687         274.538 
        1.09222         249.633         46.8507          273.16 
        1.09836         247.794         46.2445         272.136 
        1.10449         245.407         45.6498         270.599 
        1.11063          243.28          45.065         268.682 
        1.11677         242.895         44.4906         267.059 
         1.1229         241.077         43.9273         265.736 
        1.12903         239.639         43.3733         264.487 
        1.13518         237.911         42.8285         262.714 
        1.14131         236.056         42.2933         261.227 
        1.14745          235.59         41.7677         259.639 
        1.15359         233.578         41.2509         258.618 
        1.15973         231.849         40.7426          257.15 
        1.16584         230.171         40.2452         255.733 
        1.17197         230.172         39.7555         254.743 
        1.17811         227.203         39.2724         253.133 
        1.18424         226.014         38.7988         251.748 
        1.19038         225.274         38.3317         250.975 
        1.19652          223.33         37.8725          249.17 
        1.20267         222.768         37.4208         247.722 
        1.20881         220.775         36.9766         246.531 
        1.21495         219.417         36.5404         245.043 
        1.22108         218.085         36.1113         243.519 
         1.2272           216.5         35.6901         242.071 
        1.23334         215.485         35.2747         241.042 
        1.23949         213.909          34.865          240.07 
        1.24562          212.87         34.4629         238.479 
        1.25174         211.316         34.0678         237.365 
        1.25789         209.758         33.6777         235.965 
        1.26402         207.966         33.2945         235.313 
        1.27014         206.757         32.9182         233.712 
        1.27628         205.722         32.5465         233.191 
        1.28244         205.479           32.18         232.041 
        1.28858         203.169         31.8195          230.53 
        1.29471         201.713         31.4655         228.687 
        1.30084         200.779         31.1171         227.741 
        1.30697         199.318         30.7735         226.903 
        1.31312         197.557         30.4347         225.456 
        1.31925         197.045          30.102         224.405 
        1.32537         196.141         29.7747         223.179 
        1.33151         194.133          29.451         222.125 
        1.33765         192.972         29.1324         221.137 
        1.34378         192.265         28.8192         220.115 
        1.34992         191.197         28.5103         218.662 
        1.35606         191.024         28.2053         217.382 
         1.3622         188.866         27.9054         216.687 
        1.36833         187.201         27.6105         215.785 
        1.37445          186.47         27.3201          213.99 
        1.38059         184.895         27.0329         213.351 
        1.38675         184.217         26.7492          212.59 
        1.39288         183.027         26.4707         210.725 
        1.39901         182.643         26.1963         209.971 
        1.40515         180.668         25.9252          209.02 
         1.4113         179.776         25.6581         207.852 
        1.41742         178.475         25.3957         207.006 
        1.42355           177.6         25.1365         205.795 
         1.4297         176.155         24.8802         204.805 
        1.43585         175.314         24.6275         204.155 
        1.44198         174.303         24.3793         203.083 
        1.44809         173.562         24.1351         202.195 
        1.45423         172.449         23.8933         200.621 
        1.46036         171.308         23.6552         199.859 
        1.46649         169.951         23.4203         199.255 
        1.47263         168.933         23.1884         198.139 
        1.47877         168.012         22.9598         196.887 
        1.48491         166.398         22.7339         195.793 
        1.49104         166.146         22.5115         195.277 
        1.49718         164.469          22.292         194.408 
        1.50333         163.854          22.075         193.372 
        1.50947         162.991         21.8613         192.597 
         1.5156         161.652         21.6509         191.594 
        1.52172         160.954         21.4431         190.258 
        1.52787         159.483         21.2377         189.694 
          1.534         159.118         21.0353         188.865 
        1.54013         157.992         20.8357         187.906 
        1.54627         156.974         20.6383         187.203 
        1.55241         155.894         20.4435         186.339 
        1.55855         155.032         20.2515         185.245 
        1.56467         153.908         20.0624         184.358 
         1.5708         153.168         19.8753         183.536 
        1.57695          152.34         19.6902         182.681 
        1.58308         151.564          19.508         181.824 
        1.58922         150.595         19.3279         180.924 
        1.59535         149.375         19.1502         180.247 
         1.6015         148.879         18.9745         179.411 
        1.60764         147.843          18.801          178.44 
        1.61376         146.865         18.6303         177.679 
        1.61989         146.031         18.4615         176.889 
        1.62604         145.043         18.2944         175.876 
        1.63218          144.42         18.1295         175.102 
        1.63831         143.269          17.967         174.527 
        1.64444         142.688         17.8065         173.629 
        1.65059         141.733         17.6475         172.916 
        1.65673         140.567         17.4907         172.059 
        1.66285         140.207         17.3362         171.172 
        1.66898         139.087         17.1835         170.469 
        1.67512         138.832         17.0324         169.724 
        1.68127         137.352         16.8829         169.005 
         1.6874         136.474         16.7356         168.286 
        1.69353         136.008         16.5901         167.478 
        1.69967         135.004          16.446         166.683 
        1.70581         134.315         16.3037         166.032 
        1.71193         133.402         16.1636         165.315 
        1.71806         132.805         16.0248         164.277 
        1.72421         131.957         15.8874         163.627 
        1.73035         131.636         15.7518         163.018 
        1.73649         130.674         15.6178         162.206 
        1.74262         129.625         15.4855         161.516 
        1.74876         128.981         15.3546         160.839 
        1.75489         128.093         15.2255         160.133 
        1.76101         127.219         15.0979         159.458 
        1.76715         126.725         14.9717         158.849 
        1.77329         126.258         14.8467         158.059 
        1.77943         125.175          14.723         157.221 
        1.78557         124.635          14.601         156.565 
        1.79171         123.814         14.4804         155.935 
        1.79785         123.047          14.361         155.241 
        1.80399         122.272         14.2431         154.528 
        1.81012         121.638         14.1266         153.974 
        1.81625         121.007         14.0115         153.325 
        1.82239         120.368         13.8975         152.514 
        1.82853         119.668         13.7848         151.795 
        1.83466         118.768         13.6735         151.058 
        1.84078         118.392         13.5636         150.409 
        1.84692         117.249         13.4546         150.025 
        1.85306         117.052         13.3467          149.23 
         1.8592         116.149         13.2402         148.364 
        1.86533          115.26         13.1349          148.06 
        1.87147         114.616         13.0306         147.648 
        1.87761         114.018         12.9275         146.899 
