# k  (h/Mpc)    P(k)  (Mpc/h)^3    P_linear(k)  (Mpc/h)^3     P_NL(k)  ShotnoiseSubtracted = false
     0.00783031          7007.1          7091.7            7060 
       0.013688         8919.68         8873.08            8825 
       0.019231         9118.35         9104.01         9043.81 
      0.0249154         8399.86         8518.52         8465.34 
      0.0312784         7393.97         7439.61         7397.25 
      0.0375637         6351.66          6340.9         6305.77 
      0.0433917         5433.74         5487.13         5452.65 
      0.0492413         4835.69         4845.96         4815.15 
      0.0555754         4294.78         4369.19         4340.55 
      0.0619321         4067.77         4043.95            4015 
       0.067871         3746.33         3802.18         3774.07 
      0.0738098         3504.19         3561.23         3516.56 
      0.0800417         3196.63         3275.27         3236.07 
      0.0862327          2911.4         2956.35            2939 
      0.0921407         2633.14         2641.82         2631.49 
      0.0982031         2323.43         2339.73         2354.27 
       0.104506         2114.46         2075.14          2108.7 
       0.110769         1915.36         1875.28         1898.44 
       0.116806         1769.66         1739.66         1760.55 
       0.122832          1685.3         1647.03         1669.74 
       0.129052         1585.39         1576.88         1595.77 
       0.135211         1520.97         1513.24         1530.98 
       0.141259          1464.6         1442.17          1466.7 
       0.147318         1386.86         1356.36         1393.53 
       0.153489         1276.52          1256.2         1284.28 
       0.159709         1190.59         1150.76         1193.08 
       0.165845         1117.54          1052.6         1115.96 
       0.171974         1031.96         968.512         1031.37 
       0.178125          971.69          902.11          977.06 
       0.184229         926.271         853.554         924.386 
        0.19034         868.478         818.365         885.238 
       0.196428         855.693         790.933          848.63 
       0.202534         833.822         765.158         824.474 
       0.208729         796.394         736.129          791.28 
       0.214876         756.396         702.269         771.055 
       0.220989         730.678         664.063         739.312 
       0.227147         687.712         623.469         702.427 
        0.23329         654.595         584.125         672.502 
       0.239377         633.388         549.094         639.296 
       0.245482         589.327         519.562         604.077 
       0.251667         580.393          495.67         584.692 
       0.257832         560.023         476.922         562.533 
       0.263955         541.808          461.54         544.344 
       0.270079         523.703         447.439         529.319 
        0.27624         517.066          432.88         512.723 
       0.282372          496.57         417.057          499.32 
        0.28843         481.562         400.019         483.651 
       0.294538         458.819         381.954         469.031 
       0.300721         453.399         363.772         454.214 
        0.30691         431.341         346.653         440.159 
       0.313033         420.876         331.536         422.622 
       0.319153          405.33          318.49         409.686 
       0.325316         394.445         307.323         399.682 
        0.33145         382.361         297.673         385.335 
       0.337538         376.966         288.948          375.79 
       0.343633         364.894         280.453          370.86 
       0.349808         353.514         271.699         363.448 
       0.355968         348.554         262.607         356.156 
       0.362074         340.191         253.347         346.745 
       0.368217         330.724         244.011         335.249 
       0.374374         318.594          234.95         326.903 
       0.380519         313.786         226.499          317.82 
       0.386598         305.799         218.855         311.584 
       0.392688         302.222         211.967         303.206 
        0.39888          294.07         205.635          296.25 
       0.405048         287.452         199.817          292.08 
       0.411186         281.249         194.323         284.717 
       0.417313         275.995         188.945           277.7 
       0.423458         270.379         183.554         272.931 
       0.429607         264.208         178.155         267.655 
       0.435692         257.027         172.829         261.849 
       0.441815         254.923         167.579         258.784 
       0.447964          249.86         162.521         253.027 
       0.454126          240.14         157.728         245.868 
       0.460267         237.232         153.256         243.481 
       0.466387         234.372          149.11          238.24 
        0.47254         229.203           145.2         234.208 
       0.478662         227.657         141.498         229.778 
       0.484765         220.876         137.939         224.346 
       0.490885         217.751         134.458         221.617 
       0.497035         214.418         131.015         218.747 
       0.503198          209.15          127.61         215.085 
       0.509342         206.594         124.289         212.092 
       0.515458         203.795         121.081         209.759 
       0.521598         200.492         117.979         204.984 
       0.527764         197.379         114.995         201.457 
       0.533884         194.486         112.173         198.731 
           0.54         191.491         109.493         195.572 
       0.546137         190.051          106.92         193.349 
       0.552299         186.562         104.431         189.562 
       0.558452         183.694         102.018         186.853 
       0.564573         180.584         99.6795         185.151 
       0.570708         177.578         97.3945         182.664 
       0.576825         175.261         95.1706         179.114 
       0.582926         172.527         93.0062         176.813 
       0.589034         170.144         90.8994         175.081 
       0.595184         168.154         88.8463         171.802 
       0.601379         166.454         86.8543         170.645 
       0.607522         162.717         84.9544         167.707 
       0.613639         162.017         83.1299          166.02 
       0.619772         158.485         81.3602           163.7 
       0.625918         156.897         79.6396         161.913 
       0.632068         155.069         77.9653         159.305 
       0.638161         153.771         76.3511         158.344 
         0.6443          151.62         74.7682         156.152 
       0.650464         149.877         73.2216         153.177 
       0.656582         148.121         71.7273         152.109 
       0.662703         145.997         70.2724         150.161 
       0.668861          143.98         68.8492         148.568 
       0.675024         142.259         67.4651         146.547 
       0.681124         141.316         66.1351          145.08 
       0.687237          138.78         64.8415         143.292 
       0.693381         136.968         63.5797          141.53 
       0.699536         135.868         62.3514         140.324 
       0.705665         135.964          61.162           139.5 
       0.711789         132.594         60.0047         137.152 
       0.717957         132.112         58.8684         135.847 
        0.72409         130.216         57.7663          135.15 
       0.730186          128.09         56.6977          133.72 
       0.736317         127.565         55.6494         131.861 
       0.742472          126.48         54.6235         130.658 
       0.748622         125.338         53.6245         129.104 
        0.75476         124.106         52.6533         127.785 
       0.760888          122.32         51.7087         126.159 
       0.767043         121.484         50.7846         125.523 
       0.773185         120.156         49.8858         124.718 
       0.779291         118.661         49.0145         123.299 
       0.785407         117.954         48.1633         121.712 
       0.791564         116.621         47.3271         120.875 
       0.797719         114.975         46.5112         120.134 
       0.803834         114.432         45.7197         118.488 
       0.809972         112.773         44.9435         117.517 
       0.816124         112.469         44.1836         116.781 
       0.822261          111.28         43.4432         115.535 
       0.828378         110.201          42.722          114.06 
       0.834502         109.656         42.0166         113.477 
       0.840667         108.191         41.3227         112.922 
       0.846816         107.088         40.6464          111.68 
       0.852925         106.253         39.9898         110.641 
       0.859047         104.902         39.3464         109.656 
       0.865192         104.397         38.7152         108.953 
       0.871341         103.456         38.0976         107.795 
       0.877463         102.271         37.4964         107.144 
       0.883569         101.573         36.9099         106.407 
       0.889708         100.877          36.333         105.513 
       0.895864         99.9428          35.767         104.861 
       0.902008         99.1856         35.2143         103.686 
       0.908149         98.5535         34.6738         102.895 
       0.914301         97.4475         34.1437         102.296 
       0.920448         96.8326         33.6253         101.564 
       0.926574         96.0723         33.1196         100.407 
       0.932687         95.6635         32.6253         99.6948 
       0.938823          94.169         32.1394         99.0105 
       0.944975         93.5499         31.6624         98.2906 
       0.951105         92.8719         31.1968          97.542 
       0.957225         91.7565         30.7414           96.94 
       0.963368         91.3823         30.2937         95.8473 
       0.969511         90.9677         29.8549         95.2958 
       0.975621         90.4406         29.4272         95.3991 
       0.981748         89.6097         29.0068         94.3358 
       0.987916         88.7121         28.5921         93.8297 
        0.99406         88.2029          28.187         92.9265 
        1.00019         87.3828         27.7907         92.1269 
        1.00632         86.9303         27.4024         91.5895 
        1.01246         86.1513          27.021         90.8158 
        1.01859         85.0399         26.6476           90.47 
        1.02471         85.2015         26.2816         90.0895 
        1.03085         84.2849         25.9214         89.2645 
        1.03698         83.6741         25.5687         88.5158 
        1.04314         82.8723         25.2211         88.0222 
        1.04929         82.4093         24.8808         87.6449 
        1.05541         81.7253         24.5482         87.2038 
        1.06154         81.4051         24.2209         86.6408 
        1.06769         80.8579          23.899         86.0747 
        1.07382         80.5199         23.5841         85.4969 
        1.07993         79.9474         23.2757         84.9521 
        1.08607         79.2336         22.9715         84.4216 
        1.09222         78.8285         22.6724         83.7161 
        1.09836         78.2229          22.379         83.1688 
        1.10449         77.7248         22.0912         82.7552 
        1.11063         77.1347         21.8082         82.0046 
        1.11677         76.6779         21.5303         81.5316 
         1.1229         76.0229         21.2577         81.3662 
        1.12903         75.1752         20.9896         80.7118 
        1.13518          75.408         20.7259         80.2232 
        1.14131          74.819         20.4669         79.7251 
        1.14745         73.9352         20.2125          79.338 
        1.15359         73.6825         19.9625         78.7935 
        1.15973         73.1904         19.7165         78.5464 
        1.16584         72.6782         19.4758         77.8357 
        1.17197         72.2129         19.2388         77.5563 
        1.17811         71.7963          19.005         77.0206 
        1.18424          71.205         18.7758         76.6682 
        1.19038         70.8361         18.5498         76.2181 
        1.19652         70.5335         18.3276         75.6626 
        1.20267         69.9045          18.109         75.3227 
        1.20881         69.5168          17.894         74.8892 
        1.21495         68.9644         17.6829         74.3939 
        1.22108         68.5876         17.4753         74.1549 
         1.2272         68.0018         17.2715         73.6916 
        1.23334         67.7347         17.0704         73.3227 
        1.23949         67.4359         16.8722         72.7447 
        1.24562         67.0011         16.6776         72.4408 
        1.25174         66.6408         16.4864         72.1374 
        1.25789         66.2969         16.2976         71.6752 
        1.26402         65.8595         16.1121         71.3088 
        1.27014         65.1948           15.93         71.1267 
        1.27628         65.0275         15.7502         70.6983 
        1.28244         64.4245         15.5728         70.0806 
        1.28858          64.152         15.3984         69.7608 
        1.29471         63.9544          15.227         69.5771 
        1.30084         63.4805         15.0584         68.9664 
        1.30697         63.0353         14.8922         68.6604 
        1.31312         62.6732         14.7282         68.4749 
        1.31925         62.4576         14.5672         68.0323 
        1.32537         62.1178         14.4088         67.6911 
        1.33151         61.5103         14.2522         67.3305 
        1.33765         61.2873          14.098         67.0029 
        1.34378          60.917         13.9464         66.6589 
        1.34992         60.5438         13.7969         66.3768 
        1.35606         60.2147         13.6494          66.028 
         1.3622         59.7195         13.5042         65.6888 
        1.36833         59.5696         13.3615         65.2969 
        1.37445         59.2431          13.221         65.0026 
        1.38059         58.7934          13.082         64.8754 
        1.38675         58.4754         12.9447         64.3345 
        1.39288         58.1498         12.8099         64.1709 
        1.39901         57.9116         12.6772         63.8282 
        1.40515         57.5931          12.546         63.5919 
         1.4113         57.3013         12.4167         63.3342 
        1.41742         57.0331         12.2897         62.8526 
        1.42355          56.588         12.1643          62.518 
         1.4297         56.2909         12.0402         62.2376 
        1.43585         55.9827          11.918         62.0347 
        1.44198         55.7149         11.7979         61.8242 
        1.44809         55.4378         11.6796          61.307 
        1.45423         55.1785         11.5626         61.0851 
        1.46036         54.8629         11.4474         60.8843 
        1.46649         54.5412         11.3337          60.667 
        1.47263         54.1932         11.2215         60.3987 
        1.47877         54.0331         11.1109         59.9657 
        1.48491         53.8015         11.0016         59.7754 
        1.49104         53.3845          10.894         59.4173 
        1.49718         52.9499         10.7877         59.1933 
        1.50333         52.7924         10.6827         58.8889 
        1.50947         52.5184         10.5793         58.6093 
         1.5156         52.2292         10.4775         58.4125 
        1.52172         51.9851         10.3769         58.1864 
        1.52787         51.8709         10.2775         57.9222 
          1.534         51.4982         10.1796         57.6616 
        1.54013         51.2074          10.083         57.3718 
        1.54627         51.0138         9.98747         57.1129 
        1.55241           50.63         9.89319         56.8641 
        1.55855         50.3357         9.80025         56.5428 
        1.56467         49.9337         9.70878         56.3227 
         1.5708         49.9298         9.61821         56.1694 
        1.57695         49.6503         9.52866         55.9751 
        1.58308          49.369         9.44047         55.7173 
        1.58922         49.3046         9.35333         55.4148 
        1.59535         49.0195         9.26733         55.1597 
         1.6015         48.5731         9.18229         54.8886 
        1.60764         48.4261         9.09836         54.7007 
        1.61376         48.1523         9.01572         54.5733 
        1.61989         47.7935         8.93403         54.2637 
        1.62604         47.7102         8.85318         53.9499 
        1.63218         47.5477         8.77339         53.7281 
        1.63831         47.2391         8.69476         53.5666 
        1.64444         46.9863         8.61706         53.3373 
        1.65059          46.609         8.54014         53.0462 
        1.65673         46.4425         8.46424         52.8459 
        1.66285         46.2297         8.38947         52.6831 
        1.66898         45.9837         8.31558         52.4754 
        1.67512         45.7379         8.24244         52.2924 
        1.68127         45.4546         8.17011         51.9998 
         1.6874         45.3567         8.09881         51.6951 
        1.69353         45.0292         8.02841         51.5542 
        1.69967         44.8515         7.95868         51.4088 
        1.70581         44.7655         7.88981         51.2344 
        1.71193         44.4601         7.82201         51.0163 
        1.71806         44.0915         7.75487          50.732 
        1.72421         43.9639         7.68839         50.4955 
        1.73035         43.7105         7.62276         50.3933 
        1.73649         43.3993         7.55791         50.2832 
        1.74262         43.3401         7.49387         49.8989 
        1.74876           43.21         7.43053          49.647 
        1.75489         42.8675         7.36806         49.5226 
        1.76101         42.7203         7.30632         49.3496 
        1.76715         42.4628         7.24521         49.1266 
        1.77329         42.2169         7.18472         48.9357 
        1.77943         42.1098          7.1249         48.7463 
        1.78557         41.9027         7.06585          48.512 
        1.79171         41.6201         7.00746         48.3098 
        1.79785         41.4473         6.94972         48.1618 
        1.80399         41.2949         6.89264          48.019 
        1.81012         41.1072         6.83628         47.7796 
        1.81625         40.7654         6.78057         47.5439 
        1.82239         40.6581          6.7254         47.4024 
        1.82853         40.3272         6.67088         47.2871 
        1.83466         40.2663         6.61701         47.0571 
        1.84078          39.932         6.56379         46.8004 
        1.84692         39.7819         6.51107         46.7221 
        1.85306         39.6059         6.45887         46.5567 
         1.8592         39.4003         6.40732         46.3221 
        1.86533         39.2149         6.35636         46.2018 
        1.87147         39.0695          6.3059         46.0319 
        1.87761         38.9147         6.25597         45.7978 
