# k  (h/Mpc)    Pcb(k)  (Mpc/h)^3    Pcb_linear(k) (Mpc/h)^3    Pcb_NL(k) (Mpc/h)^3   ShotnoiseSubtracted = false
     0.00783031         17131.8         17383.4         17296.2 
       0.013688         21940.3           21720         21563.6 
       0.019231         22306.5         22276.5         22065.8 
      0.0249154         20345.8           20840         20611.3 
      0.0312784         17940.2         18198.4         17958.7 
      0.0375637           15472         15509.8         15298.7 
      0.0433917         13133.1           13421         13198.5 
      0.0492413         11742.6         11852.4         11646.6 
      0.0555754         10314.7         10686.1         10504.5 
      0.0619321         9885.34         9890.44         9713.09 
       0.067871         8992.04         9299.02         9134.27 
      0.0738098         8414.23         8709.65         8453.87 
      0.0800417         7633.96         8010.23            7785 
      0.0862327         6988.86          7230.2         7119.31 
      0.0921407         6388.23         6460.95         6386.49 
      0.0982031         5654.15         5722.11         5774.21 
       0.104506         5221.77            5075         5227.24 
       0.110769         4750.66          4586.2         4698.21 
       0.116806         4427.55         4254.53         4356.28 
       0.122832         4200.32         4027.98         4136.02 
       0.129052         3917.08         3856.41         3950.56 
       0.135211         3754.49         3700.78         3781.02 
       0.141259         3634.33         3526.96         3647.51 
       0.147318         3454.63          3317.1         3484.43 
       0.153489         3177.06         3072.13          3209.3 
       0.159709         2998.43         2814.27         3020.74 
       0.165845         2866.17          2574.2         2871.14 
       0.171974         2685.66         2368.57         2678.73 
       0.178125         2540.54         2206.17         2567.96 
       0.184229         2415.37         2087.43         2422.64 
        0.19034         2294.34         2001.37         2324.07 
       0.196428         2253.51         1934.28         2235.15 
       0.202534         2174.44         1871.25         2177.77 
       0.208729         2087.37         1800.25         2082.53 
       0.214876          2012.5         1717.44         2044.76 
       0.220989         1944.73         1624.01         1985.55 
       0.227147         1863.15         1524.73            1917 
        0.23329         1786.92         1428.51         1850.99 
       0.239377         1757.41         1342.84         1767.33 
       0.245482         1648.95         1270.63         1681.83 
       0.251667         1638.71          1212.2         1634.96 
       0.257832         1573.81         1166.34         1578.18 
       0.263955         1523.53         1128.72         1535.31 
       0.270079         1473.95         1094.23         1497.98 
        0.27624         1457.84         1058.63         1459.35 
       0.282372         1398.49         1019.94         1438.97 
        0.28843         1393.67         978.265         1411.88 
       0.294538         1326.54          934.09         1371.15 
       0.300721         1316.84         889.626         1328.35 
        0.30691         1267.68         847.759          1306.6 
       0.313033         1241.79         810.788         1261.21 
       0.319153         1223.68         778.888         1222.59 
       0.325316          1183.4         751.576          1201.1 
        0.33145         1158.82         727.975         1159.71 
       0.337538         1136.53          706.64         1142.97 
       0.343633         1113.93         685.864         1132.03 
       0.349808         1077.98          664.45         1116.62 
       0.355968         1069.83          642.22          1098.4 
       0.362074         1060.28         619.573         1079.01 
       0.368217         1026.57          596.74         1052.85 
       0.374374         990.117         574.586         1031.43 
       0.380519         992.319         553.915         1009.67 
       0.386598         963.748         535.222         995.283 
       0.392688         959.981         518.376         972.886 
        0.39888         932.508          502.89          956.65 
       0.405048         922.444         488.662         940.752 
       0.411186         909.375         475.226         925.609 
       0.417313         890.339         462.076          915.14 
       0.423458         874.927         448.891         899.402 
       0.429607          864.43         435.684         885.898 
       0.435692         847.218         422.663         866.848 
       0.441815         839.715         409.823         863.619 
       0.447964          822.26         397.453         852.466 
       0.454126         816.387         385.732         827.689 
       0.460267         795.931         374.798         825.566 
       0.466387         786.026         364.656         810.896 
        0.47254         782.999         355.095         799.326 
       0.478662         773.459         346.041          788.11 
       0.484765         751.878         337.336         780.019 
       0.490885         747.648         328.824         765.786 
       0.497035         731.494         320.403         759.448 
       0.503198         727.473         312.077         751.276 
       0.509342         719.511         303.954         738.076 
       0.515458         715.665          296.11         732.937 
       0.521598         697.911         288.523         725.759 
       0.527764          685.78         281.225         718.663 
       0.533884         683.629         274.325         710.048 
           0.54         677.632         267.771         701.434 
       0.546137         670.572         261.479          693.67 
       0.552299         662.188          255.39         684.152 
       0.558452         656.491         249.489         678.915 
       0.564573         648.381         243.771         672.955 
       0.570708         641.518         238.183         664.541 
       0.576825         624.606         232.744         655.935 
       0.582926         627.445         227.451         651.611 
       0.589034         620.485         222.299         641.988 
       0.595184         615.257         217.278         635.519 
       0.601379         606.256         212.407         629.854 
       0.607522         597.969          207.76         620.488 
       0.613639         597.908         203.298          618.99 
       0.619772         585.997          198.97          616.86 
       0.625918         582.016         194.762         608.419 
       0.632068         574.555         190.668         605.123 
       0.638161         572.095          186.72         595.846 
         0.6443         562.483         182.849         591.114 
       0.650464         560.588         179.067         583.265 
       0.656582         555.253         175.413         580.154 
       0.662703         553.406         171.855         575.706 
       0.668861         544.265         168.374         573.248 
       0.675024         539.607         164.989         569.378 
       0.681124         535.915         161.736         560.662 
       0.687237         531.728         158.573         555.663 
       0.693381         524.605         155.487         550.511 
       0.699536         515.986         152.483         546.917 
       0.705665         516.003         149.575         540.297 
       0.711789         512.988         146.744         536.462 
       0.717957         508.163         143.965         535.851 
        0.72409          505.65          141.27         529.938 
       0.730186         497.835         138.657          524.46 
       0.736317         495.316         136.093         521.033 
       0.742472         491.979         133.584          517.61 
       0.748622         486.903         131.141         512.427 
        0.75476         479.449         128.766         512.916 
       0.760888         475.386         126.456         506.796 
       0.767043         475.515         124.196         500.416 
       0.773185          470.95         121.998         497.633 
       0.779291         465.945         119.867         493.466 
       0.785407         462.332         117.785          490.47 
       0.791564         457.416         115.741         488.866 
       0.797719         455.472         113.745         484.223 
       0.803834         449.935          111.81          481.22 
       0.809972         448.972         109.912         478.248 
       0.816124         447.492         108.053          472.73 
       0.822261         440.917         106.242          470.48 
       0.828378         439.027         104.479         467.011 
       0.834502         433.722         102.754         465.453 
       0.840667         430.681         101.056         461.746 
       0.846816         428.519         99.4028         458.259 
       0.852925         425.655         97.7968         455.585 
       0.859047         423.776         96.2234         451.068 
       0.865192         418.177         94.6799         448.182 
       0.871341          414.72         93.1695         445.636 
       0.877463         414.601         91.6993          443.28 
       0.883569         410.263         90.2648         441.274 
       0.889708         407.742         88.8539         436.667 
       0.895864         406.241         87.4698         434.429 
       0.902008         402.413         86.1183          431.41 
       0.908149         397.236         84.7963         427.457 
       0.914301         395.478         83.5001         424.143 
       0.920448          393.39         82.2323         423.355 
       0.926574         387.397         80.9954         420.368 
       0.932687         386.995         79.7867         416.817 
       0.938823         382.921         78.5985         415.925 
       0.944975         383.235         77.4319         412.911 
       0.951105         378.599         76.2933         409.755 
       0.957225         376.155         75.1796          407.64 
       0.963368         371.909         74.0846         405.028 
       0.969511         370.825         73.0115         402.706 
       0.975621         368.689         71.9655         400.035 
       0.981748         366.092         70.9375         397.904 
       0.987916         364.191         69.9232         396.037 
        0.99406         358.601         68.9327         393.313 
        1.00019         356.997         67.9635          389.96 
        1.00632         355.564         67.0139         387.511 
        1.01246         352.437         66.0812         385.173 
        1.01859         352.337         65.1678         382.838 
        1.02471         347.445          64.273         380.965 
        1.03085         345.793         63.3919         379.759 
        1.03698         344.317         62.5294         378.222 
        1.04314         341.387         61.6793         375.373 
        1.04929         338.086         60.8471         372.117 
        1.05541         338.746         60.0337         369.912 
        1.06154         333.115         59.2332         368.165 
        1.06769          331.99         58.4462         365.624 
        1.07382          329.39         57.6761         363.612 
        1.07993         327.584         56.9217         361.771 
        1.08607         326.637         56.1777         359.318 
        1.09222         322.939         55.4464          357.37 
        1.09836         320.784          54.729         356.056 
        1.10449         318.535         54.0251         354.423 
        1.11063         314.679          53.333         351.239 
        1.11677         315.199         52.6533         349.774 
         1.1229          312.67         51.9866         347.567 
        1.12903         310.615          51.331         345.702 
        1.13518         307.505         50.6862         343.302 
        1.14131         306.104         50.0528         341.946 
        1.14745         304.112         49.4307         339.186 
        1.15359         302.358         48.8191         338.617 
        1.15973         300.177         48.2176         336.273 
        1.16584         297.932          47.629         335.086 
        1.17197         297.667         47.0494         333.329 
        1.17811         294.148         46.4777         330.821 
        1.18424          292.06         45.9172          329.24 
        1.19038         290.933         45.3644         328.164 
        1.19652         288.585         44.8209         325.446 
        1.20267         287.561         44.2863         324.167 
        1.20881         285.455         43.7607          322.39 
        1.21495         283.318         43.2444         320.456 
        1.22108         281.627         42.7366         318.457 
         1.2272         279.978         42.2381         317.403 
        1.23334         278.313         41.7465         315.381 
        1.23949         275.741         41.2616         313.654 
        1.24562         274.834         40.7858         311.817 
        1.25174         273.185         40.3182         310.375 
        1.25789         270.695         39.8565         308.597 
        1.26402         268.688          39.403         307.647 
        1.27014         267.039         38.9576         305.386 
        1.27628         265.269         38.5178         304.734 
        1.28244         265.009          38.084         303.261 
        1.28858         262.441         37.6574         301.456 
        1.29471         261.086         37.2384         299.508 
        1.30084         258.931         36.8261         297.598 
        1.30697         257.676         36.4195         296.545 
        1.31312         254.946         36.0185         295.097 
        1.31925         253.692         35.6248         293.495 
        1.32537         252.998         35.2374         291.622 
        1.33151         250.634         34.8544         290.508 
        1.33765          248.66         34.4773         289.348 
        1.34378         247.977         34.1066          287.34 
        1.34992         246.414         33.7411         285.862 
        1.35606         245.373         33.3801         284.176 
         1.3622         242.947         33.0251         283.386 
        1.36833         241.423         32.6762         282.282 
        1.37445         240.051         32.3324         280.036 
        1.38059         238.074         31.9926         279.146 
        1.38675         237.071         31.6569         278.076 
        1.39288         235.706         31.3273         276.268 
        1.39901         234.494         31.0025         274.597 
        1.40515           232.9         30.6817         272.997 
         1.4113          231.37         30.3655         271.609 
        1.41742         229.579          30.055         270.541 
        1.42355         228.808         29.7483         269.112 
         1.4297         226.738         29.4449         267.428 
        1.43585         225.479         29.1459         267.022 
        1.44198         224.484         28.8522         265.387 
        1.44809         222.647         28.5631          264.07 
        1.45423         221.526         28.2769         262.179 
        1.46036          220.15         27.9952         261.208 
        1.46649         218.601         27.7172         260.166 
        1.47263         217.604         27.4428         258.457 
        1.47877         215.864         27.1722         257.006 
        1.48491         213.867         26.9048         255.571 
        1.49104         213.242         26.6417         254.627 
        1.49718         211.536         26.3818         254.212 
        1.50333         210.716          26.125         252.411 
        1.50947         209.208         25.8722          251.01 
         1.5156         207.427         25.6231         250.146 
        1.52172         206.739         25.3773         248.843 
        1.52787         204.896         25.1342         247.706 
          1.534         204.408         24.8946         246.406 
        1.54013         202.515         24.6584         245.333 
        1.54627         201.545         24.4248         244.407 
        1.55241         200.216         24.1942         243.298 
        1.55855         198.606          23.967          242.11 
        1.56467         197.863         23.7432         240.577 
         1.5708         196.724         23.5218         239.323 
        1.57695         195.477         23.3028         238.249 
        1.58308         194.198         23.0871         236.978 
        1.58922         192.479          22.874         235.948 
        1.59535         191.271         22.6637         235.118 
         1.6015         190.296         22.4557         234.302 
        1.60764         189.257         22.2504         233.008 
        1.61376         188.284         22.0483         231.536 
        1.61989         187.109         21.8486         230.573 
        1.62604         185.818         21.6509         229.347 
        1.63218         184.707         21.4557         228.296 
        1.63831         183.264         21.2634         227.463 
        1.64444         182.475         21.0734         226.251 
        1.65059         181.519         20.8853         225.336 
        1.65673         180.171         20.6997         224.398 
        1.66285         178.784         20.5168         223.197 
        1.66898         177.979         20.3361         221.923 
        1.67512         177.242         20.1572         221.057 
        1.68127         175.331         19.9804         220.032 
         1.6874         174.837          19.806         218.977 
        1.69353         173.431         19.6338         218.252 
        1.69967         172.101         19.4633         217.191 
        1.70581         171.524         19.2949         216.153 
        1.71193         170.143         19.1291         215.195 
        1.71806         169.474         18.9649         214.006 
        1.72421          168.21         18.8023         213.044 
        1.73035         167.376         18.6418         212.099 
        1.73649         166.421         18.4832          211.03 
        1.74262         165.357         18.3266         210.071 
        1.74876         163.951         18.1717         209.145 
        1.75489         163.348         18.0189         208.343 
        1.76101         161.875         17.8679         207.619 
        1.76715         161.398         17.7185         206.629 
        1.77329         160.187         17.5706         205.752 
        1.77943         159.498         17.4243         204.858 
        1.78557          158.44         17.2798         203.712 
        1.79171         157.638          17.137         202.776 
        1.79785         156.348         16.9958         201.924 
        1.80399         155.572         16.8562         200.933 
        1.81012         154.601         16.7184         200.317 
        1.81625         153.968         16.5822          199.52 
        1.82239         152.634         16.4473         198.386 
        1.82853         152.098         16.3139         197.526 
        1.83466         150.964         16.1822         196.624 
        1.84078         150.213          16.052         195.711 
        1.84692         148.961         15.9231         195.104 
        1.85306         148.436         15.7954         194.143 
         1.8592         147.423         15.6694         193.071 
        1.86533         146.709         15.5448         192.446 
        1.87147         145.624         15.4214         191.675 
