# k  (h/Mpc)    P(k)  (Mpc/h)^3    P_linear(k)  (Mpc/h)^3     P_NL(k)  ShotnoiseSubtracted = false
     0.00783031         9140.13         9256.34         9214.01 
       0.013688         11654.2         11578.1         11511.1 
       0.019231           11898         11878.4         11792.7 
      0.0249154         10933.7         11114.1         11033.2 
      0.0312784         9629.52         9706.16         9635.01 
      0.0375637         8280.15          8272.6         8212.02 
      0.0433917         7069.79         7158.67         7097.29 
      0.0492413          6299.1         6322.13         6266.48 
      0.0555754         5579.47          5700.1         5649.48 
      0.0619321         5301.34         5275.77         5225.22 
       0.067871         4867.08         4960.34         4912.23 
      0.0738098         4552.66         4645.99         4570.23 
      0.0800417         4147.36         4272.92         4206.18 
      0.0862327          3782.3         3856.85         3826.13 
      0.0921407         3429.48         3446.51         3427.03 
      0.0982031         3027.24          3052.4          3073.7 
       0.104506         2765.84         2707.21         2759.97 
       0.110769         2507.64         2446.47         2483.01 
       0.116806         2320.76         2269.55         2302.57 
       0.122832         2208.64          2148.7         2184.54 
       0.129052         2072.49         2057.18         2087.22 
       0.135211         1988.54         1974.16         2001.68 
       0.141259         1917.27         1881.44         1920.61 
       0.147318         1816.78         1769.49         1827.92 
       0.153489         1671.43         1638.82         1683.54 
       0.159709         1564.54         1501.27         1569.14 
       0.165845         1474.78          1373.2          1474.3 
       0.171974         1367.17         1263.51         1365.14 
       0.178125         1288.69         1176.88         1297.75 
       0.184229         1228.71         1113.54          1226.9 
        0.19034         1152.84         1067.63         1175.27 
       0.196428         1136.62         1031.84         1126.55 
       0.202534         1105.51         998.216         1095.35 
       0.208729         1056.66         960.344          1049.9 
       0.214876         1006.25         916.171         1026.26 
       0.220989         972.801         866.328          987.19 
       0.227147         919.721          813.37         941.462 
        0.23329         877.436         762.042         904.214 
       0.239377         853.038         716.341         860.578 
       0.245482         794.138         677.814         814.264 
       0.251667         784.708         646.645         789.618 
       0.257832         756.007         622.187         759.965 
       0.263955         732.088         602.119         736.049 
       0.270079         707.229         583.723         716.539 
        0.27624         699.654         564.729         695.134 
       0.282372         671.139         544.087         678.342 
        0.28843          655.41         521.859         658.826 
       0.294538         623.167         498.292         639.918 
       0.300721         618.273         474.572         620.115 
        0.30691         589.073         452.239         603.524 
       0.313033         576.389         432.518         580.203 
       0.319153         558.461         415.497         562.582 
       0.325316         542.112         400.929         549.691 
        0.33145         526.825         388.341         529.871 
       0.337538         519.459         376.958         518.178 
       0.343633         503.422         365.875         512.756 
       0.349808         487.102         354.455         503.234 
       0.355968         482.322         342.593         493.826 
       0.362074         472.846         330.513         481.825 
       0.368217         459.635         318.333         466.579 
       0.374374         441.086         306.513         455.663 
       0.380519         437.091         295.488         443.713 
       0.386598         426.175         285.515         436.675 
       0.392688          422.96         276.529         424.145 
        0.39888         410.936         268.268         416.173 
       0.405048         402.335         260.678          410.64 
       0.411186         394.566         253.511         400.015 
       0.417313         387.453         246.495          391.56 
       0.423458         380.082         239.462         385.562 
       0.429607         372.328         232.418         378.072 
       0.435692         363.314          225.47         370.008 
       0.441815         360.324         218.621         366.364 
       0.447964         352.697         212.022         359.106 
       0.454126         341.751          205.77         349.124 
       0.460267         336.967         199.936         346.558 
       0.466387         333.202         194.527         339.538 
        0.47254         326.017         189.426         334.359 
       0.478662         324.853         184.597         327.994 
       0.484765         314.625         179.953         321.109 
       0.490885         310.976         175.412         317.054 
       0.497035         305.569          170.92         313.247 
       0.503198          299.68         166.478         308.458 
       0.509342          297.05         162.145         304.512 
       0.515458         293.368          157.96         301.413 
       0.521598          287.63         153.913         295.325 
       0.527764          282.85          150.02          291.28 
       0.533884         279.998          146.34         287.401 
           0.54          276.07         142.843         282.808 
       0.546137         274.536         139.487         279.598 
       0.552299          268.96         136.238         274.969 
       0.558452         266.397         133.091         271.672 
       0.564573           262.2          130.04         269.345 
       0.570708         257.398         127.059         266.372 
       0.576825         253.621         124.158           261.1 
       0.582926         250.827         121.335         258.208 
       0.589034         248.065         118.586         255.359 
       0.595184         245.391         115.908         250.839 
       0.601379           242.8         113.309         249.155 
       0.607522         238.237          110.83         245.745 
       0.613639         236.876          108.45         243.592 
       0.619772         231.607         106.141         241.287 
       0.625918         230.168         103.897         238.034 
       0.632068         226.892         101.712         234.475 
       0.638161         225.747         99.6065         233.229 
         0.6443           222.1         97.5415         230.545 
       0.650464         219.783         95.5239         226.315 
       0.656582         218.131         93.5744         224.545 
       0.662703         216.107         91.6763         222.807 
       0.668861         212.396         89.8196         220.373 
       0.675024         209.821         88.0139         217.852 
       0.681124         208.982         86.2788         215.255 
       0.687237         205.932         84.5913         213.006 
       0.693381         202.902         82.9451         210.686 
       0.699536         201.423         81.3427         208.887 
       0.705665         200.455          79.791         207.466 
       0.711789         197.243         78.2812         205.063 
       0.717957         196.385         76.7989         203.212 
        0.72409         193.934          75.361         201.896 
       0.730186         191.272         73.9669         200.009 
       0.736317         189.596         72.5994          197.52 
       0.742472           188.5          71.261         195.682 
       0.748622         186.949         69.9577         193.579 
        0.75476         185.336         68.6907         192.472 
       0.760888         182.746         67.4584         189.864 
       0.767043          182.23         66.2528         188.773 
       0.773185          180.14         65.0803         187.489 
       0.779291         177.006         63.9436         185.372 
       0.785407         176.471          62.833         183.558 
       0.791564         174.719         61.7422         182.332 
       0.797719         172.414         60.6779         181.302 
       0.803834         171.514         59.6452         179.473 
       0.809972         169.874         58.6327         177.981 
       0.816124         169.729         57.6413         176.589 
       0.822261         167.393         56.6754         175.071 
       0.828378         165.845         55.7345         173.189 
       0.834502         165.701         54.8143          172.07 
       0.840667         162.944         53.9089         170.948 
       0.846816         161.672         53.0267         169.573 
       0.852925         160.875           52.17          168.23 
       0.859047         159.001         51.3307         166.992 
       0.865192         157.788         50.5073         165.642 
       0.871341         156.313         49.7016         164.159 
       0.877463          155.13         48.9173         163.272 
       0.883569         154.206         48.1521          162.34 
       0.889708         152.915         47.3994         160.874 
       0.895864          151.14         46.6611         160.041 
       0.902008          150.43         45.9401         158.426 
       0.908149         149.701         45.2349         157.075 
       0.914301         147.987         44.5434         156.216 
       0.920448         146.884         43.8671         155.048 
       0.926574         146.077         43.2073         153.628 
       0.932687          145.52         42.5625         152.626 
       0.938823         143.504         41.9286         151.849 
       0.944975         142.226         41.3063         150.942 
       0.951105         141.603         40.6989         149.656 
       0.957225         140.009         40.1048         148.579 
       0.963368         138.704         39.5207         147.198 
       0.969511         138.365         38.9482         146.311 
       0.975621         137.573         38.3902         146.276 
       0.981748         136.869         37.8419         144.989 
       0.987916         135.184         37.3008         144.064 
        0.99406         134.351         36.7724         142.985 
        1.00019         133.897         36.2554         141.846 
        1.00632         132.634         35.7488         140.732 
        1.01246         131.797         35.2512         139.576 
        1.01859         130.582          34.764         139.297 
        1.02471         129.855         34.2866         138.797 
        1.03085          128.65         33.8166         137.666 
        1.03698         127.938         33.3565         136.678 
        1.04314         126.843          32.903         135.848 
        1.04929         126.001         32.4591         135.139 
        1.05541         125.283         32.0252         134.406 
        1.06154         124.471         31.5982         133.638 
        1.06769         124.274         31.1783         132.904 
        1.07382         123.296         30.7675         132.077 
        1.07993         122.221         30.3651         131.185 
        1.08607         121.381         29.9682         130.555 
        1.09222         120.887         29.5781         129.898 
        1.09836         119.826         29.1954         128.964 
        1.10449         118.909         28.8199         128.197 
        1.11063         118.132         28.4507         127.126 
        1.11677         117.697         28.0881         126.508 
         1.1229         116.448         27.7324         125.941 
        1.12903         115.701         27.3827          125.14 
        1.13518         115.717         27.0387          124.46 
        1.14131         114.476         26.7008         123.549 
        1.14745         113.845          26.369         123.034 
        1.15359         113.049         26.0427         122.227 
        1.15973         112.672         25.7218         121.857 
        1.16584          111.61         25.4078         120.719 
        1.17197         111.035         25.0986         120.299 
        1.17811         110.287         24.7937         119.814 
        1.18424         109.723         24.4947         119.031 
        1.19038         109.254         24.1998         118.445 
        1.19652         108.477         23.9098         117.813 
        1.20267         107.669         23.6247         117.135 
        1.20881         106.896         23.3443         116.573 
        1.21495         106.324         23.0689         115.714 
        1.22108         105.744          22.798         115.461 
         1.2272          104.86         22.5321         114.564 
        1.23334         104.405         22.2698         114.268 
        1.23949         103.419         22.0111          113.35 
        1.24562          103.07         21.7573         112.663 
        1.25174         102.199         21.5079         112.209 
        1.25789         101.804         21.2616         111.655 
        1.26402         101.334         21.0197         111.075 
        1.27014         100.567         20.7821          110.94 
        1.27628         100.093         20.5475         110.472 
        1.28244         99.3937          20.316         109.362 
        1.28858         99.0512         20.0885         108.771 
        1.29471         98.1428         19.8649         108.404 
        1.30084         97.6751          19.645         107.708 
        1.30697         97.0742         19.4281         107.314 
        1.31312         96.7053         19.2142         106.683 
        1.31925         95.8876         19.0042         106.141 
        1.32537         95.5229         18.7975         105.765 
        1.33151         94.6268         18.5932         105.114 
        1.33765         94.2093          18.392         104.686 
        1.34378          93.615         18.1943         104.157 
        1.34992          93.455         17.9993         103.588 
        1.35606         92.7819         17.8067         103.025 
         1.3622          91.918         17.6174         102.593 
        1.36833         91.7279         17.4312         101.988 
        1.37445         91.0478         17.2479         101.499 
        1.38059         90.5618         17.0666         101.061 
        1.38675          89.908         16.8875         100.417 
        1.39288         89.4887         16.7116         100.001 
        1.39901         89.2051         16.5384         99.6566 
        1.40515            88.6         16.3673         99.2918 
         1.4113         87.8662         16.1986         98.8551 
        1.41742         87.8107         16.0329         98.3218 
        1.42355          87.012         15.8693         97.7841 
         1.4297         86.5832         15.7075         97.3518 
        1.43585         85.9081          15.548         96.7765 
        1.44198         85.6438         15.3913         96.4206 
        1.44809         85.0874         15.2371         95.9547 
        1.45423         84.5287         15.0844         95.4332 
        1.46036         84.3303         14.9341         95.0428 
        1.46649         83.7336         14.7858         94.7454 
        1.47263         83.2277         14.6394         94.3199 
        1.47877         83.0002         14.4951          93.613 
        1.48491         82.3011         14.3525           93.39 
        1.49104         81.9658         14.2121         93.0806 
        1.49718         81.4136         14.0735         92.3983 
        1.50333         80.9574         13.9365         91.9784 
        1.50947         80.5241         13.8016         91.6039 
         1.5156         80.1825         13.6687          91.204 
        1.52172         79.6091         13.5376         90.8704 
        1.52787         79.4347         13.4079         90.3757 
          1.534         78.8644         13.2801         90.0216 
        1.54013         78.2908         13.1541         89.5953 
        1.54627         78.0123         13.0295         89.1857 
        1.55241         77.5024         12.9065         88.8594 
        1.55855         77.2461         12.7853         88.3687 
        1.56467         76.6782         12.6659         87.9956 
         1.5708         76.3387         12.5478         87.6544 
        1.57695         76.1075         12.4309         87.2717 
        1.58308         75.3008         12.3159         86.8875 
        1.58922         75.2081         12.2022         86.4548 
        1.59535         74.9048           12.09         86.0913 
         1.6015         74.2678         11.9791         85.6688 
        1.60764         73.9776         11.8696         85.3568 
        1.61376         73.5671         11.7618         85.1944 
        1.61989         73.1616         11.6552         84.7689 
        1.62604         72.8958         11.5497         84.2047 
        1.63218         72.5246         11.4456         83.8292 
        1.63831         71.9453          11.343         83.6576 
        1.64444         71.6693         11.2417         83.2562 
        1.65059         71.1535         11.1413         82.7097 
        1.65673         70.7906         11.0423         82.4434 
        1.66285         70.4905         10.9448          82.223 
        1.66898         70.1214         10.8484         81.7766 
        1.67512         69.6674          10.753         81.4622 
        1.68127         69.3289         10.6586           81.06 
         1.6874         69.0098         10.5656         80.6592 
        1.69353          68.649         10.4737          80.459 
        1.69967         68.1938         10.3828         80.1197 
        1.70581         68.0297         10.2929         79.6948 
        1.71193         67.7754         10.2045         79.3683 
        1.71806         67.0974         10.1169         79.2059 
        1.72421         66.9107         10.0301         78.8497 
        1.73035         66.5725         9.94453         78.3911 
        1.73649          66.178         9.85993         78.0329 
        1.74262         65.9297         9.77639         77.8279 
        1.74876         65.5786         9.69376         77.5008 
        1.75489          65.092         9.61225         77.1056 
        1.76101         64.9143         9.53171         76.7627 
        1.76715         64.4582         9.45199         76.4278 
        1.77329         64.1812         9.37308         76.1739 
        1.77943         63.7309         9.29503          75.889 
        1.78557         63.5705           9.218         75.4852 
        1.79171         63.1812         9.14182         75.1794 
        1.79785         62.9215         9.06649         74.9454 
        1.80399         62.6151         8.99203         74.6475 
        1.81012         62.3568          8.9185         74.3157 
        1.81625          61.819         8.84583         73.9795 
        1.82239         61.5922         8.77386          73.695 
        1.82853         61.2488         8.70272         73.4881 
        1.83466         60.9774         8.63244         73.1649 
        1.84078         60.6157         8.56302         72.8078 
        1.84692         60.2243         8.49424         72.6603 
        1.85306         59.9965         8.42614         72.3616 
         1.8592         59.5459         8.35889         71.9603 
        1.86533         59.3751         8.29241          71.692 
        1.87147         58.9855         8.22658          71.296 
        1.87761         58.7385         8.16144         70.9742 
