# k  (h/Mpc)    Pcb(k)  (Mpc/h)^3    Pcb_linear(k) (Mpc/h)^3    Pcb_NL(k) (Mpc/h)^3   ShotnoiseSubtracted = false
     0.00783031         213.731         215.605         214.616 
       0.013688         269.217          270.17         268.995 
       0.019231         277.088         277.338         276.035 
      0.0249154         258.609         259.566         258.757 
      0.0312784         226.609         226.726         226.559 
      0.0375637           193.6         193.259         193.275 
      0.0433917         167.321         167.247         167.392 
      0.0492413          147.94          147.71         147.874 
      0.0555754         133.108         133.181         133.247 
      0.0619321         123.588          123.27         123.271 
       0.067871         115.766         115.902         115.822 
      0.0738098          108.34         108.558         108.424 
      0.0800417         99.5143         99.8424         99.7313 
      0.0862327         89.9662         90.1212         90.0754 
      0.0921407         80.5047         80.5339         80.5453 
      0.0982031         71.2322         71.3252         71.4001 
       0.104506         63.4203         63.2596         63.3679 
       0.110769         57.2995         57.1673         57.2567 
       0.116806         52.9995         53.0332         53.0874 
       0.122832         50.2706         50.2094          50.246 
       0.129052         47.9896          48.071         48.0789 
       0.135211         46.0014         46.1312         46.1259 
       0.141259         43.9133         43.9646         43.9664 
       0.147318         41.3781         41.3487         41.3788 
       0.153489          38.274         38.2953          38.327 
       0.159709         35.0844         35.0811         35.1434 
       0.165845         32.2326         32.0886         32.1863 
       0.171974         29.5411         29.5254         29.6194 
       0.178125         27.5543         27.5011          27.607 
       0.184229         26.1097         26.0209         26.1183 
        0.19034         24.9147         24.9481         25.0319 
       0.196428         24.1359         24.1119         24.1724 
       0.202534         23.4351         23.3261         23.3857 
       0.208729         22.4739         22.4412         22.5003 
       0.214876         21.3803          21.409         21.4916 
       0.220989         20.3314         20.2442          20.339 
       0.227147          18.998         19.0067         19.1057 
        0.23329         17.8128         17.8073         17.9231 
       0.239377         16.7693         16.7394         16.8618 
       0.245482         15.8448         15.8392          15.949 
       0.251667         15.1794         15.1108         15.2268 
       0.257832         14.5797         14.5392         14.6481 
       0.263955         14.1166         14.0703         14.1706 
       0.270079         13.6876         13.6404         13.7357 
        0.27624         13.2831         13.1965         13.2866 
       0.282372          12.795         12.7142         12.8132 
        0.28843         12.2372         12.1947         12.2982 
       0.294538         11.6929         11.6441          11.752 
       0.300721         11.1806         11.0898         11.2052 
        0.30691          10.625         10.5679         10.6855 
       0.313033         10.1713         10.1071          10.221 
       0.319153         9.71438          9.7094         9.82676 
       0.325316          9.4605         9.36894         9.48773 
        0.33145         9.14879         9.07474         9.18582 
       0.337538         8.87608         8.80878          8.9153 
       0.343633         8.59819          8.5498         8.65445 
       0.349808         8.34555         8.28285         8.39205 
       0.355968         8.07447         8.00574         8.12778 
       0.362074         7.78259         7.72344         7.83965 
       0.368217         7.50233         7.43882         7.54621 
       0.374374         7.20397         7.16264         7.27768 
       0.380519         6.97167         6.90497         7.01577 
       0.386598         6.74694         6.67194          6.7854 
       0.392688         6.55097         6.46196         6.57415 
        0.39888          6.3445         6.26891         6.38016 
       0.405048         6.17107         6.09155         6.19498 
       0.411186         6.00615         5.92405         6.03708 
       0.417313         5.82534         5.76013         5.86906 
       0.423458         5.67278         5.59577         5.70612 
       0.429607         5.49326         5.43113         5.53765 
       0.435692         5.33214         5.26882          5.3791 
       0.441815         5.17472         5.10876         5.22451 
       0.447964         5.04099         4.95455         5.06586 
       0.454126         4.87238         4.80845          4.9181 
       0.460267         4.73685         4.67215         4.78456 
       0.466387         4.60085         4.54572         4.65235 
        0.47254         4.48946         4.42653         4.53384 
       0.478662         4.38246         4.31367         4.41824 
       0.484765          4.2634         4.20515         4.30968 
       0.490885         4.15971         4.09905         4.21091 
       0.497035          4.0752         3.99407         4.10718 
       0.503198         3.96025         3.89029         3.99418 
       0.509342         3.86515         3.78903         3.89516 
       0.515458         3.75724         3.69124         3.80208 
       0.521598         3.66536         3.59666         3.69896 
       0.527764         3.56565         3.50569         3.60737 
       0.533884         3.49461         3.41968         3.52088 
           0.54         3.40804         3.33798         3.43724 
       0.546137         3.33342         3.25955         3.36132 
       0.552299         3.25539         3.18363         3.27779 
       0.558452         3.17056         3.11008         3.20589 
       0.564573          3.1075          3.0388         3.14188 
       0.570708         3.03739         2.96914         3.06958 
       0.576825         2.96313         2.90134          2.9994 
       0.582926         2.90561         2.83536         2.93496 
       0.589034         2.82286         2.77113         2.87397 
       0.595184         2.76562         2.70855         2.80065 
       0.601379         2.70475         2.64782          2.7478 
       0.607522         2.65467         2.58989         2.68758 
       0.613639         2.60653         2.53427         2.63005 
       0.619772         2.53883         2.48032         2.57911 
       0.625918          2.4915         2.42787         2.52242 
       0.632068         2.44625         2.37683         2.46938 
       0.638161         2.38931         2.32762         2.42021 
         0.6443         2.34033         2.27936         2.36967 
       0.650464         2.28629         2.23221         2.32658 
       0.656582         2.24853         2.18666         2.27915 
       0.662703         2.20397         2.14231         2.23286 
       0.668861          2.1663         2.09892         2.19226 
       0.675024          2.1174         2.05672         2.14772 
       0.681124         2.07198         2.01618         2.10524 
       0.687237         2.03867         1.97674         2.06204 
       0.693381         2.00075         1.93827         2.02137 
       0.699536         1.95104         1.90083         1.98505 
       0.705665         1.91746         1.86457         1.95429 
       0.711789         1.88623         1.82929         1.91696 
       0.717957         1.84702         1.79465         1.87903 
        0.72409         1.81457         1.76105         1.84596 
       0.730186         1.78088         1.72847         1.81062 
       0.736317         1.75702         1.69651         1.77731 
       0.742472         1.72364         1.66524         1.75042 
       0.748622         1.68977         1.63478         1.72014 
        0.75476         1.65455         1.60518         1.68639 
       0.760888         1.62581         1.57638         1.65785 
       0.767043         1.60662         1.54821         1.63043 
       0.773185         1.57212         1.52081         1.60388 
       0.779291         1.54712         1.49424         1.57648 
       0.785407         1.52083         1.46829          1.5488 
       0.791564         1.49615          1.4428         1.52314 
       0.797719         1.47319         1.41793         1.49497 
       0.803834         1.44953          1.3938         1.47172 
       0.809972          1.4241         1.37014          1.4505 
       0.816124         1.39793         1.34697         1.42391 
       0.822261         1.37246          1.3244         1.40026 
       0.828378         1.35406         1.30241         1.37832 
       0.834502         1.33522         1.28091         1.35493 
       0.840667         1.30753         1.25975          1.3347 
       0.846816         1.28731         1.23914         1.31702 
       0.852925         1.27218         1.21912         1.29439 
       0.859047         1.25152          1.1995         1.27703 
       0.865192          1.2296         1.18026         1.25549 
       0.871341         1.21065         1.16143         1.23552 
       0.877463         1.19612         1.14311         1.21576 
       0.883569           1.174         1.12522         1.19929 
       0.889708         1.15608         1.10764         1.18122 
       0.895864         1.13844         1.09038         1.16259 
       0.902008         1.11993         1.07354         1.14554 
       0.908149         1.10361         1.05706         1.12906 
       0.914301         1.08255          1.0409         1.11135 
       0.920448         1.06871         1.02509         1.09475 
       0.926574         1.05243         1.00967         1.07998 
       0.932687         1.03695        0.994607         1.06207 
       0.938823         1.02614        0.979795         1.05075 
       0.944975         1.01018        0.965252         1.03228 
       0.951105        0.996273        0.951058           1.018 
       0.957225         0.98497        0.937176         1.00563 
       0.963368        0.969412        0.923526        0.990278 
       0.969511        0.953516        0.910148        0.976947 
       0.975621        0.938832         0.89711        0.960871 
       0.981748        0.929797        0.884295         0.94811 
       0.987916        0.915304        0.871651        0.938017 
        0.99406        0.901337        0.859303          0.9259 
        1.00019        0.891726        0.847221        0.913104 
        1.00632        0.876161        0.835384        0.899348 
        1.01246        0.864582        0.823757        0.887004 
        1.01859        0.854623        0.812371        0.876375 
        1.02471        0.842086        0.801216         0.86488 
        1.03085        0.833532        0.790233        0.851653 
        1.03698        0.820271        0.779481        0.840226 
        1.04314        0.810346        0.768884        0.829988 
        1.04929        0.798463         0.75851        0.819469 
        1.05541        0.789853         0.74837        0.809994 
        1.06154        0.777937        0.738391         0.79953 
        1.06769        0.767307         0.72858        0.789213 
        1.07382        0.758467         0.71898        0.779044 
        1.07993         0.74687        0.709576        0.769115 
        1.08607         0.74098        0.700302        0.760189 
        1.09222        0.729329        0.691185        0.749492 
        1.09836        0.723143        0.682242         0.74107 
        1.10449        0.713711        0.673468         0.73204 
        1.11063        0.702143         0.66484        0.721837 
        1.11677        0.692776        0.656367        0.714294 
         1.1229        0.685421        0.648056        0.705582 
        1.12903        0.676184        0.639883        0.696797 
        1.13518        0.669638        0.631845        0.688452 
        1.14131        0.660051         0.62395        0.680485 
        1.14745        0.648832        0.616195        0.671049 
        1.15359        0.643853        0.608571        0.664267 
        1.15973        0.633831        0.601073        0.656902 
        1.16584        0.630111        0.593735        0.648178 
        1.17197        0.621219         0.58651        0.641177 
        1.17811        0.614804        0.579383        0.634313 
        1.18424        0.609108        0.572396        0.625807 
        1.19038        0.599777        0.565505        0.618887 
        1.19652        0.591529         0.55873        0.612398 
        1.20267        0.587254        0.552066        0.603872 
        1.20881        0.578821        0.545513        0.598037 
        1.21495        0.573971        0.539077        0.592769 
        1.22108        0.566826        0.532747        0.584681 
         1.2272        0.561334        0.526534        0.577526 
        1.23334        0.553784        0.520405        0.571719 
        1.23949        0.547704        0.514361         0.56616 
        1.24562        0.541851        0.508429        0.559776 
        1.25174        0.536186          0.5026        0.552964 
        1.25789        0.530782        0.496845        0.546958 
        1.26402        0.522858        0.491191        0.541125 
        1.27014        0.517659        0.485639        0.535007 
        1.27628        0.513529        0.480157        0.528994 
        1.28244        0.505511        0.474749        0.523537 
        1.28858        0.501018        0.469431        0.517267 
        1.29471        0.496958        0.464208        0.512322 
        1.30084        0.490213        0.459068        0.508054 
        1.30697        0.485022           0.454        0.502224 
        1.31312        0.478056        0.449001        0.496671 
        1.31925        0.474268        0.444093        0.492087 
        1.32537        0.470003        0.439263        0.487061 
        1.33151        0.465758        0.434489        0.481948 
        1.33765        0.460465        0.429788        0.476962 
        1.34378        0.454307        0.425167        0.472123 
        1.34992        0.450609        0.420611        0.467416 
        1.35606        0.445576        0.416111        0.461925 
         1.3622         0.44118        0.411686        0.457471 
        1.36833        0.436374        0.407336        0.453364 
        1.37445        0.430653        0.403051         0.44905 
        1.38059        0.426668        0.398815        0.444161 
        1.38675        0.424973         0.39463        0.439496 
        1.39288         0.41917        0.390521        0.435044 
        1.39901        0.415051        0.386473        0.431033 
        1.40515        0.411329        0.382473        0.426582 
         1.4113        0.406142        0.378532        0.422863 
        1.41742        0.402268        0.374661        0.419651 
        1.42355        0.399814        0.370837         0.41385 
         1.4297         0.39437        0.367056        0.411122 
        1.43585        0.390952        0.363328        0.406796 
        1.44198         0.38844        0.359667        0.401637 
        1.44809        0.383298        0.356063         0.39946 
        1.45423        0.379951        0.352496        0.394226 
        1.46036        0.376063        0.348983        0.390995 
        1.46649        0.373089        0.345518        0.388198 
        1.47263        0.368951        0.342097         0.38412 
        1.47877        0.364815        0.338724        0.380549 
        1.48491        0.361932        0.335392        0.377492 
        1.49104        0.357514        0.332111        0.372934 
        1.49718        0.354699        0.328872        0.370608 
        1.50333        0.351875        0.325671        0.366052 
        1.50947        0.348303        0.322519          0.3625 
         1.5156        0.344745        0.319414        0.360061 
        1.52172        0.341763        0.316349        0.356269 
        1.52787        0.338429        0.313319        0.352945 
          1.534        0.335277        0.310332        0.350263 
        1.54013        0.331629        0.307388         0.34702 
        1.54627        0.329362        0.304476        0.343636 
        1.55241        0.325783        0.301602        0.340553 
        1.55855        0.322441        0.298769        0.337519 
        1.56467         0.32113         0.29598        0.334856 
         1.5708        0.317324        0.293219        0.331457 
        1.57695        0.314702        0.290489        0.328214 
        1.58308        0.311514          0.2878        0.325921 
        1.58922        0.309046        0.285144         0.32323 
        1.59535        0.306005        0.282522         0.32014 
         1.6015        0.303228        0.279929        0.316976 
        1.60764        0.300846        0.277371        0.314663 
        1.61376        0.297312        0.274851        0.312722 
        1.61989        0.295411        0.272361        0.309749 
        1.62604        0.292966        0.269896        0.306901 
        1.63218         0.29055        0.267464        0.304419 
        1.63831        0.288078        0.265067        0.301841 
        1.64444        0.285298        0.262698        0.298972 
        1.65059        0.282881        0.260353        0.296434 
        1.65673         0.28051        0.258039        0.294144 
        1.66285        0.278373         0.25576        0.291742 
        1.66898        0.276079        0.253507        0.289093 
        1.67512        0.273014        0.251277        0.286666 
        1.68127        0.270569        0.249072        0.284443 
         1.6874        0.269151        0.246899        0.282334 
        1.69353        0.266193        0.244753        0.280096 
        1.69967        0.264606        0.242627        0.277358 
        1.70581        0.261626        0.240527        0.275015 
        1.71193        0.259763         0.23846        0.273038 
        1.71806        0.257274        0.236413        0.270672 
        1.72421        0.255745        0.234387        0.268792 
        1.73035        0.253158        0.232386        0.266589 
        1.73649        0.251627        0.230409        0.263878 
        1.74262        0.249283        0.228457        0.261856 
        1.74876        0.247106        0.226526        0.260239 
        1.75489        0.245378        0.224621        0.258263 
        1.76101        0.242815        0.222739        0.255913 
        1.76715        0.241068        0.220876        0.254133 
        1.77329        0.238913        0.219032        0.252342 
        1.77943        0.236965        0.217208        0.250214 
        1.78557        0.235575        0.215408        0.247974 
        1.79171        0.233598        0.213628        0.245819 
        1.79785        0.231646        0.211868        0.244031 
        1.80399        0.229746        0.210128        0.242486 
        1.81012        0.228096        0.208409         0.24008 
        1.81625        0.226151        0.206711         0.23807 
        1.82239        0.224588        0.205029        0.236916 
        1.82853        0.222236        0.203367        0.235305 
        1.83466         0.22087        0.201725        0.233249 
        1.84078        0.218987        0.200102        0.231285 
        1.84692        0.217256        0.198495        0.229821 
        1.85306        0.216049        0.196904        0.227846 
         1.8592        0.213924        0.195332        0.225739 
        1.86533        0.212631        0.193779        0.224356 
        1.87147        0.210812        0.192241        0.222833 
