# k  (h/Mpc)    Pcb(k)  (Mpc/h)^3    Pcb_linear(k) (Mpc/h)^3    Pcb_NL(k) (Mpc/h)^3   ShotnoiseSubtracted = false
     0.00783031         137.134          138.32         137.685 
       0.013688         172.664         173.346         172.592 
       0.019231         177.761         177.952         177.116 
      0.0249154         165.992         166.552         166.033 
      0.0312784         145.419         145.481         145.374 
      0.0375637          124.21         124.008         124.018 
      0.0433917         107.392         107.317         107.411 
      0.0492413         94.9302         94.7811         94.8864 
      0.0555754         85.4514         85.4586          85.501 
      0.0619321         79.2734         79.0989         79.0996 
       0.067871         74.3038         74.3711         74.3197 
      0.0738098          69.543          69.659         69.5729 
      0.0800417         63.8936         64.0663          63.995 
      0.0862327          57.748         57.8285         57.7991 
      0.0921407         51.6632         51.6766          51.684 
      0.0982031         45.7259         45.7677         45.8158 
       0.104506         40.6814         40.5922         40.6617 
       0.110769         36.7563         36.6829         36.7403 
       0.116806         34.0136         34.0302         34.0649 
       0.122832         32.2489         32.2182         32.2417 
       0.129052         30.8015          30.846         30.8511 
       0.135211         29.5286         29.6013         29.5979 
       0.141259         28.1779          28.211         28.2122 
       0.147318         26.5423         26.5325         26.5518 
       0.153489         24.5581         24.5732         24.5935 
       0.159709         22.5074         22.5107         22.5507 
       0.165845          20.661         20.5905         20.6532 
       0.171974         18.9484         18.9458         19.0061 
       0.178125         17.6681         17.6468         17.7148 
       0.184229         16.7368          16.697         16.7595 
        0.19034         15.9857         16.0087         16.0624 
       0.196428         15.4765          15.472         15.5109 
       0.202534         15.0167         14.9678         15.0061 
       0.208729         14.4086            14.4         14.4379 
       0.214876         13.7148         13.7376         13.7907 
       0.220989         13.0283         12.9903         13.0511 
       0.227147          12.184         12.1962         12.2597 
        0.23329         11.4212         11.4266         11.5009 
       0.239377         10.7471         10.7413         10.8199 
       0.245482          10.159         10.1636         10.2341 
       0.251667          9.7232         9.69629         9.77067 
       0.257832         9.34012          9.3295         9.39937 
       0.263955         9.04375         9.02859         9.09292 
       0.270079         8.76849         8.75272         8.81387 
        0.27624         8.50385         8.46792         8.52571 
       0.282372         8.19154         8.15842         8.22197 
        0.28843          7.8376         7.82509         7.89147 
       0.294538         7.48804         7.47174         7.54097 
       0.300721         7.15379         7.11609         7.19013 
        0.30691         6.80112          6.7812         6.85667 
       0.313033         6.50918         6.48548          6.5586 
       0.319153         6.22329         6.23031         6.30561 
       0.325316         6.05014         6.01184         6.08806 
        0.33145          5.8531         5.82306         5.89433 
       0.337538          5.6781          5.6524         5.72075 
       0.343633         5.50215         5.48621         5.55337 
       0.349808         5.33859         5.31492         5.38499 
       0.355968         5.16423         5.13711         5.21542 
       0.362074         4.97758         4.95596         5.03053 
       0.368217         4.79735         4.77332         4.84223 
       0.374374         4.60766         4.59611         4.66992 
       0.380519         4.45621         4.43076         4.50186 
       0.386598          4.3113         4.28123         4.35404 
       0.392688         4.18368         4.14649         4.21849 
        0.39888         4.05269         4.02262           4.094 
       0.405048         3.94057         3.90881         3.97518 
       0.411186         3.83458         3.80133         3.87386 
       0.417313         3.72128         3.69614         3.76605 
       0.423458          3.6228         3.59068         3.66149 
       0.429607         3.50874         3.48503         3.55339 
       0.435692         3.40539         3.38088         3.45165 
       0.441815         3.30392         3.27818         3.35245 
       0.447964         3.21569         3.17923         3.25065 
       0.454126          3.1106         3.08547         3.15584 
       0.460267         3.02266         2.99801         3.07014 
       0.466387         2.93759         2.91689         2.98531 
        0.47254          2.8643         2.84041         2.90926 
       0.478662         2.79489         2.76798         2.83509 
       0.484765         2.72021         2.69835         2.76543 
       0.490885         2.65388         2.63027         2.70205 
       0.497035         2.59716         2.56291         2.63548 
       0.503198         2.52442         2.49631         2.56298 
       0.509342         2.46345         2.43133         2.49944 
       0.515458         2.39515         2.36859         2.43971 
       0.521598         2.33563          2.3079         2.37354 
       0.527764         2.27235         2.24952         2.31477 
       0.533884          2.2257         2.19433         2.25927 
           0.54         2.17062         2.14191          2.2056 
       0.546137         2.12247         2.09158         2.15688 
       0.552299         2.07232         2.04287         2.10328 
       0.558452         2.02002         1.99567         2.05715 
       0.564573         1.97801         1.94993         2.01607 
       0.570708         1.93316         1.90523         1.96968 
       0.576825         1.88685         1.86172         1.92464 
       0.582926          1.8491         1.81939          1.8833 
       0.589034          1.7982         1.77817         1.84416 
       0.595184         1.76052         1.73801         1.79711 
       0.601379           1.722         1.69905          1.7632 
       0.607522         1.68885         1.66188         1.72456 
       0.613639         1.65715         1.62619         1.68764 
       0.619772         1.61532         1.59157         1.65496 
       0.625918          1.5838         1.55791         1.61858 
       0.632068         1.55411         1.52516         1.58455 
       0.638161         1.51912         1.49358           1.553 
         0.6443         1.48801         1.46262         1.52057 
       0.650464         1.45409         1.43236         1.49292 
       0.656582         1.42835         1.40313         1.46248 
       0.662703         1.40006         1.37467         1.43278 
       0.668861         1.37579         1.34683         1.40672 
       0.675024          1.3452         1.31975         1.37814 
       0.681124         1.31598         1.29373         1.35089 
       0.687237         1.29432         1.26843         1.32317 
       0.693381          1.2702         1.24375         1.29707 
       0.699536         1.23982         1.21972         1.27376 
       0.705665         1.21791         1.19645         1.25402 
       0.711789         1.19781         1.17381         1.23007 
       0.717957         1.17298         1.15158         1.20573 
        0.72409         1.15243         1.13003         1.18451 
       0.730186         1.13039         1.10912         1.16183 
       0.736317         1.11432         1.08861         1.14046 
       0.742472         1.09294         1.06855         1.12321 
       0.748622         1.07179           1.049         1.10378 
        0.75476         1.05033         1.03001         1.08212 
       0.760888         1.03133         1.01153          1.0638 
       0.767043         1.01881        0.993449         1.04621 
       0.773185        0.997414        0.975867         1.02917 
       0.779291        0.980724        0.958823         1.01159 
       0.785407        0.964195         0.94217        0.993833 
       0.791564        0.948361        0.925813        0.977364 
       0.797719        0.933531        0.909853        0.959288 
       0.803834        0.918184        0.894369        0.944372 
       0.809972        0.901847        0.879186        0.930752 
       0.816124        0.885853        0.864321        0.913692 
       0.822261        0.869917        0.849837        0.898515 
       0.828378        0.857724        0.835729        0.884435 
       0.834502        0.845214         0.82193        0.869428 
       0.840667        0.828388        0.808355        0.856445 
       0.846816        0.815504        0.795127        0.845102 
       0.852925        0.805297        0.782281         0.83058 
       0.859047        0.792199        0.769695        0.819442 
       0.865192        0.778135        0.757348        0.805622 
       0.871341        0.765841        0.745267        0.792807 
       0.877463        0.756594        0.733506        0.780127 
       0.883569        0.742997        0.722032        0.769557 
       0.889708        0.731648        0.710746        0.757965 
       0.895864        0.720266        0.699675        0.746006 
       0.902008        0.708715        0.688864        0.735069 
       0.908149        0.697992        0.678289         0.72449 
       0.914301        0.685079        0.667921        0.713129 
       0.920448        0.676155         0.65778        0.702476 
       0.926574         0.66591        0.647886        0.692999 
       0.932687        0.655779        0.638217        0.681506 
       0.938823         0.64873        0.628712        0.674244 
       0.944975        0.638544        0.619381        0.662391 
       0.951105        0.629717        0.610273        0.653228 
       0.957225        0.622061        0.601365        0.645291 
       0.963368        0.612339        0.592606        0.635439 
       0.969511         0.60239        0.584022        0.626885 
       0.975621          0.5934        0.575655        0.616569 
       0.981748        0.587322        0.567432        0.608381 
       0.987916        0.578263        0.559319        0.601905 
        0.99406        0.569626        0.551396        0.594129 
        1.00019        0.563154        0.543643        0.585918 
        1.00632        0.553424        0.536047        0.577092 
        1.01246        0.545915        0.528586        0.569171 
        1.01859         0.53953         0.52128         0.56235 
        1.02471        0.531722        0.514122        0.554974 
        1.03085        0.526293        0.507075        0.546487 
        1.03698        0.517902        0.500175        0.539154 
        1.04314        0.511423        0.493376        0.532585 
        1.04929        0.503937        0.486719        0.525835 
        1.05541        0.498446        0.480212        0.519755 
        1.06154        0.490931        0.473809         0.51304 
        1.06769        0.484067        0.467514         0.50642 
        1.07382        0.478372        0.461354        0.499895 
        1.07993        0.471357        0.455319        0.493524 
        1.08607        0.467295        0.449368        0.487797 
        1.09222        0.460048        0.443518        0.480932 
        1.09836        0.455821         0.43778        0.475528 
        1.10449        0.449852         0.43215        0.469734 
        1.11063        0.442819        0.426613        0.463186 
        1.11677        0.436833        0.421176        0.458346 
         1.1229        0.432292        0.415843        0.452756 
        1.12903        0.426404        0.410599        0.447119 
        1.13518        0.421933        0.405441        0.441764 
        1.14131        0.416154        0.400375        0.436652 
        1.14745         0.40938        0.395399        0.430597 
        1.15359        0.405804        0.390506        0.426245 
        1.15973        0.399819        0.385695        0.421519 
        1.16584        0.396799        0.380986        0.415921 
        1.17197        0.391545         0.37635        0.411429 
        1.17811        0.387455        0.371777        0.407025 
        1.18424        0.383604        0.367294        0.401566 
        1.19038        0.377961        0.362872        0.397126 
        1.19652        0.372602        0.358524        0.392962 
        1.20267         0.36979        0.354249        0.387491 
        1.20881        0.364823        0.350044        0.383747 
        1.21495        0.361516        0.345914        0.380366 
        1.22108         0.35685        0.341852        0.375177 
         1.2272          0.3533        0.337865        0.370585 
        1.23334        0.348709        0.333933         0.36686 
        1.23949        0.344876        0.330054        0.363292 
        1.24562        0.340992        0.326248        0.359196 
        1.25174        0.337449        0.322507        0.354825 
        1.25789        0.334126        0.318815        0.350971 
        1.26402        0.329158        0.315186        0.347228 
        1.27014        0.325921        0.311624        0.343302 
        1.27628        0.322979        0.308106        0.339443 
        1.28244        0.318188        0.304636        0.335942 
        1.28858        0.315321        0.301224        0.331919 
        1.29471        0.312746        0.297872        0.328746 
        1.30084        0.308521        0.294574        0.326007 
        1.30697        0.305223        0.291322        0.322266 
        1.31312        0.300961        0.288114        0.318703 
        1.31925        0.298313        0.284964        0.315761 
        1.32537        0.295622        0.281866        0.312536 
        1.33151        0.292848        0.278802        0.309255 
        1.33765        0.289613        0.275786        0.306056 
        1.34378        0.285862         0.27282        0.302951 
        1.34992         0.28324        0.269896        0.299931 
        1.35606        0.280279        0.267009        0.296407 
         1.3622        0.277422         0.26417        0.293549 
        1.36833        0.274344        0.261379        0.290914 
        1.37445        0.270821        0.258629        0.288146 
        1.38059        0.268339        0.255911        0.285008 
        1.38675        0.266922        0.253225        0.282015 
        1.39288        0.263573        0.250589        0.279158 
        1.39901        0.260884        0.247991        0.276584 
        1.40515        0.258623        0.245425        0.273728 
         1.4113        0.255295        0.242895        0.271342 
        1.41742        0.252841        0.240412        0.269281 
        1.42355        0.251052        0.237958        0.265558 
         1.4297        0.247866        0.235531        0.263808 
        1.43585        0.245682         0.23314        0.261032 
        1.44198        0.243786         0.23079        0.257722 
        1.44809        0.240813        0.228478        0.256325 
        1.45423        0.238726        0.226189        0.252966 
        1.46036        0.236207        0.223935        0.250893 
        1.46649        0.234461        0.221711        0.249098 
        1.47263        0.231885        0.219516        0.246481 
        1.47877        0.229097        0.217352         0.24419 
        1.48491        0.227389        0.215213        0.242228 
        1.49104         0.22456        0.213108        0.239303 
        1.49718        0.222606         0.21103        0.237811 
        1.50333        0.221075        0.208976        0.234887 
        1.50947        0.218652        0.206953        0.232608 
         1.5156        0.216475        0.204961        0.231043 
        1.52172        0.214646        0.202994         0.22861 
        1.52787        0.212555         0.20105        0.226477 
          1.534        0.210363        0.199133        0.224756 
        1.54013        0.208346        0.197244        0.222675 
        1.54627        0.206898        0.195375        0.220503 
        1.55241        0.204525        0.193531        0.218525 
        1.55855        0.202485        0.191713        0.216578 
        1.56467         0.20159        0.189924         0.21487 
         1.5708        0.199279        0.188152        0.212689 
        1.57695        0.197466          0.1864        0.210608 
        1.58308        0.195556        0.184675        0.209137 
        1.58922        0.193957         0.18297         0.20741 
        1.59535        0.192102        0.181288        0.205427 
         1.6015        0.190255        0.179624        0.203397 
        1.60764        0.188811        0.177983        0.201912 
        1.61376        0.186671        0.176366        0.200666 
        1.61989        0.185357        0.174768        0.198759 
        1.62604        0.183879        0.173186        0.196931 
        1.63218        0.182252        0.171625        0.195339 
        1.63831         0.18071        0.170087        0.193685 
        1.64444        0.179068        0.168568        0.191844 
        1.65059        0.177567        0.167063        0.190215 
        1.65673        0.176056        0.165578        0.188746 
        1.66285        0.174768        0.164115        0.187204 
        1.66898        0.173174         0.16267        0.185504 
        1.67512        0.171352        0.161239        0.183947 
        1.68127        0.169781        0.159824        0.182521 
         1.6874        0.168812         0.15843        0.181167 
        1.69353        0.166928        0.157052        0.179731 
        1.69967        0.166057        0.155688        0.177974 
        1.70581        0.164068        0.154341        0.176471 
        1.71193        0.162924        0.153015        0.175203 
        1.71806        0.161324        0.151701        0.173684 
        1.72421        0.160475        0.150401        0.172478 
        1.73035        0.158823        0.149117        0.171064 
        1.73649        0.157771        0.147848        0.169325 
        1.74262        0.156338        0.146596        0.168027 
        1.74876        0.155003        0.145357         0.16699 
        1.75489         0.15396        0.144134        0.165721 
        1.76101        0.152372        0.142927        0.164214 
        1.76715        0.151189        0.141731        0.163072 
        1.77329        0.149749        0.140548        0.161922 
        1.77943        0.148645        0.139378        0.160557 
        1.78557        0.147777        0.138223        0.159119 
        1.79171        0.146525         0.13708        0.157737 
        1.79785        0.145325        0.135951        0.156589 
        1.80399        0.144115        0.134834        0.155598 
        1.81012        0.143091        0.133732        0.154054 
        1.81625         0.14183        0.132642        0.152764 
        1.82239        0.140746        0.131563        0.152024 
        1.82853        0.139482        0.130496         0.15099 
        1.83466        0.138525        0.129442        0.149671 
        1.84078        0.137384        0.128401        0.148411 
        1.84692        0.136198         0.12737        0.147471 
        1.85306        0.135462        0.126349        0.146204 
         1.8592        0.134101         0.12534        0.144852 
        1.86533        0.133299        0.124344        0.143964 
        1.87147        0.132172        0.123356        0.142987 
