# k  (h/Mpc)    Pcb(k)  (Mpc/h)^3    Pcb_linear(k) (Mpc/h)^3    Pcb_NL(k) (Mpc/h)^3   ShotnoiseSubtracted = false
     0.00783031         7916.29         8013.94         7977.82 
       0.013688           10084         10025.8         9970.04 
       0.019231           10303         10286.4           10216 
      0.0249154         9481.71         9624.72         9560.72 
      0.0312784         8348.17         8405.61          8352.3 
      0.0375637         7174.22          7164.2         7119.44 
      0.0433917         6132.55         6199.55         6154.95 
      0.0492413         5460.24         5475.12         5434.99 
      0.0555754         4844.16         4936.43         4899.52 
      0.0619321         4594.17         4568.97         4531.86 
       0.067871         4225.66          4295.8         4260.11 
      0.0738098         3952.58         4023.57         3967.09 
      0.0800417         3603.63         3700.48         3650.83 
      0.0862327         3283.88         3340.15         3317.79 
      0.0921407         2973.07         2984.79         2971.07 
      0.0982031          2623.7         2643.48         2660.77 
       0.104506         2391.62         2344.54         2385.62 
       0.110769         2167.19         2118.73          2147.1 
       0.116806          2003.6         1965.51         1991.12 
       0.122832         1907.63         1860.85         1888.69 
       0.129052         1792.66         1781.59         1804.81 
       0.135211         1719.93          1709.7         1731.28 
       0.141259         1657.06          1629.4         1659.62 
       0.147318         1569.54         1532.44         1577.97 
       0.153489         1444.34         1419.28         1453.83 
       0.159709         1349.16         1300.15         1352.41 
       0.165845         1268.56         1189.24         1267.35 
       0.171974         1173.26         1094.25         1172.14 
       0.178125         1105.25         1019.22         1112.03 
       0.184229         1053.73         964.363         1051.79 
        0.19034         988.064         924.605         1007.34 
       0.196428         973.903         893.612         965.558 
       0.202534         948.358         864.491         938.388 
       0.208729         906.016         831.692         900.135 
       0.214876         861.345         793.438         878.331 
       0.220989         832.386         750.272         843.285 
       0.227147          784.87         704.408         802.408 
        0.23329         747.805         659.956         769.283 
       0.239377         725.033         620.377         731.675 
       0.245482          674.62         587.014         691.709 
       0.251667          665.36         560.021         670.075 
       0.257832         641.646         538.837         644.754 
       0.263955          621.03         521.457         624.116 
       0.270079         600.115         505.524         607.173 
        0.27624         593.057         489.075         588.485 
       0.282372         569.263         471.199         573.537 
        0.28843         553.578         451.947         556.112 
       0.294538          526.95         431.539         539.723 
       0.300721         521.701         410.997         522.876 
        0.30691         496.575         391.655         507.591 
       0.313033         485.167         374.575         487.611 
       0.319153         468.391         359.838         472.751 
       0.325316         455.297          347.22         461.507 
        0.33145         441.798         336.317         444.887 
       0.337538         435.653          326.46         434.341 
       0.343633         421.838         316.862         429.189 
       0.349808         408.479         306.969         420.861 
       0.355968         403.499         296.699         412.651 
       0.362074         394.532         286.236         402.105 
       0.368217         383.579         275.688         389.025 
       0.374374         368.872         265.453         379.575 
       0.380519         364.228         255.903         369.287 
       0.386598         355.087         247.267         362.644 
       0.392688         351.553         239.485         352.591 
        0.39888         341.883          232.33         345.127 
       0.405048         334.357         225.757         340.453 
       0.411186         327.406         219.549         331.679 
       0.417313         321.481         213.474         323.965 
       0.423458         315.126         207.383         318.661 
       0.429607         308.224         201.281         312.518 
       0.435692         300.261         195.266         305.785 
       0.441815         297.802         189.334         302.453 
       0.447964         291.722         183.619         296.048 
       0.454126         281.216         178.204          287.73 
       0.460267         277.651         173.153         285.226 
       0.466387         274.455         168.467         279.251 
        0.47254         268.376          164.05         274.708 
       0.478662         266.989         159.867         269.501 
       0.484765         258.841         155.846         263.378 
       0.490885         255.449         151.914         260.161 
       0.497035         251.336         148.023         256.896 
       0.503198         245.641         144.177         252.767 
       0.509342         243.075         140.424         249.404 
       0.515458          239.87           136.8         246.736 
       0.521598          235.68         133.295         241.371 
       0.527764         231.945         129.923         237.608 
       0.533884         228.941         126.736         234.423 
           0.54         225.578         123.708         230.682 
       0.546137          224.09         120.801         228.081 
       0.552299         219.753         117.987         223.899 
       0.558452          216.94         115.261         220.923 
       0.564573         213.393          112.62          218.96 
       0.570708         209.602         110.038         216.245 
       0.576825         206.837         107.525         211.981 
       0.582926         203.964          105.08         209.433 
       0.589034         201.415           102.7         207.309 
       0.595184         199.138          100.38         203.431 
       0.601379         197.127         98.1298         202.165 
       0.607522         192.982          95.983         199.015 
       0.613639         191.997         93.9218         197.075 
       0.619772         187.813         91.9224         194.665 
       0.625918         186.176         89.9783         192.361 
       0.632068         183.847         88.0868         189.313 
       0.638161         182.599          86.263         188.296 
         0.6443         179.876         84.4746         185.887 
       0.650464         177.911         82.7272         182.407 
       0.656582         176.134         81.0389         181.053 
       0.662703         173.977         79.3951         179.113 
       0.668861         171.301         77.7871         177.167 
       0.675024         169.233         76.2233         174.906 
       0.681124         168.385         74.7207         173.111 
       0.687237         165.529         73.2593         171.084 
       0.693381         163.242         71.8336         169.082 
       0.699536         162.059         70.4459         167.581 
       0.705665         161.818          69.102         166.636 
       0.711789         158.321         67.7944         164.167 
       0.717957         157.767         66.5107          162.59 
        0.72409         155.598         65.2655         161.713 
       0.730186         153.191         64.0581         160.109 
       0.736317         152.275         62.8738         157.977 
       0.742472         151.203         61.7147         156.547 
       0.748622          149.89          60.586         154.726 
        0.75476         148.513         59.4888         153.399 
       0.760888         146.391         58.4215         151.409 
       0.767043         145.617         57.3774         150.585 
       0.773185         144.036          56.362         149.641 
       0.779291           141.9         55.3776         147.955 
       0.785407         141.233         54.4158          146.21 
       0.791564         139.768         53.4711         145.261 
       0.797719         137.812         52.5493         144.416 
       0.803834         137.141          51.655         142.611 
       0.809972         135.445         50.7781         141.447 
       0.816124         135.217         49.9195         140.493 
       0.822261         133.578          49.083         139.111 
       0.828378         132.288         48.2682         137.435 
       0.834502         131.947         47.4712         136.644 
       0.840667         129.936         46.6871         135.936 
       0.846816         128.752         45.9231         134.563 
       0.852925         127.896         45.1812         133.407 
       0.859047         126.314         44.4543         132.326 
       0.865192         125.592         43.7412         131.385 
       0.871341         124.394         43.0434         130.064 
       0.877463          123.25         42.3642         129.323 
       0.883569         122.404         41.7015         128.486 
       0.889708         121.499         41.0497         127.414 
       0.895864          120.28         40.4102         126.709 
       0.902008         119.485         39.7859         125.301 
       0.908149         118.802         39.1751         124.286 
       0.914301          117.48         38.5763         123.594 
       0.920448         116.691         37.9906         122.755 
       0.926574         115.908         37.4191         121.431 
       0.932687         115.425         36.8607         120.567 
       0.938823         113.687         36.3118         119.873 
       0.944975         112.772         35.7728         119.054 
       0.951105         112.138         35.2468         118.068 
       0.957225         110.822         34.7323          117.31 
       0.963368         110.144         34.2264         116.073 
       0.969511         109.791         33.7306         115.425 
       0.975621         109.208         33.2474         115.541 
       0.981748         108.349         32.7725          114.33 
       0.987916         107.115         32.3039         113.664 
        0.99406         106.509         31.8463         112.661 
        1.00019         105.789         31.3985         111.707 
        1.00632         105.055         30.9598         110.983 
        1.01246         104.235         30.5289         110.057 
        1.01859         102.965         30.1069         109.745 
        1.02471          102.92         29.6935         109.334 
        1.03085         101.899         29.2865         108.366 
        1.03698         101.222          28.888         107.459 
        1.04314         100.303         28.4953         106.898 
        1.04929         99.7084         28.1108          106.42 
        1.05541         98.9641          27.735         105.851 
        1.06154          98.453         27.3652         105.234 
        1.06769         98.0392         27.0016         104.569 
        1.07382         97.5088         26.6458         103.912 
        1.07993         96.7285         26.2973         103.232 
        1.08607         95.9465         25.9536         102.645 
        1.09222            95.5         25.6157         101.937 
        1.09836         94.7183         25.2843         101.193 
        1.10449         94.1234         24.9591         100.664 
        1.11063         93.4837         24.6393         99.7763 
        1.11677         93.0017         24.3253         99.2775 
         1.1229         92.0475         24.0173         98.9697 
        1.12903         91.2307         23.7144         98.2188 
        1.13518         91.4412         23.4165         97.6658 
        1.14131         90.6095         23.1239         97.0065 
        1.14745         89.7553         22.8365         96.5679 
        1.15359         89.3097          22.554         95.8818 
        1.15973         88.9009         22.2761         95.6964 
        1.16584         88.2094         22.0041         94.7864 
        1.17197         87.6575         21.7364         94.4457 
        1.17811          87.074         21.4723         93.9162 
        1.18424         86.5018         21.2133         93.4553 
        1.19038         86.0409         20.9579         92.8758 
        1.19652          85.596         20.7068         92.2734 
        1.20267         84.8471         20.4599         91.8125 
        1.20881         84.3645          20.217         91.3462 
        1.21495         83.7828         19.9785         90.6643 
        1.22108          83.311         19.7439         90.4478 
         1.2272         82.6305         19.5136         89.8291 
        1.23334         82.3048         19.2865         89.4904 
        1.23949         81.7288         19.0625         88.7412 
        1.24562          81.367         18.8427         88.3412 
        1.25174         80.8351         18.6266         87.9472 
        1.25789          80.442         18.4134         87.4599 
        1.26402         80.0507         18.2038         87.0406 
        1.27014         79.2626         17.9981         86.8841 
        1.27628         79.0354         17.7949         86.3996 
        1.28244         78.3176         17.5944           85.55 
        1.28858          78.008         17.3974         85.1294 
        1.29471         77.6217         17.2038         84.9009 
        1.30084         77.0792         17.0133         84.2542 
        1.30697         76.6087         16.8255         83.9292 
        1.31312         76.2224         16.6402         83.5829 
        1.31925         75.8385         16.4583         83.0765 
        1.32537         75.4817         16.2793         82.7129 
        1.33151         74.7298         16.1024         82.2489 
        1.33765         74.3749         15.9282         81.8814 
        1.34378         73.9311         15.7569          81.465 
        1.34992         73.6813         15.5881         81.0844 
        1.35606         73.2446         15.4213         80.6316 
         1.3622         72.5456         15.2573         80.2701 
        1.36833         72.4363         15.0961         79.7976 
        1.37445         71.9265         14.9373         79.3989 
        1.38059         71.3977         14.7803         79.1767 
        1.38675         71.0155         14.6252         78.5726 
        1.39288          70.588         14.4729         78.3713 
        1.39901         70.4215         14.3229         77.9937 
        1.40515         69.9977         14.1747         77.7169 
         1.4113         69.5122         14.0286          77.404 
        1.41742         69.3722         13.8851         76.8344 
        1.42355         68.7195         13.7434         76.4014 
         1.4297         68.4074         13.6033         76.0906 
        1.43585         67.9143         13.4651          75.771 
        1.44198         67.6628         13.3294         75.5179 
        1.44809         67.2975         13.1959         74.9743 
        1.45423         66.9193         13.0637         74.6659 
        1.46036         66.6454         12.9335         74.4028 
        1.46649         66.2223         12.8051         74.1489 
        1.47263         65.7925         12.6783         73.8113 
        1.47877         65.6012         12.5533         73.2498 
        1.48491         65.2431         12.4298         73.0872 
        1.49104          64.805         12.3082         72.7046 
        1.49718         64.3457         12.1882         72.3514 
        1.50333         64.0678         12.0695         71.9807 
        1.50947         63.7132         11.9527         71.6383 
         1.5156         63.4418         11.8376         71.3764 
        1.52172         63.0939         11.7241         71.1134 
        1.52787         62.9212         11.6118         70.7739 
          1.534         62.4945         11.5011         70.4743 
        1.54013          62.093         11.3919         70.1013 
        1.54627         61.8541          11.284         69.7926 
        1.55241         61.4057         11.1775         69.5339 
        1.55855         61.0832         11.0725         69.1139 
        1.56467          60.625         10.9692         68.8532 
         1.5708         60.5548         10.8668         68.6411 
        1.57695         60.2791         10.7657         68.3664 
        1.58308         59.7951          10.666         68.0791 
        1.58922         59.7041         10.5676         67.7246 
        1.59535         59.4577         10.4704         67.4055 
         1.6015         58.8705         10.3743         67.0709 
        1.60764         58.7218         10.2795         66.8682 
        1.61376         58.3237         10.1861         66.7404 
        1.61989         57.9893         10.0938         66.3496 
        1.62604         57.8375         10.0025          65.939 
        1.63218         57.6281         9.91234         65.6614 
        1.63831         57.2426          9.8235         65.4927 
        1.64444         56.9234         9.73572         65.2078 
        1.65059         56.5014         9.64881         64.7805 
        1.65673         56.3188         9.56306         64.5765 
        1.66285         56.0118         9.47858          64.413 
        1.66898         55.7637          9.3951          64.075 
        1.67512         55.4031         9.31247         63.8652 
        1.68127         55.0804         9.23075         63.5353 
         1.6874         54.9161          9.1502         63.1743 
        1.69353         54.5695         9.07065         63.0227 
        1.69967         54.3208         8.99187         62.8181 
        1.70581          54.187         8.91406         62.5335 
        1.71193         53.9075         8.83746         62.2595 
        1.71806         53.3802          8.7616          62.053 
        1.72421         53.2932         8.68649         61.7588 
        1.73035         52.9736         8.61234         61.5134 
        1.73649         52.5748         8.53907         61.3313 
        1.74262         52.5035         8.46672           61.01 
        1.74876         52.2411         8.39516         60.7176 
        1.75489         51.8904         8.32457         60.5007 
        1.76101         51.7258         8.25482          60.277 
        1.76715         51.3547         8.18578         59.9692 
        1.77329           51.11         8.11744          59.747 
        1.77943          50.876         8.04985          59.533 
        1.78557         50.7053         7.98313          59.209 
        1.79171         50.3864         7.91716         58.9633 
        1.79785         50.1832         7.85192         58.7883 
        1.80399          49.937         7.78743          58.578 
        1.81012         49.7459         7.72376         58.3432 
        1.81625         49.2883         7.66082         58.0837 
        1.82239         49.1599         7.59849         57.8631 
        1.82853          48.766         7.53688         57.7296 
        1.83466         48.6764         7.47602         57.4546 
        1.84078         48.2867         7.41589         57.1299 
        1.84692         48.0743         7.35633         57.0473 
        1.85306         47.8914         7.29735         56.8337 
         1.8592         47.5756         7.23911         56.5184 
        1.86533         47.4223         7.18154         56.3563 
        1.87147         47.1768         7.12453         56.1089 
