# k  (h/Mpc)    Pcb(k)  (Mpc/h)^3    Pcb_linear(k) (Mpc/h)^3    Pcb_NL(k) (Mpc/h)^3   ShotnoiseSubtracted = false
     0.00783031         1862.04         1880.73          1872.5 
       0.013688         2355.84         2355.12         2344.39 
       0.019231         2418.37         2417.06         2404.59 
      0.0249154         2245.52         2261.92         2253.32 
      0.0312784         1971.91          1975.6         1972.06 
      0.0375637          1688.4         1683.92         1681.86 
      0.0433917         1453.45         1457.23         1456.16 
      0.0492413         1288.38         1286.98         1286.35 
      0.0555754         1153.72         1160.38         1159.22 
      0.0619321         1080.18         1074.02         1072.51 
       0.067871         1005.18         1009.81         1007.79 
      0.0738098         940.305         945.827         942.407 
      0.0800417         861.504         869.884         866.977 
      0.0862327         781.122         785.184         784.125 
      0.0921407         701.311         701.652         701.446 
      0.0982031         619.252         621.419         623.276 
       0.104506         555.943         551.147         554.507 
       0.110769         502.518         498.066         500.508 
       0.116806         463.519         462.048         464.119 
       0.122832         441.112         437.446         439.582 
       0.129052         418.725         418.815         420.496 
       0.135211          401.34         401.914         403.531 
       0.141259         384.568         383.038         385.127 
       0.147318         363.331         360.247         363.542 
       0.153489         335.288         333.644         336.174 
       0.159709         308.872          305.64         309.345 
       0.165845         286.163         279.568         285.089 
       0.171974         261.826         257.236         262.526 
       0.178125         245.257         239.599         245.854 
       0.184229         233.082         226.703         232.739 
        0.19034         220.316         217.357         222.959 
       0.196428         215.109         210.071         214.662 
       0.202534         209.836         203.226         207.934 
       0.208729         200.524         195.515         200.102 
       0.214876         190.079         186.523         192.374 
       0.220989         182.375         176.375         182.712 
       0.227147         169.929         165.593         172.063 
        0.23329         160.153         155.144         162.513 
       0.239377          152.18         145.839         153.525 
       0.245482         142.773         137.996         145.014 
       0.251667         138.362         131.651         139.113 
       0.257832         133.274         126.671         133.823 
       0.263955         128.802         122.585         129.371 
       0.270079          124.86          118.84         125.442 
        0.27624         122.029         114.973         121.286 
       0.282372         117.537         110.771         117.454 
        0.28843         112.449         106.245         113.077 
       0.294538         107.596         101.447         108.558 
       0.300721         104.118         96.6182          104.15 
        0.30691         98.8525         92.0713         99.7389 
       0.313033         95.1337         88.0561         95.4921 
       0.319153          90.449         84.5915         92.1895 
       0.325316         88.8773         81.6253         89.3438 
        0.33145         85.6906         79.0621          86.363 
       0.337538         83.6744          76.745         83.8281 
       0.343633         80.9741         74.4887          81.652 
       0.349808         78.7045          72.163         79.5198 
       0.355968           76.46         69.7487         77.5639 
       0.362074         73.8866         67.2892         74.9282 
       0.368217         71.4777         64.8094         72.0723 
       0.374374         69.0335         62.4033         69.9346 
       0.380519         67.0674         60.1583         67.5318 
       0.386598         65.0782         58.1281         65.5555 
       0.392688         63.5939         56.2987         63.7551 
        0.39888          61.699         54.6168         61.8894 
       0.405048         60.2453         53.0715         60.2186 
       0.411186         58.8264         51.6123          59.077 
       0.417313          56.948         50.1841         57.3324 
       0.423458         55.5071         48.7522         56.0081 
       0.429607         53.9496         47.3178         54.4682 
       0.435692         52.2728         45.9037         53.1541 
       0.441815         51.2921         44.5092         52.0096 
       0.447964         50.3016         43.1657         50.4521 
       0.454126         48.2381         41.8928         49.0375 
       0.460267         47.3376         40.7053         48.0224 
       0.466387         45.9613         39.6038         46.7094 
        0.47254         45.2235         38.5654         45.7424 
       0.478662         44.3858         37.5821         44.6705 
       0.484765         43.1111         36.6367         43.5863 
       0.490885         42.1321         35.7123         42.9003 
       0.497035         41.5073         34.7976         42.0553 
       0.503198         40.4061         33.8935         40.8929 
       0.509342         39.3505         33.0112         40.1026 
       0.515458         38.4838         32.1593         39.4531 
       0.521598         37.7928         31.3353         38.2751 
       0.527764         36.9745         30.5427         37.3086 
       0.533884            36.3         29.7934         36.5702 
           0.54         35.5022         29.0815          35.838 
       0.546137         34.9075         28.3982          35.256 
       0.552299         34.3063         27.7368         34.3608 
       0.558452         33.2514          27.096         33.6771 
       0.564573         32.7583          26.475         33.2276 
       0.570708         32.2112         25.8681         32.5708 
       0.576825         31.3872         25.2774         31.9268 
       0.582926         30.7993         24.7026         31.3552 
       0.589034         29.9559          24.143         30.8653 
       0.595184         29.5535         23.5977         30.0976 
       0.601379         28.9919         23.0686         29.7134 
       0.607522         28.4404          22.564         29.0387 
       0.613639         28.1447         22.0794         28.5265 
       0.619772         27.4048         21.6094         28.0811 
       0.625918         27.2245         21.1524         27.6265 
       0.632068         26.7675         20.7077         27.0592 
       0.638161         26.1686          20.279         26.6046 
         0.6443         25.6428         19.8585         26.1002 
       0.650464         25.1644         19.4478         25.7602 
       0.656582         24.9883         19.0509         25.3308 
       0.662703         24.4986         18.6644         24.8489 
       0.668861         24.0265         18.2864         24.5411 
       0.675024         23.5837         17.9188         24.0261 
       0.681124         23.1734         17.5656         23.6461 
       0.687237         22.7687          17.222         23.2204 
       0.693381         22.5428         16.8869         22.8463 
       0.699536         21.9589         16.5606         22.5537 
       0.705665         21.8359         16.2447         22.2813 
       0.711789         21.3597         15.9373           21.83 
       0.717957         21.0549         15.6355         21.5191 
        0.72409         20.7251         15.3428         21.2448 
       0.730186          20.436          15.059         20.8795 
       0.736317         20.1941         14.7806         20.5584 
       0.742472         19.8409         14.5081         20.3526 
       0.748622          19.604         14.2427         19.9892 
        0.75476         19.2166         13.9848         19.6967 
       0.760888         18.9594         13.7339         19.4501 
       0.767043         18.7173         13.4885         19.2061 
       0.773185         18.3532         13.2497         18.9231 
       0.779291         18.2409         13.0183         18.6929 
       0.785407         18.0001         12.7922          18.402 
       0.791564         17.6611         12.5701         18.1638 
       0.797719         17.2951         12.3534         17.8995 
       0.803834         17.2407         12.1432         17.6303 
       0.809972         17.0656         11.9371         17.4691 
       0.816124         16.6492         11.7352         17.1874 
       0.822261         16.4887         11.5386         16.9463 
       0.828378         16.3045          11.347         16.7302 
       0.834502         16.1325         11.1597         16.5666 
       0.840667         15.8892         10.9754         16.3102 
       0.846816         15.5954         10.7958         16.1266 
       0.852925         15.4466         10.6213         16.0075 
       0.859047         15.2618         10.4505         15.7452 
       0.865192          15.106         10.2828         15.5424 
       0.871341          14.962         10.1188         15.3939 
       0.877463         14.6893         9.95911         15.1814 
       0.883569         14.4827         9.80331          15.011 
       0.889708         14.2524         9.65009         14.8204 
       0.895864         14.1461         9.49976         14.6255 
       0.902008         14.0237         9.35298          14.484 
       0.908149         13.8571         9.20941         14.3137 
       0.914301         13.7242         9.06863         14.2061 
       0.920448         13.4589         8.93094         13.9702 
       0.926574          13.334          8.7966         13.8198 
       0.932687         13.1851         8.66533         13.6063 
       0.938823         13.0041         8.53628         13.4957 
       0.944975           12.84         8.40958         13.3518 
       0.951105         12.7247         8.28592         13.1523 
       0.957225         12.6138         8.16497          13.081 
       0.963368         12.4621         8.04605         12.9018 
       0.969511         12.3449          7.9295         12.7789 
       0.975621         12.2127          7.8159         12.6206 
       0.981748         12.0531         7.70425         12.5046 
       0.987916         11.9519          7.5941         12.3558 
        0.99406         11.7812         7.48652         12.2374 
        1.00019         11.5964         7.38126          12.128 
        1.00632         11.5696         7.27813         11.9979 
        1.01246         11.4385         7.17683         11.9201 
        1.01859         11.2559         7.07763         11.7599 
        1.02471         11.1905         6.98044         11.5992 
        1.03085         11.0744         6.88476         11.5057 
        1.03698         10.8939         6.79108         11.4059 
        1.04314         10.8288         6.69876         11.2717 
        1.04929         10.6809         6.60838         11.1783 
        1.05541         10.5571         6.52003          11.087 
        1.06154         10.4771          6.4331         10.9557 
        1.06769         10.4181         6.34762         10.8497 
        1.07382         10.2664         6.26398         10.7564 
        1.07993         10.1781         6.18205         10.6498 
        1.08607         10.0796         6.10125         10.5431 
        1.09222         9.98511         6.02182         10.4493 
        1.09836         9.86355         5.94391         10.3254 
        1.10449           9.783         5.86747         10.2347 
        1.11063         9.67501          5.7923         10.1554 
        1.11677         9.61906         5.71847         10.0491 
         1.1229         9.54198         5.64607         9.97252 
        1.12903          9.4228         5.57486         9.90945 
        1.13518         9.30779         5.50483         9.80266 
        1.14131         9.23287         5.43605         9.70083 
        1.14745         9.14378         5.36848          9.6005 
        1.15359         9.08041         5.30206          9.5266 
        1.15973         8.99447         5.23673         9.43932 
        1.16584         8.85678          5.1728         9.38517 
        1.17197         8.80336         5.10986         9.30288 
        1.17811         8.75006         5.04777         9.19495 
        1.18424         8.66381         4.98689         9.12852 
        1.19038         8.61762         4.92685         9.04563 
        1.19652         8.51715         4.86783         8.96904 
        1.20267         8.41954         4.80977         8.88661 
        1.20881         8.39322         4.75268         8.83948 
        1.21495         8.31787         4.69661         8.75536 
        1.22108         8.21044         4.64146         8.68618 
         1.2272         8.15348         4.58732         8.59311 
        1.23334         8.05936         4.53393         8.54129 
        1.23949         7.99205         4.48127         8.47561 
        1.24562         7.94799         4.42959         8.39317 
        1.25174         7.88194         4.37881          8.3319 
        1.25789         7.81729         4.32867         8.25865 
        1.26402         7.77451         4.27941         8.18448 
        1.27014         7.69938         4.23104         8.13062 
        1.27628         7.60242         4.18327         8.06426 
        1.28244         7.52974         4.13616         8.01297 
        1.28858         7.52085         4.08983         7.94101 
        1.29471         7.43108         4.04432         7.88522 
        1.30084         7.35557         3.99955         7.84412 
        1.30697         7.34417         3.95539         7.76081 
        1.31312         7.21883         3.91183         7.70641 
        1.31925         7.17385         3.86907         7.66833 
        1.32537         7.12266           3.827         7.61005 
        1.33151         7.09164          3.7854         7.54364 
        1.33765         7.01273         3.74445         7.47671 
        1.34378         6.95399         3.70419         7.43088 
        1.34992         6.90836         3.66449         7.37844 
        1.35606          6.8509         3.62529         7.31191 
         1.3622         6.80915         3.58674          7.2562 
        1.36833         6.74307         3.54884         7.23347 
        1.37445         6.70045         3.51151          7.1679 
        1.38059         6.67246          3.4746         7.10322 
        1.38675         6.60419         3.43814         7.06688 
        1.39288          6.5651         3.40234         7.01815 
        1.39901         6.48964         3.36707         6.96943 
        1.40515         6.45953         3.33223         6.91905 
         1.4113         6.40896         3.29789         6.86915 
        1.41742         6.36042         3.26416         6.82191 
        1.42355         6.30161         3.23085         6.77232 
         1.4297         6.25842          3.1979         6.72994 
        1.43585         6.23257         3.16543         6.69236 
        1.44198         6.19967         3.13353         6.63331 
        1.44809         6.13609         3.10213         6.59815 
        1.45423         6.08446         3.07105         6.55302 
        1.46036         6.04123         3.04045         6.50767 
        1.46649         6.00108         3.01026         6.46812 
        1.47263         5.94684         2.98046         6.42804 
        1.47877         5.90734         2.95107         6.37965 
        1.48491         5.87225         2.92204         6.33863 
        1.49104         5.83099         2.89345         6.29956 
        1.49718         5.79312         2.86523          6.2583 
        1.50333         5.75606         2.83735         6.21967 
        1.50947         5.70639         2.80989         6.18207 
         1.5156          5.6756         2.78283         6.14481 
        1.52172         5.64095         2.75613         6.10435 
        1.52787         5.60186         2.72973         6.05097 
          1.534         5.55677         2.70371         6.01756 
        1.54013         5.52911         2.67806          5.9823 
        1.54627         5.47506         2.65269         5.94576 
        1.55241          5.4419         2.62765         5.91267 
        1.55855         5.41959         2.60296         5.86625 
        1.56467         5.37298         2.57867         5.83883 
         1.5708          5.3479         2.55461         5.81286 
        1.57695          5.2978         2.53083         5.76848 
        1.58308          5.2576          2.5074         5.73339 
        1.58922         5.24208         2.48426         5.70905 
        1.59535         5.21352         2.46142         5.67324 
         1.6015         5.16588         2.43883         5.63183 
        1.60764         5.12708         2.41654         5.59893 
        1.61376         5.10423         2.39459         5.57347 
        1.61989         5.07222         2.37289         5.54224 
        1.62604         5.03321         2.35142         5.50477 
        1.63218          5.0192         2.33023         5.47487 
        1.63831         4.98388         2.30934         5.44822 
        1.64444         4.95223         2.28871         5.40886 
        1.65059         4.89513         2.26828         5.37771 
        1.65673         4.89196         2.24812         5.34883 
        1.66285         4.83901         2.22826         5.31965 
        1.66898         4.81597         2.20863         5.29088 
        1.67512         4.79157         2.18921         5.26149 
        1.68127         4.75821            2.17         5.23166 
         1.6874         4.73881         2.15106         5.20478 
        1.69353         4.69863         2.13236         5.17936 
        1.69967         4.67485         2.11384         5.14225 
        1.70581         4.64769         2.09555         5.11407 
        1.71193          4.6178         2.07754         5.09503 
        1.71806         4.59648         2.05971          5.0652 
        1.72421         4.56237         2.04205         5.03565 
        1.73035         4.54652         2.02462         5.00631 
        1.73649         4.51502         2.00739         4.97745 
        1.74262         4.47952         1.99039         4.95518 
        1.74876         4.46279         1.97356         4.93113 
        1.75489         4.44223         1.95697         4.90042 
        1.76101         4.40026         1.94057         4.86804 
        1.76715         4.38601         1.92434         4.84616 
        1.77329         4.36158         1.90827         4.82417 
        1.77943         4.32077         1.89239         4.79795 
        1.78557         4.31062          1.8767         4.77119 
        1.79171         4.28215         1.86119         4.74368 
        1.79785          4.2573         1.84586         4.71811 
        1.80399         4.22735          1.8307         4.69713 
        1.81012         4.20905         1.81573         4.67799 
        1.81625         4.18282         1.80093         4.65535 
        1.82239         4.16367         1.78628         4.63071 
        1.82853         4.13545          1.7718         4.60977 
        1.83466         4.11919         1.75749         4.58992 
        1.84078         4.09881         1.74335         4.56588 
        1.84692         4.08216         1.72935         4.53497 
        1.85306         4.04518         1.71549         4.50889 
         1.8592         4.02046          1.7018         4.49149 
        1.86533         4.00109         1.68826         4.47358 
        1.87147         3.98443         1.67486         4.44877 
