# k  (h/Mpc)    P(k)  (Mpc/h)^3    P_linear(k)  (Mpc/h)^3     P_NL(k)  ShotnoiseSubtracted = false
     0.00783031         14906.9         15118.7         15044.7 
       0.013688         19072.3         18896.1           18767 
       0.019231         19410.5         19381.8         19209.9 
      0.0249154         17736.6         18132.6         17951.1 
      0.0312784         15635.8         15834.6           15650 
      0.0375637         13474.9         13495.4         13333.6 
      0.0433917         11454.1           11678         11508.3 
      0.0492413         10232.7         10313.1         10156.7 
      0.0555754         9006.67         9298.32         9159.52 
      0.0619321         8614.85         8606.05         8469.87 
       0.067871         7853.57         8091.46         7964.53 
      0.0738098         7347.95         7578.64         7381.14 
      0.0800417         6672.95         6970.05         6795.84 
      0.0862327         6103.39         6291.32         6206.46 
      0.0921407         5567.96         5621.97         5565.11 
      0.0982031         4923.82         4979.07         5021.72 
       0.104506         4536.35            4416          4536.9 
       0.110769         4123.18         3990.67         4077.77 
       0.116806         3835.46         3702.07         3781.06 
       0.122832          3641.6         3504.94         3589.46 
       0.129052         3400.27         3355.65         3428.45 
       0.135211         3260.86         3220.23         3283.23 
       0.141259         3153.37         3068.98         3162.72 
       0.147318         2994.81         2886.37         3019.25 
       0.153489         2753.86         2673.22         2780.07 
       0.159709         2594.86         2448.84          2610.7 
       0.165845         2471.72         2239.94         2475.26 
       0.171974         2310.87         2061.01         2304.76 
       0.178125          2183.7          1919.7         2205.72 
       0.184229         2078.58         1816.38         2081.71 
        0.19034         1966.06         1741.49          1996.2 
       0.196428         1934.06         1683.12         1917.54 
       0.202534         1870.18         1628.27         1867.51 
       0.208729         1792.86         1566.49         1786.02 
       0.214876         1722.98         1494.44         1752.94 
       0.220989         1665.37         1413.13         1698.41 
       0.227147         1590.83         1326.75         1634.97 
        0.23329         1523.99         1243.02         1577.58 
       0.239377          1495.2         1168.48         1504.94 
       0.245482         1399.54         1105.63         1430.01 
       0.251667         1389.82         1054.79         1389.88 
       0.257832         1334.96         1014.89         1340.26 
       0.263955         1292.79          982.16         1302.15 
       0.270079         1249.76         952.153         1270.05 
        0.27624         1237.21          921.17         1236.32 
       0.282372         1185.96         887.499         1215.45 
        0.28843         1177.02         851.242         1189.68 
       0.294538          1118.8         812.799          1155.8 
       0.300721         1111.98         774.109          1119.5 
        0.30691         1066.94         737.679         1099.03 
       0.313033         1045.71          705.51         1059.88 
       0.319153         1026.52         677.748         1027.59 
       0.325316         993.263         653.984         1008.06 
        0.33145         971.143          633.45         972.685 
       0.337538         954.023         614.883          957.11 
       0.343633         932.002         596.805         948.319 
       0.349808         900.929         578.176         934.147 
       0.355968          894.83         558.828         918.605 
       0.362074         885.161         539.123          901.03 
       0.368217         857.921         519.255         877.243 
       0.374374         824.643         499.974         859.142 
       0.380519         825.276         481.991         839.544 
       0.386598         802.431         465.724         828.441 
       0.392688          799.75         451.066         807.108 
        0.39888         776.077         437.591          794.38 
       0.405048         765.627         425.211         781.845 
       0.411186         754.686         413.519         766.887 
       0.417313         739.064         402.076         756.756 
       0.423458         726.132         390.603         745.004 
       0.429607         716.221         379.113         732.235 
       0.435692         700.896          367.78         716.783 
       0.441815         695.003         356.608         712.924 
       0.447964         680.103         345.844         702.272 
       0.454126         672.583         335.646         682.201 
       0.460267         656.878         326.129         680.076 
       0.466387          649.54         317.307         667.653 
        0.47254         642.964         308.986         658.273 
       0.478662         637.919         301.108         647.888 
       0.484765         618.463         293.533         639.874 
       0.490885         614.489         286.127         628.915 
       0.497035         601.589         278.799         623.021 
       0.503198         597.386         271.555         615.651 
       0.509342         591.535         264.486         605.613 
       0.515458         587.315          257.66         601.228 
       0.521598         572.565         251.059         594.107 
       0.527764         562.265         244.709          587.86 
       0.533884          560.55         238.705         580.375 
           0.54         554.242         233.002         572.488 
       0.546137         550.268         227.527         565.723 
       0.552299         541.559         222.228         557.873 
       0.558452         537.973         217.093         553.352 
       0.564573          530.66         212.118         548.872 
       0.570708         524.406         207.255         542.779 
       0.576825         510.416         202.523         534.397 
       0.582926         511.771         197.917         530.238 
       0.589034         506.626         193.434         522.291 
       0.595184         502.201         189.065         516.835 
       0.601379         494.692         184.826         511.921 
       0.607522         488.089         180.783         504.691 
       0.613639         487.513           176.9         503.408 
       0.619772         476.655         173.134         501.736 
       0.625918         474.554         169.473         493.831 
       0.632068         467.561          165.91         490.533 
       0.638161         465.823         162.475         483.865 
         0.6443         457.611         159.107         480.143 
       0.650464         455.091         155.816         472.403 
       0.656582         451.771         152.636          469.81 
       0.662703         449.998          149.54         466.759 
       0.668861         442.237         146.511         464.153 
       0.675024         438.469         143.566         460.486 
       0.681124          435.23         140.735         453.037 
       0.687237         431.441         137.983         449.024 
       0.693381         425.546         135.298         445.103 
       0.699536         419.591         132.684         442.134 
       0.705665         418.398         130.153         436.719 
       0.711789         415.996          127.69         433.933 
       0.717957         412.163         125.272         432.835 
        0.72409         409.541         122.927         428.011 
       0.730186         403.716         120.653         423.815 
       0.736317         400.821         118.422         420.467 
       0.742472         398.632         116.239         416.937 
       0.748622         394.412         114.113         413.179 
        0.75476         389.156         112.046         413.825 
       0.760888         385.229         110.036         408.082 
       0.767043         385.961         108.069         403.973 
       0.773185          381.35         106.157         401.475 
       0.779291         376.632         104.303         397.845 
       0.785407         374.802         102.491         395.592 
       0.791564          370.17         100.712          393.34 
       0.797719          367.91         98.9758         389.469 
       0.803834         364.111         97.2914         387.683 
       0.809972         363.303         95.6397         385.048 
       0.816124         362.339         94.0226         380.087 
       0.822261         357.131         92.4471         378.567 
       0.828378         355.195         90.9124         375.622 
       0.834502         351.415         89.4113         374.118 
       0.840667         348.501         87.9345          370.69 
       0.846816          346.89         86.4955         368.206 
       0.852925         344.423         85.0981         366.065 
       0.859047         342.452          83.729         362.954 
       0.865192         338.258         82.3859          360.04 
       0.871341         335.654         81.0717         358.249 
       0.877463         334.805         79.7923         356.037 
       0.883569         332.184         78.5441         354.564 
       0.889708         329.275         77.3164         350.929 
       0.895864         327.051         76.1121         349.085 
       0.902008         324.601          74.936         346.548 
       0.908149         321.725         73.7857         343.648 
       0.914301         318.863         72.6578         340.976 
       0.920448         317.017         71.5546         339.589 
       0.926574         313.076         70.4783         337.037 
       0.932687         313.249         69.4266          334.75 
       0.938823         309.548         68.3926         334.083 
       0.944975         309.302         67.3775         331.121 
       0.951105         306.084         66.3867         328.706 
       0.957225         304.053         65.4177         327.028 
       0.963368         300.375         64.4649         325.112 
       0.969511         299.163         63.5311         323.019 
       0.975621         297.006          62.621         320.921 
       0.981748         295.943         61.7264         319.151 
       0.987916         294.026         60.8439          317.63 
        0.99406         289.448          59.982         315.467 
        1.00019         288.753         59.1386         312.619 
        1.00632         287.204         58.3123         310.788 
        1.01246         284.726         57.5007         308.494 
        1.01859         285.145         56.7059         306.721 
        1.02471         280.554         55.9273         305.507 
        1.03085         278.978         55.1606         304.286 
        1.03698         278.066         54.4101         303.035 
        1.04314         275.202         53.6704         300.711 
        1.04929         273.219         52.9463         298.231 
        1.05541         273.599         52.2385         296.536 
        1.06154         268.961         51.5419         295.115 
        1.06769         268.442         50.8571         293.196 
        1.07382         266.479          50.187         291.604 
        1.07993         264.639         49.5305         290.186 
        1.08607           263.9         48.8832         287.926 
        1.09222         261.377         48.2468         286.481 
        1.09836          259.51         47.6225         285.424 
        1.10449         257.108         47.0101         283.805 
        1.11063         254.796         46.4078           281.7 
        1.11677         254.453         45.8163         280.119 
         1.1229         252.549         45.2363         278.659 
        1.12903         250.999         44.6658         277.335 
        1.13518         249.109         44.1047         275.475 
        1.14131         247.292         43.5536         273.956 
        1.14745         246.644         43.0122         272.212 
        1.15359         244.628           42.48         271.266 
        1.15973         242.794         41.9566         269.672 
        1.16584         241.077         41.4445         268.329 
        1.17197         241.091         40.9401         267.183 
        1.17811         237.928         40.4427          265.43 
        1.18424         236.624         39.9549         264.045 
        1.19038         235.852         39.4739         263.219 
        1.19652         233.772          39.001          261.26 
        1.20267         233.203         38.5359         259.841 
        1.20881         231.185         38.0784         258.549 
        1.21495         229.671         37.6292         256.973 
        1.22108         228.301         37.1873          255.38 
         1.2272         226.721         36.7536          253.98 
        1.23334         225.589         36.3258         252.795 
        1.23949         223.897         35.9039         251.718 
        1.24562         222.879         35.4898           250.1 
        1.25174         221.302          35.083         248.914 
        1.25789         219.625         34.6813         247.464 
        1.26402         217.705         34.2866         246.796 
        1.27014         216.479          33.899         245.042 
        1.27628         215.337         33.5163          244.52 
        1.28244          215.06         33.1388         243.352 
        1.28858         212.706         32.7677         241.775 
        1.29471         211.234         32.4031         239.861 
        1.30084         210.122         32.0443         238.813 
        1.30697         208.694         31.6905         237.939 
        1.31312         206.759         31.3416         236.478 
        1.31925         206.189          30.999         235.364 
        1.32537         205.317         30.6619         233.984 
        1.33151         203.251         30.3286         232.921 
        1.33765         201.946         30.0005         231.934 
        1.34378         201.248         29.6779          230.77 
        1.34992         200.086         29.3599         229.309 
        1.35606         199.886         29.0458         227.957 
         1.3622         197.635         28.7369         227.246 
        1.36833         195.934         28.4333         226.324 
        1.37445         195.194         28.1342         224.409 
        1.38059         193.498         27.8385         223.781 
        1.38675         192.779         27.5463         222.993 
        1.39288         191.554         27.2595         221.105 
        1.39901         191.038         26.9769         220.187 
        1.40515         189.082         26.6977         219.116 
         1.4113         188.152         26.4226         217.918 
        1.41742         186.753         26.1524         217.059 
        1.42355          185.89         25.8855         215.771 
         1.4297         184.276         25.6215         214.697 
        1.43585         183.425         25.3614         214.136 
        1.44198         182.411         25.1058         212.932 
        1.44809         181.551         24.8542         212.003 
        1.45423         180.453         24.6052         210.356 
        1.46036         179.242         24.3601         209.571 
        1.46649         177.822         24.1182         208.905 
        1.47263          176.79         23.8794         207.672 
        1.47877          175.74         23.6439         206.386 
        1.48491         174.113         23.4113         205.237 
        1.49104         173.765         23.1823         204.649 
        1.49718         172.075         22.9562         203.871 
        1.50333         171.428         22.7328         202.751 
        1.50947         170.448         22.5128         201.872 
         1.5156         169.044          22.296         200.847 
        1.52172         168.381         22.0821         199.488 
        1.52787         166.806         21.8706         198.865 
          1.534         166.459         21.6621         197.973 
        1.54013          165.23         21.4566         196.983 
        1.54627         164.143         21.2533         196.244 
        1.55241         163.027         21.0527         195.341 
        1.55855         162.125         20.8549         194.228 
        1.56467         160.923         20.6602         193.238 
         1.5708         160.213         20.4675         192.352 
        1.57695         159.335          20.277         191.467 
        1.58308         158.465         20.0893         190.532 
        1.58922         157.389         19.9038         189.594 
        1.59535         156.136         19.7208         188.911 
         1.6015         155.594         19.5399         188.076 
        1.60764          154.52         19.3613          187.05 
        1.61376          153.54         19.1854         186.191 
        1.61989         152.678         19.0116         185.349 
        1.62604         151.635         18.8395         184.309 
        1.63218         150.917         18.6697         183.492 
        1.63831         149.743         18.5024         182.875 
        1.64444         149.109         18.3371         181.959 
        1.65059         148.088         18.1734         181.184 
        1.65673         146.939         18.0119         180.302 
        1.66285         146.433         17.8528         179.382 
        1.66898         145.317         17.6955         178.598 
        1.67512         145.037         17.5399         177.839 
        1.68127         143.482          17.386         177.065 
         1.6874         142.651         17.2342         176.279 
        1.69353          142.02         17.0844         175.476 
        1.69967          140.95          16.936         174.646 
        1.70581         140.319         16.7895         173.951 
        1.71193         139.317         16.6452         173.201 
        1.71806         138.696         16.5023         172.119 
        1.72421         137.812         16.3609         171.422 
        1.73035          137.39         16.2212         170.764 
        1.73649         136.442         16.0832          169.91 
        1.74262         135.379         15.9469         169.195 
        1.74876         134.601         15.8121         168.467 
        1.75489         133.781         15.6792         167.726 
        1.76101         132.788         15.5478         167.051 
        1.76715         132.351         15.4178         166.413 
        1.77329         131.733         15.2891         165.606 
        1.77943         130.726         15.1618          164.74 
        1.78557         130.124         15.0361          164.01 
        1.79171         129.281         14.9118         163.344 
        1.79785         128.459          14.789          162.62 
        1.80399         127.649         14.6675         161.844 
        1.81012         126.955         14.5476         161.312 
        1.81625          126.35          14.429         160.638 
        1.82239         125.572         14.3116         159.733 
        1.82853          124.91         14.1956         159.005 
        1.83466         123.951          14.081         158.244 
        1.84078         123.531         13.9677         157.538 
        1.84692         122.336         13.8555         157.143 
        1.85306         122.138         13.7444          156.31 
         1.8592         121.219         13.6347         155.392 
        1.86533         120.357         13.5263         155.081 
        1.87147         119.572         13.4189         154.639 
        1.87761         118.953         13.3127         153.843 
