# k  (h/Mpc)    Pcb(k)  (Mpc/h)^3    Pcb_linear(k) (Mpc/h)^3    Pcb_NL(k) (Mpc/h)^3   ShotnoiseSubtracted = false
     0.00783031         2638.57         2666.07         2654.45 
       0.013688         3342.55         3338.02         3322.39 
       0.019231         3428.55         3425.63          3407.2 
      0.0249154         3178.62         3205.67         3192.34 
      0.0312784         2792.85         2799.84         2793.24 
      0.0375637         2392.87         2386.44            2382 
      0.0433917         2057.44         2065.17         2061.97 
      0.0492413         1825.18         1823.88         1821.44 
      0.0555754         1631.94         1644.46         1641.51 
      0.0619321         1531.58         1522.06          1518.7 
       0.067871         1422.39         1431.08         1427.14 
      0.0738098         1330.52          1340.4         1333.85 
      0.0800417         1218.03         1232.77         1227.16 
      0.0862327         1105.37         1112.74         1110.61 
      0.0921407         993.691         994.356         993.666 
      0.0982031         877.105         880.652         883.901 
       0.104506         789.533         781.065         787.234 
       0.110769          713.89          705.84         710.243 
       0.116806         658.351         654.797         658.636 
       0.122832         626.878         619.931         623.985 
       0.129052         594.006         593.528         596.802 
       0.135211         569.442         569.577         572.755 
       0.141259         546.228         542.826         546.951 
       0.147318         516.348         510.527         516.937 
       0.153489         476.214         472.826          477.69 
       0.159709         439.673         433.141         440.267 
       0.165845         408.366         396.192         406.833 
       0.171974         374.006         364.544         374.789 
       0.178125         350.781          339.55         351.709 
       0.184229         333.633         321.275         332.982 
        0.19034         314.565          308.03         318.941 
       0.196428         307.871         297.704         306.726 
       0.202534         300.477         288.003         297.274 
       0.208729         287.003         277.076         286.024 
       0.214876         271.952         264.332         275.714 
       0.220989         261.439         249.951         262.282 
       0.227147         243.822         234.672         247.312 
        0.23329         230.267         219.863         234.226 
       0.239377         219.602         206.678         221.598 
       0.245482         205.522         195.562         209.242 
       0.251667         199.898          186.57         201.104 
       0.257832         192.768         179.512         193.452 
       0.263955          186.24         173.723         187.002 
       0.270079         180.457         168.414         181.384 
        0.27624         176.748         162.935         175.369 
       0.282372         170.198         156.979         170.045 
        0.28843         163.061         150.566         163.885 
       0.294538         156.014         143.767         157.666 
       0.300721         151.638         136.923         151.625 
        0.30691         143.999         130.479         145.477 
       0.313033         138.939         124.789         139.337 
       0.319153         132.224         119.879         134.688 
       0.325316         129.833         115.676         130.719 
        0.33145         125.198         112.043         126.281 
       0.337538         122.592          108.76         122.611 
       0.343633         118.646         105.562         119.695 
       0.349808          115.27         102.266         116.736 
       0.355968          112.25         98.8448         114.027 
       0.362074         108.603         95.3593         110.304 
       0.368217         105.199         91.8451         106.161 
       0.374374         101.806         88.4352         103.159 
       0.380519          99.034         85.2538          99.731 
       0.386598         96.1725         82.3767         96.9287 
       0.392688          94.148          79.784         94.4009 
        0.39888         91.4664         77.4005         91.6352 
       0.405048         89.3469         75.2107         89.4009 
       0.411186          87.307         73.1427         87.7296 
       0.417313         84.6813         71.1187          85.116 
       0.423458          82.608         69.0894         83.2698 
       0.429607         80.3808         67.0567         81.1262 
       0.435692         77.8209         65.0527         79.2453 
       0.441815         76.6862         63.0765         77.7254 
       0.447964         75.2578         61.1725         75.4619 
       0.454126         72.0372         59.3686         73.3428 
       0.460267         70.8817         57.6858         72.0031 
       0.466387         69.0683         56.1248         70.1056 
        0.47254         67.9527         54.6532         68.7483 
       0.478662         66.8019         53.2597         67.2222 
       0.484765         64.9187         51.9199         65.5557 
       0.490885         63.5425         50.6099         64.6082 
       0.497035         62.6163         49.3137         63.4517 
       0.503198         60.9481         48.0323         61.8242 
       0.509342         59.3988         46.7821         60.7118 
       0.515458         58.2648         45.5747         59.8396 
       0.521598         57.3239          44.407         58.0886 
       0.527764         56.1992         43.2838         56.6144 
       0.533884         55.1939         42.2219         55.6011 
           0.54         54.0242         41.2131         54.5894 
       0.546137         53.2429         40.2447         53.7825 
       0.552299         52.3958         39.3074         52.4645 
       0.558452         50.8532         38.3993         51.4362 
       0.564573           50.02         37.5192          50.797 
       0.570708          49.324         36.6591         49.8686 
       0.576825         48.1938          35.822         48.9411 
       0.582926         47.2561         35.0074         48.0839 
       0.589034         46.0692         34.2144         47.4142 
       0.595184         45.4853         33.4417         46.3847 
       0.601379         44.7523         32.6919         45.7744 
       0.607522          43.762         31.9767         44.7177 
       0.613639         43.4629           31.29         44.0467 
       0.619772         42.3525         30.6239         43.3296 
       0.625918         42.0795         29.9762         42.7856 
       0.632068         41.4181          29.346         41.9204 
       0.638161         40.6188         28.7384         41.2944 
         0.6443         39.8687         28.1426          40.532 
       0.650464         39.1856         27.5605         39.9605 
       0.656582         38.8937         26.9981         39.4156 
       0.662703         38.1116         26.4504         38.6696 
       0.668861         37.4801         25.9147         38.2299 
       0.675024         36.8569         25.3937         37.4902 
       0.681124         36.2171         24.8931         36.9265 
       0.687237         35.5811         24.4063         36.3431 
       0.693381         35.2951         23.9313         35.7763 
       0.699536         34.4707          23.469         35.4327 
       0.705665         34.4441         23.0213         34.9718 
       0.711789         33.5865         22.5857         34.2458 
       0.717957         33.1866          22.158         33.8969 
        0.72409         32.7118         21.7432         33.4957 
       0.730186         32.2186         21.3409         32.9616 
       0.736317          31.916         20.9464         32.4759 
       0.742472          31.342         20.5602         32.1239 
       0.748622         31.0511         20.1842         31.5961 
        0.75476         30.5319         19.8187         31.2107 
       0.760888         30.0798         19.4631         30.8385 
       0.767043         29.7235         19.1152         30.4976 
       0.773185         29.2173          18.777         30.0745 
       0.779291         29.0741          18.449          29.742 
       0.785407         28.7487         18.1286         29.2978 
       0.791564          28.201         17.8139         28.9354 
       0.797719         27.6222         17.5068          28.612 
       0.803834         27.5743         17.2088         28.1893 
       0.809972         27.2592         16.9167         27.9051 
       0.816124         26.6417         16.6307         27.5334 
       0.822261         26.4689          16.352         27.1522 
       0.828378         26.2166         16.0805         26.8013 
       0.834502         25.9168          15.815         26.6297 
       0.840667          25.593         15.5538         26.2328 
       0.846816         25.1495         15.2993         25.9521 
       0.852925         24.9241         15.0521         25.8031 
       0.859047         24.6302         14.8099         25.3755 
       0.865192          24.375         14.5724         25.0791 
       0.871341         24.2082         14.3399         24.8667 
       0.877463         23.7413         14.1136          24.568 
       0.883569          23.474         13.8928         24.3309 
       0.889708         23.1771         13.6757         24.0118 
       0.895864         22.9884         13.4626         23.7257 
       0.902008         22.8043         13.2546         23.5154 
       0.908149         22.5497         13.0512         23.3034 
       0.914301         22.4273         12.8517         23.1309 
       0.920448         21.9649         12.6565          22.785 
       0.926574         21.8114         12.4662         22.5251 
       0.932687         21.5575         12.2801          22.272 
       0.938823         21.2799         12.0972         22.0542 
       0.944975         21.0747         11.9177          21.836 
       0.951105         20.8886         11.7424          21.569 
       0.957225         20.6558          11.571         21.4202 
       0.963368         20.4905         11.4025         21.1718 
       0.969511         20.3092         11.2373         20.9689 
       0.975621         20.1376         11.0764         20.7759 
       0.981748         19.8466         10.9181         20.6089 
       0.987916         19.7113          10.762         20.3539 
        0.99406          19.477         10.6096         20.1787 
        1.00019         19.2158         10.4604         19.9927 
        1.00632         19.1452         10.3142         19.8291 
        1.01246          18.973         10.1707         19.6962 
        1.01859         18.6778         10.0301         19.4801 
        1.02471         18.6147         9.89238         19.2606 
        1.03085         18.4312         9.75678         19.0979 
        1.03698          18.123         9.62402         18.9292 
        1.04314          18.022         9.49318          18.723 
        1.04929         17.8105          9.3651         18.6039 
        1.05541         17.6213         9.23991         18.4863 
        1.06154         17.5131          9.1167         18.2461 
        1.06769         17.3996         8.99557         18.0706 
        1.07382         17.1975         8.87704         17.9579 
        1.07993         17.0934         8.76093         17.7887 
        1.08607         16.8767         8.64643         17.6418 
        1.09222         16.7651         8.53386         17.5173 
        1.09836          16.556         8.42344         17.3357 
        1.10449         16.4652         8.31512         17.1765 
        1.11063         16.2604         8.20859         17.0665 
        1.11677         16.1989         8.10397         16.8888 
         1.1229         16.1013         8.00136         16.7751 
        1.12903         15.8831         7.90045         16.6586 
        1.13518         15.7104         7.80121          16.484 
        1.14131         15.6439         7.70373         16.3584 
        1.14745          15.513         7.60798         16.2335 
        1.15359         15.4085         7.51384         16.0976 
        1.15973         15.2554         7.42127         15.9736 
        1.16584         15.0443         7.33067         15.8779 
        1.17197         15.0179         7.24146         15.7798 
        1.17811         14.8605         7.15347         15.5751 
        1.18424          14.725         7.06721         15.4949 
        1.19038         14.6658         6.98212          15.385 
        1.19652         14.5285         6.89847         15.2369 
        1.20267          14.388          6.8162         15.1332 
        1.20881         14.3275         6.73529          15.053 
        1.21495         14.2162         6.65583         14.9313 
        1.22108         14.0606         6.57767         14.8165 
         1.2272         13.9353         6.50095         14.6891 
        1.23334         13.8348         6.42529          14.615 
        1.23949         13.7084         6.35066         14.4845 
        1.24562          13.654         6.27742          14.369 
        1.25174         13.5668         6.20546         14.2842 
        1.25789         13.4547          6.1344         14.1699 
        1.26402         13.3962         6.06459         14.0545 
        1.27014          13.257         5.99604         13.9688 
        1.27628         13.1011         5.92835         13.8538 
        1.28244         13.0366         5.86158         13.8022 
        1.28858         13.0038         5.79593         13.6763 
        1.29471         12.8609         5.73143         13.5806 
        1.30084         12.7423         5.66798         13.5375 
        1.30697         12.6813          5.6054         13.4096 
        1.31312         12.5372         5.54368         13.3061 
        1.31925         12.4478         5.48308         13.2551 
        1.32537         12.4054         5.42346         13.1751 
        1.33151         12.3022         5.36451         13.0642 
        1.33765          12.222         5.30647         12.9678 
        1.34378         12.1353         5.24941         12.8894 
        1.34992         12.0137         5.19316          12.815 
        1.35606         11.9769          5.1376         12.7135 
         1.3622         11.9003         5.08297         12.6278 
        1.36833         11.7802         5.02926         12.5868 
        1.37445         11.7311         4.97635         12.4764 
        1.38059         11.6591         4.92405         12.3741 
        1.38675         11.5356         4.87238         12.3298 
        1.39288         11.4929         4.82165         12.2402 
        1.39901         11.3865         4.77167         12.1671 
        1.40515         11.3367         4.72228          12.095 
         1.4113          11.251         4.67362         12.0243 
        1.41742         11.1698         4.62583         11.9542 
        1.42355         11.0982         4.57862         11.8611 
         1.4297         11.0348         4.53193         11.7991 
        1.43585         10.9885          4.4859         11.7453 
        1.44198         10.9017          4.4407         11.6644 
        1.44809         10.8309         4.39621         11.6005 
        1.45423         10.7457         4.35216         11.5252 
        1.46036         10.6892          4.3088         11.4463 
        1.46649         10.6379         4.26601         11.3843 
        1.47263         10.5355         4.22377         11.3358 
        1.47877         10.4801         4.18213         11.2691 
        1.48491         10.4232         4.14098         11.1723 
        1.49104         10.3636         4.10047         11.1262 
        1.49718         10.2961         4.06048         11.0707 
        1.50333         10.2356         4.02096         11.0023 
        1.50947         10.1657         3.98205          10.947 
         1.5156         10.1019         3.94371         10.8875 
        1.52172         10.0498         3.90587         10.8118 
        1.52787         9.97607         3.86846         10.7451 
          1.534         9.91489         3.83158         10.6907 
        1.54013         9.85283         3.79522         10.6123 
        1.54627          9.7812         3.75927         10.5509 
        1.55241         9.73745         3.72379         10.5142 
        1.55855         9.69021         3.68881         10.4553 
        1.56467         9.61658         3.65437         10.3945 
         1.5708         9.59876         3.62028         10.3543 
        1.57695         9.50508         3.58658         10.2986 
        1.58308         9.45001         3.55338         10.2383 
        1.58922         9.41407         3.52058         10.2009 
        1.59535          9.3676         3.48821         10.1413 
         1.6015         9.29038          3.4562         10.0783 
        1.60764         9.22844         3.42461         10.0213 
        1.61376         9.20872         3.39351         9.96854 
        1.61989         9.12912         3.36276          9.9296 
        1.62604         9.09839         3.33233         9.88358 
        1.63218         9.04771         3.30229         9.82821 
        1.63831         9.00378          3.2727         9.77682 
        1.64444         8.93391         3.24345         9.72884 
        1.65059         8.87179          3.2145         9.66736 
        1.65673         8.85564         3.18593         9.62813 
        1.66285          8.7623         3.15779         9.58827 
        1.66898         8.73604         3.12998          9.5246 
        1.67512         8.70049         3.10245         9.47816 
        1.68127         8.64007         3.07522          9.4273 
         1.6874         8.60076         3.04839         9.37907 
        1.69353         8.54293         3.02189         9.34891 
        1.69967         8.49768         2.99564         9.29974 
        1.70581         8.45917         2.96972         9.25408 
        1.71193         8.39952          2.9442         9.21525 
        1.71806         8.37907         2.91893         9.16449 
        1.72421         8.31365          2.8939         9.12774 
        1.73035         8.29266          2.8692         9.08307 
        1.73649         8.24563         2.84479          9.0291 
        1.74262         8.19415         2.82069         8.99935 
        1.74876         8.16126         2.79685         8.95284 
        1.75489         8.12142         2.77333         8.89358 
        1.76101         8.05255         2.75009         8.84903 
        1.76715          8.0421         2.72709         8.82852 
        1.77329         7.97938         2.70432         8.78569 
        1.77943         7.93617         2.68181         8.73382 
        1.78557         7.91414         2.65958         8.70165 
        1.79171         7.87679          2.6376          8.6569 
        1.79785         7.81807         2.61587         8.60874 
        1.80399         7.77725         2.59438         8.57888 
        1.81012         7.74902         2.57317         8.54567 
        1.81625         7.69775          2.5522         8.51101 
        1.82239         7.66852         2.53144         8.47635 
        1.82853         7.61528         2.51091         8.43274 
        1.83466         7.58388         2.49064         8.39739 
        1.84078         7.53861          2.4706         8.36529 
        1.84692         7.52641         2.45076         8.31657 
        1.85306         7.46954         2.43111         8.28021 
         1.8592         7.43287         2.41171         8.25247 
        1.86533         7.40078         2.39253         8.21017 
        1.87147         7.36781         2.37354         8.16961 
