# k  (h/Mpc)    Pcb(k)  (Mpc/h)^3    Pcb_linear(k) (Mpc/h)^3    Pcb_NL(k) (Mpc/h)^3   ShotnoiseSubtracted = false
     0.00783031         5274.95          5335.5         5312.06 
       0.013688         6703.71          6677.4         6643.26 
       0.019231          6861.4         6851.72         6809.85 
      0.0249154         6335.19         6411.32         6376.79 
      0.0312784         5573.34         5599.43          5575.2 
      0.0375637         4783.26         4772.55         4753.24 
      0.0433917         4099.43         4129.99         4111.98 
      0.0492413         3644.15         3647.42          3631.7 
      0.0555754          3244.5         3288.58         3273.43 
      0.0619321          3063.4         3043.79         3028.19 
       0.067871         2829.74         2861.82         2846.17 
      0.0738098         2646.84         2680.47         2655.28 
      0.0800417         2417.61         2465.24         2443.26 
      0.0862327         2199.13         2225.19         2215.92 
      0.0921407         1984.42         1988.46          1983.5 
      0.0982031         1750.84         1761.08          1770.6 
       0.104506         1587.27         1561.93         1582.44 
       0.110769         1436.77          1411.5         1425.72 
       0.116806         1325.96         1309.42         1322.19 
       0.122832         1263.15          1239.7         1253.54 
       0.129052         1191.25          1186.9         1198.35 
       0.135211          1142.6            1139         1149.95 
       0.141259         1098.84          1085.5         1100.25 
       0.147318         1039.92         1020.92         1043.48 
       0.153489         957.752         945.524         962.475 
       0.159709          890.06         866.163         891.454 
       0.165845          832.25         792.277         830.206 
       0.171974          765.87         728.988         766.158 
       0.178125         720.303         679.007          723.34 
       0.184229          686.26         642.461         684.672 
        0.19034         643.989         615.974         655.639 
       0.196428         633.493         595.327          628.97 
       0.202534         618.017         575.926         610.554 
       0.208729         590.091         554.076         586.641 
       0.214876         559.576         528.591         569.615 
       0.220989         539.885         499.833         544.536 
       0.227147         506.128         469.279         515.759 
        0.23329         480.547         439.665         492.044 
       0.239377         462.719         413.298         467.093 
       0.245482          430.94          391.07         441.033 
       0.251667         422.787         373.088         425.925 
       0.257832         408.227         358.975         409.723 
       0.263955         394.601         347.397         396.239 
       0.270079         381.716         336.782         384.896 
        0.27624         375.921         325.823          372.42 
       0.282372         361.441         313.915         362.137 
        0.28843         348.597         301.089         350.067 
       0.294538         332.813         287.493         338.669 
       0.300721         327.185         273.808         327.438 
        0.30691         310.995         260.922         316.077 
       0.313033         302.329         249.544         303.161 
       0.319153         289.644         239.725         293.717 
       0.325316          282.77         231.319         286.071 
        0.33145          273.48         224.055         275.946 
       0.337538         269.257         217.489         268.525 
       0.343633         260.594         211.095         264.054 
       0.349808         252.723         204.504         258.385 
       0.355968         248.052         197.662         252.928 
       0.362074         241.171         190.692          245.71 
       0.368217         234.287         183.664         237.171 
       0.374374         226.521         176.846         230.994 
       0.380519          221.88         170.484         224.154 
       0.386598         215.966          164.73         218.924 
       0.392688         212.595         159.546         213.383 
        0.39888         206.979         154.779          207.72 
       0.405048         202.224           150.4         204.268 
       0.411186         197.673         146.265         199.623 
       0.417313         193.353         142.217         194.147 
       0.423458         189.168         138.159          190.48 
       0.429607         184.492         134.095         186.567 
       0.435692         178.942         130.087         182.454 
       0.441815         177.382         126.135         179.909 
       0.447964         174.043         122.328         175.433 
       0.454126         166.543          118.72         170.429 
       0.460267         164.546         115.355         168.334 
       0.466387         162.079         112.234         164.438 
        0.47254         158.758         109.291         161.501 
       0.478662         157.015         106.504         158.384 
       0.484765         152.578         103.825         154.427 
       0.490885          150.05         101.205         152.482 
       0.497035         147.902         98.6135         150.336 
       0.503198         143.902         96.0511          147.46 
       0.509342         141.388         93.5509          145.18 
       0.515458         139.353         91.1366         143.479 
       0.521598         137.329         88.8015          139.85 
       0.527764         135.153         86.5554         136.877 
       0.533884         132.863         84.4318         134.935 
           0.54         130.504         82.4146         132.791 
       0.546137         129.238          80.478         131.192 
       0.552299         127.153         78.6038         128.323 
       0.558452         124.416         76.7877         126.173 
       0.564573         122.162         75.0278          124.91 
       0.570708          120.53         73.3079         122.983 
       0.576825         118.728         71.6339         120.723 
       0.582926         116.541          70.005         118.896 
       0.589034         114.464          68.419         117.691 
       0.595184         113.058         66.8739         115.592 
       0.601379         111.803         65.3745         114.453 
       0.607522         109.035         63.9443         112.056 
       0.613639         108.756         62.5711         110.892 
       0.619772         106.275         61.2391         109.042 
       0.625918         105.162         59.9439         108.005 
       0.632068         103.927         58.6838         106.161 
       0.638161         102.656         57.4688         105.242 
         0.6443         101.289         56.2773          103.52 
       0.650464         99.9186         55.1132          101.56 
       0.656582         98.6252         53.9885         100.874 
       0.662703         96.7997         52.8934         99.2068 
       0.668861         95.7345         51.8221         98.1795 
       0.675024         94.5376         50.7803         96.7045 
       0.681124         93.4204         49.7792         95.5527 
       0.687237         91.7234         48.8056         94.3149 
       0.693381          90.744         47.8559          93.019 
       0.699536         89.6026         46.9313         92.3974 
       0.705665         89.9183         46.0361         91.5462 
       0.711789         87.3897          45.165         89.6986 
       0.717957          86.874         44.3097         88.9981 
        0.72409         85.6193         43.4802         88.4279 
       0.730186         84.1725         42.6758         87.3127 
       0.736317         83.9707         41.8868         86.0076 
       0.742472          82.879         41.1146         85.1338 
       0.748622         82.0997         40.3627         84.0954 
        0.75476         81.1586         39.6317         83.1142 
       0.760888         79.9761         38.9207         82.0587 
       0.767043         79.1999         38.2251         81.6634 
       0.773185         78.2591         37.5486         80.9824 
       0.779291         77.6604         36.8928          80.035 
       0.785407           77.01          36.252         78.8894 
       0.791564         75.9072         35.6227         78.1552 
       0.797719         74.8271         35.0086         77.6422 
       0.803834          74.516         34.4128         76.5279 
       0.809972         73.1768         33.8286         75.8364 
       0.816124         72.6394         33.2566         75.3206 
       0.822261         72.0937         32.6993         74.3569 
       0.828378         71.4512         32.1565         73.3479 
       0.834502         70.7257         31.6255         73.0698 
       0.840667         70.0276         31.1032          72.518 
       0.846816         69.1376         30.5942         71.7211 
       0.852925         68.5338         30.0999           71.04 
       0.859047         67.6021         29.6157         70.2266 
       0.865192          67.254         29.1406         69.7562 
       0.871341          66.828         28.6757         69.0199 
       0.877463         65.6542         28.2232         68.4991 
       0.883569         65.2288         27.7817         68.0299 
       0.889708          64.854         27.3475         67.3321 
       0.895864         64.2172         26.9215         66.7778 
       0.902008         63.6611         26.5055         66.1101 
       0.908149         63.1676         26.0986         65.6441 
       0.914301         62.5566         25.6997         65.2083 
       0.920448         61.9879         25.3095         64.5496 
       0.926574         61.4275         24.9288         63.8324 
       0.932687         61.0164         24.5568         63.4515 
       0.938823          60.067         24.1911         62.7774 
       0.944975          59.899          23.832         62.2815 
       0.951105         59.2735         23.4816         61.9556 
       0.957225         58.5429         23.1388         61.4413 
       0.963368          58.438         22.8018         60.7384 
       0.969511         57.9725         22.4715         60.2992 
       0.975621          57.497         22.1496         60.1933 
       0.981748         56.8599         21.8332         59.5524 
       0.987916         56.4539          21.521         59.2168 
        0.99406         56.1368         21.2161          58.664 
        1.00019         55.4011         20.9178         58.1789 
        1.00632         55.1858         20.6256         57.7646 
        1.01246         54.6751         20.3385         57.2671 
        1.01859         53.9856         20.0574         56.9476 
        1.02471         54.0748          19.782         56.6036 
        1.03085         53.4599         19.5108          56.083 
        1.03698         52.9344         19.2453         55.6377 
        1.04314         52.4298         18.9837         55.1674 
        1.04929         52.1727         18.7275         54.9407 
        1.05541          51.632         18.4772         54.7252 
        1.06154         51.5209         18.2308         54.2065 
        1.06769         50.9999         17.9886         53.8372 
        1.07382         50.7332         17.7516         53.4529 
        1.07993         50.4895         17.5194         53.0387 
        1.08607         49.9151         17.2904         52.7002 
        1.09222         49.7041         17.0653          52.306 
        1.09836         49.3048         16.8445         51.9855 
        1.10449         48.9191         16.6279         51.5945 
        1.11063         48.3614         16.4148         51.1763 
        1.11677         48.1068         16.2056         50.8337 
         1.1229         47.9197         16.0005          50.627 
        1.12903         47.2159         15.7987         50.2731 
        1.13518         47.2704         15.6002         49.9086 
        1.14131         47.0492         15.4053         49.6364 
        1.14745         46.3928         15.2138         49.3148 
        1.15359         46.3096         15.0256         49.0673 
        1.15973         45.7844         14.8404         48.7245 
        1.16584         45.4735         14.6593         48.3291 
        1.17197         45.3102         14.4809         48.0908 
        1.17811         44.9662         14.3049         47.6889 
        1.18424         44.5174         14.1324         47.4024 
        1.19038          44.444         13.9623         47.2755 
        1.19652         44.1938          13.795         46.8394 
        1.20267         43.8309         13.6305         46.6785 
        1.20881         43.4881         13.4687          46.334 
        1.21495          43.155         13.3098         46.1416 
        1.22108         42.9057         13.1535         45.8064 
         1.2272         42.4374         13.0001          45.605 
        1.23334         42.3265         12.8488         45.2832 
        1.23949         42.2047         12.6995         44.9361 
        1.24562         41.8537         12.5531         44.7332 
        1.25174         41.6582         12.4092         44.5286 
        1.25789         41.3811         12.2671          44.211 
        1.26402         41.0716         12.1275         43.9269 
        1.27014         40.6916         11.9904         43.7501 
        1.27628         40.5487          11.855         43.4789 
        1.28244         40.2145         11.7215         43.2717 
        1.28858         40.0813         11.5902         43.0181 
        1.29471         39.9315         11.4612         42.8239 
        1.30084         39.6433         11.3344         42.4641 
        1.30697         39.3019         11.2092          42.194 
        1.31312         39.0053         11.0858         42.0912 
        1.31925         38.8808         10.9646         41.8131 
        1.32537         38.6926         10.8454         41.5953 
        1.33151          38.382         10.7275         41.3967 
        1.33765         38.3159         10.6114         41.1684 
        1.34378         38.0772         10.4973         40.9372 
        1.34992         37.5997         10.3848           40.75 
        1.35606         37.4426         10.2738         40.5932 
         1.3622         37.2305         10.1645         40.3615 
        1.36833         37.0353         10.0571         40.1443 
        1.37445         36.9914          9.9513         39.9103 
        1.38059         36.7499          9.8467          39.813 
        1.38675         36.4064         9.74337         39.5508 
        1.39288         36.3081         9.64193         39.3853 
        1.39901          35.971         9.54198         39.1717 
        1.40515         35.8288         9.44323         38.9317 
         1.4113         35.7068         9.34591         38.7294 
        1.41742          35.342         9.25034         38.5759 
        1.42355         35.2586         9.15594         38.3585 
         1.4297         34.9918         9.06256         38.1153 
        1.43585         34.9375         8.97054         38.0018 
        1.44198         34.6168         8.88014         37.8337 
        1.44809         34.4735         8.79116         37.5691 
        1.45423         34.3387         8.70308         37.3585 
        1.46036         34.1703         8.61637         37.2119 
        1.46649          33.917         8.53081         37.0782 
        1.47263         33.7473         8.44635         36.9222 
        1.47877         33.6233         8.36307          36.734 
        1.48491         33.4278         8.28078         36.5281 
        1.49104         33.2548         8.19978         36.3436 
        1.49718         32.9428         8.11981         36.1761 
        1.50333         32.8805         8.04078         36.0419 
        1.50947         32.7111         7.96296         35.8944 
         1.5156         32.4945         7.88629         35.7198 
        1.52172         32.2633         7.81063         35.5385 
        1.52787         32.2998         7.73582         35.3649 
          1.534          31.986         7.66207         35.2217 
        1.54013         31.7845         7.58937         35.0446 
        1.54627         31.7244         7.51748         34.8558 
        1.55241         31.5072         7.44651         34.7051 
        1.55855         31.3329         7.37656         34.5749 
        1.56467         31.1109         7.30771         34.4287 
         1.5708         31.0688         7.23954          34.283 
        1.57695         30.7598         7.17214         34.1137 
        1.58308         30.8047         7.10575         33.9398 
        1.58922         30.6122         7.04017         33.8103 
        1.59535         30.3862         6.97543         33.6725 
         1.6015         30.2242         6.91143         33.5007 
        1.60764         30.1382         6.84825         33.3385 
        1.61376         29.9285         6.78605         33.2102 
        1.61989         29.6864         6.72457         33.0706 
        1.62604         29.6677         6.66371         32.9497 
        1.63218         29.4634         6.60365         32.8374 
        1.63831         29.3487         6.54447          32.702 
        1.64444           29.22         6.48599         32.5428 
        1.65059         28.9741         6.42809         32.3948 
        1.65673         28.8781         6.37095         32.2443 
        1.66285         28.7449         6.31468         32.1206 
        1.66898         28.6022         6.25906         32.0266 
        1.67512         28.5106         6.20401         31.8821 
        1.68127         28.2682         6.14957         31.7275 
         1.6874         28.1848          6.0959         31.5664 
        1.69353         28.0611         6.04291         31.3965 
        1.69967         27.8814         5.99043         31.3028 
        1.70581         27.7761         5.93859          31.237 
        1.71193         27.6379         5.88756         31.1182 
        1.71806          27.499         5.83702         30.9163 
        1.72421         27.3252         5.78698         30.7756 
        1.73035         27.2122         5.73758         30.7101 
        1.73649         27.1114         5.68877         30.6214 
        1.74262         26.9369         5.64057         30.4047 
        1.74876         26.9097          5.5929         30.2627 
        1.75489         26.7038         5.54587          30.193 
        1.76101         26.5851          5.4994         30.1013 
        1.76715         26.4654          5.4534         29.9655 
        1.77329         26.3746         5.40788         29.8284 
        1.77943         26.2341         5.36285          29.709 
        1.78557         26.0957          5.3184         29.5958 
        1.79171         25.9857         5.27445         29.4768 
        1.79785         25.8381         5.23099         29.3861 
        1.80399         25.7171         5.18803         29.3199 
        1.81012         25.6696          5.1456           29.13 
        1.81625         25.5277         5.10367         28.9635 
        1.82239         25.4659         5.06215         28.8979 
        1.82853         25.2218         5.02111         28.8053 
        1.83466         25.1117         4.98056         28.7001 
        1.84078         24.9438         4.94051         28.5984 
        1.84692          24.916         4.90082         28.4913 
        1.85306         24.7694         4.86153          28.386 
         1.8592         24.6449         4.82273         28.2803 
        1.86533         24.5157         4.78438         28.1672 
        1.87147         24.4199          4.7464         28.0539 
