# k  (h/Mpc)    P(k)  (Mpc/h)^3    P_linear(k)  (Mpc/h)^3     P_NL(k)  ShotnoiseSubtracted = false
     0.00783031          76.744         77.3967         77.0416 
       0.013688         96.5939         97.0142         96.5923 
       0.019231         99.4742         99.5982         99.1303 
      0.0249154          92.938         93.2205         92.9297 
      0.0312784         81.4012         81.4285         81.3687 
      0.0375637         69.5152         69.4103         69.4159 
      0.0433917         60.1268         60.0685         60.1207 
      0.0492413         53.1376         53.0518         53.1107 
      0.0555754         47.8532         47.8338         47.8575 
      0.0619321         44.3568         44.2741         44.2745 
       0.067871         41.6028         41.6278          41.599 
      0.0738098         38.9409         38.9903         38.9421 
      0.0800417         35.7865           35.86           35.82 
      0.0862327         32.3363         32.3686         32.3521 
      0.0921407         28.9235         28.9252         28.9293 
      0.0982031         25.6074         25.6178         25.6447 
       0.104506         22.7664         22.7209         22.7598 
       0.110769         20.5709         20.5327         20.5649 
       0.116806         19.0453         19.0479         19.0674 
       0.122832         18.0496         18.0337         18.0468 
       0.129052         17.2483         17.2656         17.2684 
       0.135211         16.5376         16.5689         16.5669 
       0.141259         15.7755         15.7907         15.7913 
       0.147318         14.8547         14.8512          14.862 
       0.153489         13.7484         13.7545         13.7659 
       0.159709          12.599         12.6001         12.6225 
       0.165845         11.5561         11.5253         11.5604 
       0.171974         10.6062         10.6046         10.6384 
       0.178125          9.8866         9.87759         9.91563 
       0.184229         9.36259         9.34593         9.38093 
        0.19034         8.95076         8.96063         8.99071 
       0.196428         8.66069         8.66026           8.682 
       0.202534         8.39722         8.37803         8.39944 
       0.208729         8.06193         8.06018         8.08143 
       0.214876         7.67803         7.68944         7.71914 
       0.220989         7.28586         7.27112         7.30515 
       0.227147         6.82001         6.82665         6.86218 
        0.23329         6.39197         6.39587         6.43745 
       0.239377         6.01247          6.0123         6.05627 
       0.245482         5.68564         5.68895         5.72839 
       0.251667         5.43689         5.42734         5.46898 
       0.257832          5.2238         5.22206         5.26116 
       0.263955         5.05786         5.05363         5.08964 
       0.270079         4.90365         4.89923         4.93345 
        0.27624         4.75265         4.73981         4.77216 
       0.282372         4.57824         4.56656         4.60213 
        0.28843          4.3826            4.38         4.41716 
       0.294538         4.18664         4.18221         4.22095 
       0.300721         3.99652         3.98313         4.02457 
        0.30691         3.80139         3.79569         3.83793 
       0.313033         3.63749         3.63017          3.6711 
       0.319153         3.48163         3.48731         3.52947 
       0.325316         3.37861         3.36504         3.40771 
        0.33145         3.26976         3.25938         3.29928 
       0.337538         3.17204         3.16385         3.20211 
       0.343633         3.07487         3.07083         3.10842 
       0.349808         2.98234         2.97497          3.0142 
       0.355968         2.88442         2.87542         2.91925 
       0.362074         2.78041         2.77403         2.81577 
       0.368217         2.67926          2.6718         2.71037 
       0.374374          2.5744          2.5726         2.61391 
       0.380519         2.48801         2.48006         2.51986 
       0.386598         2.40638         2.39636         2.43711 
       0.392688         2.33389         2.32094         2.36124 
        0.39888         2.26145         2.25161         2.29156 
       0.405048         2.19827          2.1879         2.22505 
       0.411186          2.1388         2.12775         2.16834 
       0.417313         2.07675         2.06886         2.10799 
       0.423458         2.02102         2.00983         2.04947 
       0.429607         1.95801         1.95071         1.98897 
       0.435692         1.90006          1.8924         1.93201 
       0.441815         1.84311         1.83492         1.87649 
       0.447964         1.79228         1.77953         1.81951 
       0.454126         1.73509         1.72706         1.76644 
       0.460267         1.68554         1.67809         1.71846 
       0.466387          1.6389         1.63269         1.67099 
        0.47254         1.59706         1.58988         1.62842 
       0.478662         1.55778         1.54934          1.5869 
       0.484765         1.51684         1.51037         1.54791 
       0.490885         1.47968         1.47226         1.51244 
       0.497035         1.44644         1.43455         1.47518 
       0.503198          1.4064         1.39728         1.43459 
       0.509342         1.37204         1.36091         1.39903 
       0.515458         1.33446         1.32578         1.36559 
       0.521598         1.30085         1.29182         1.32856 
       0.527764         1.26596         1.25914         1.29566 
       0.533884           1.239         1.22825          1.2646 
           0.54         1.20845          1.1989         1.23455 
       0.546137          1.1813         1.17073         1.20729 
       0.552299         1.15327         1.14347         1.17729 
       0.558452         1.12499         1.11705         1.15146 
       0.564573         1.10072         1.09145         1.12847 
       0.570708         1.07566         1.06643          1.1025 
       0.576825         1.05035         1.04208          1.0773 
       0.582926         1.02863         1.01838         1.05415 
       0.589034         1.00146        0.995309         1.03225 
       0.595184        0.979881        0.972829         1.00591 
       0.601379        0.958491        0.951017        0.986927 
       0.607522        0.939331        0.930214          0.9653 
       0.613639        0.921067        0.910236        0.944635 
       0.619772        0.898607         0.89086         0.92634 
       0.625918        0.880483         0.87202        0.905979 
       0.632068        0.863414        0.853686        0.886928 
       0.638161        0.844565        0.836012        0.869269 
         0.6443        0.827256         0.81868        0.851117 
       0.650464        0.808749        0.801746         0.83564 
       0.656582        0.793599        0.785383        0.818605 
       0.662703        0.777865        0.769453        0.801978 
       0.668861        0.763996        0.753869        0.787394 
       0.675024        0.747353        0.738713        0.771397 
       0.681124        0.731118        0.724151        0.756141 
       0.687237        0.718678        0.709987        0.740625 
       0.693381        0.705252        0.696171        0.726018 
       0.699536        0.689122        0.682722        0.712973 
       0.705665        0.676645        0.669698        0.701922 
       0.711789        0.665213        0.657026        0.688517 
       0.717957        0.651598        0.644584        0.674894 
        0.72409        0.640118        0.632516        0.663013 
       0.730186        0.627681        0.620815        0.650321 
       0.736317         0.61814        0.609338        0.638358 
       0.742472        0.606255        0.598104          0.6287 
       0.748622        0.594714        0.587166        0.617825 
        0.75476        0.583246        0.576532        0.605701 
       0.760888        0.572449        0.566189         0.59545 
       0.767043        0.565049         0.55607        0.585603 
       0.773185        0.553532        0.546228        0.576066 
       0.779291        0.543931        0.536688        0.566226 
       0.785407        0.534782        0.527367        0.556284 
       0.791564        0.525862        0.518212        0.547066 
       0.797719        0.517439        0.509278        0.536949 
       0.803834        0.508813        0.500611          0.5286 
       0.809972        0.499736        0.492113        0.520976 
       0.816124        0.491116        0.483792        0.511427 
       0.822261        0.482412        0.475685        0.502932 
       0.828378        0.475327        0.467788        0.495051 
       0.834502        0.468098        0.460064        0.486651 
       0.840667        0.459207        0.452466        0.479384 
       0.846816        0.451978        0.445061        0.473035 
       0.852925        0.445931        0.437871        0.464906 
       0.859047        0.438678        0.430827        0.458672 
       0.865192        0.430949        0.423915        0.450936 
       0.871341        0.424021        0.417153        0.443763 
       0.877463        0.418686         0.41057        0.436666 
       0.883569        0.411409        0.404148        0.430749 
       0.889708        0.405074        0.397831        0.424261 
       0.895864        0.398727        0.391634        0.417567 
       0.902008        0.392429        0.385582        0.411445 
       0.908149        0.386343        0.379663        0.405523 
       0.914301        0.379478         0.37386        0.399165 
       0.920448        0.374373        0.368183        0.393201 
       0.926574        0.368709        0.362645        0.387897 
       0.932687         0.36302        0.357234        0.381464 
       0.938823        0.358857        0.351913        0.377399 
       0.944975        0.353209         0.34669        0.370765 
       0.951105         0.34831        0.341592        0.365636 
       0.957225        0.343832        0.336606        0.361193 
       0.963368        0.338499        0.331703        0.355679 
       0.969511        0.333101        0.326898        0.350891 
       0.975621        0.328278        0.322215        0.345116 
       0.981748        0.324624        0.317613        0.340533 
       0.987916        0.319696        0.313071        0.336908 
        0.99406        0.314993        0.308636        0.332556 
        1.00019         0.31114        0.304297         0.32796 
        1.00632        0.305963        0.300045        0.323019 
        1.01246         0.30173        0.295869        0.318586 
        1.01859        0.298088         0.29178        0.314768 
        1.02471        0.293852        0.287773         0.31064 
        1.03085        0.290701        0.283828        0.305889 
        1.03698        0.286137        0.279966        0.301785 
        1.04314        0.282456         0.27616        0.298107 
        1.04929        0.278364        0.272434        0.294329 
        1.05541        0.275229        0.268792        0.290926 
        1.06154        0.271156        0.265208        0.287168 
        1.06769        0.267344        0.261685        0.283462 
        1.07382        0.264086        0.258237         0.27981 
        1.07993        0.260355        0.254859        0.276244 
        1.08607        0.257874        0.251528        0.273038 
        1.09222        0.253995        0.248253        0.269195 
        1.09836        0.251418        0.245041        0.266171 
        1.10449         0.24812         0.24189        0.262927 
        1.11063        0.244447        0.238791        0.259262 
        1.11677        0.241127        0.235748        0.256553 
         1.1229        0.238591        0.232763        0.253424 
        1.12903        0.235358        0.229827        0.250269 
        1.13518        0.232688         0.22694        0.247272 
        1.14131         0.22961        0.224105         0.24441 
        1.14745        0.226076        0.221319        0.241021 
        1.15359        0.223874        0.218581        0.238585 
        1.15973         0.22074        0.215888         0.23594 
        1.16584        0.218701        0.213252        0.232806 
        1.17197        0.215986        0.210657        0.230292 
        1.17811        0.213667        0.208097        0.227827 
        1.18424        0.211393        0.205588        0.224771 
        1.19038        0.208447        0.203113        0.222286 
        1.19652        0.205484        0.200679        0.219955 
        1.20267        0.203777        0.198286        0.216893 
        1.20881        0.201229        0.195932        0.214797 
        1.21495         0.19923        0.193621        0.212905 
        1.22108        0.196607        0.191347            0.21 
         1.2272        0.194601        0.189115         0.20743 
        1.23334        0.192161        0.186914        0.205345 
        1.23949        0.189992        0.184743        0.203348 
        1.24562         0.18781        0.182613        0.201055 
        1.25174        0.185813        0.180519        0.198609 
        1.25789        0.184019        0.178452        0.196451 
        1.26402         0.18133        0.176421        0.194356 
        1.27014        0.179546        0.174427        0.192159 
        1.27628        0.177752        0.172458        0.189999 
        1.28244        0.175293        0.170516        0.188039 
        1.28858        0.173649        0.168606        0.185787 
        1.29471        0.172142         0.16673        0.184011 
        1.30084        0.169903        0.164884        0.182478 
        1.30697        0.168057        0.163063        0.180384 
        1.31312        0.165795        0.161268         0.17839 
        1.31925        0.164225        0.159505        0.176743 
        1.32537         0.16269        0.157771        0.174938 
        1.33151        0.161089        0.156056        0.173101 
        1.33765        0.159348        0.154367        0.171311 
        1.34378        0.157389        0.152708        0.169573 
        1.34992        0.155796        0.151071        0.167882 
        1.35606        0.154224        0.149455         0.16591 
         1.3622         0.15263        0.147866         0.16431 
        1.36833        0.150908        0.146303        0.162835 
        1.37445        0.149037        0.144764        0.161286 
        1.38059        0.147681        0.143243         0.15953 
        1.38675        0.146671        0.141739        0.157854 
        1.39288        0.144985        0.140264        0.156255 
        1.39901        0.143428         0.13881        0.154814 
        1.40515        0.142213        0.137373        0.153216 
         1.4113        0.140407        0.135958         0.15188 
        1.41742         0.13903        0.134567        0.150726 
        1.42355        0.137913        0.133194        0.148643 
         1.4297         0.13628        0.131836        0.147663 
        1.43585        0.135049        0.130497        0.146109 
        1.44198        0.133844        0.129182        0.144256 
        1.44809        0.132326        0.127887        0.143474 
        1.45423        0.131171        0.126606        0.141595 
        1.46036        0.129774        0.125345        0.140434 
        1.46649        0.128815          0.1241        0.139429 
        1.47263        0.127437        0.122871        0.137964 
        1.47877        0.125845         0.12166        0.136682 
        1.48491        0.124926        0.120463        0.135584 
        1.49104        0.123403        0.119284        0.133947 
        1.49718        0.122232        0.118121        0.133112 
        1.50333        0.121417        0.116971        0.131475 
        1.50947        0.120062        0.115839        0.130199 
         1.5156        0.118888        0.114724        0.129323 
        1.52172        0.117879        0.113623        0.127961 
        1.52787        0.116738        0.112535        0.126767 
          1.534        0.115476        0.111462        0.125804 
        1.54013        0.114463        0.110405        0.124639 
        1.54627        0.113588        0.109359        0.123424 
        1.55241        0.112288        0.108326        0.122317 
        1.55855        0.111201        0.107309        0.121227 
        1.56467        0.110597        0.106307        0.120271 
         1.5708        0.109384        0.105316         0.11905 
        1.57695        0.108343        0.104335        0.117885 
        1.58308        0.107362        0.103369        0.117061 
        1.58922        0.106421        0.102415        0.116095 
        1.59535        0.105447        0.101474        0.114985 
         1.6015        0.104379        0.100542        0.113849 
        1.60764        0.103605       0.0996234        0.113018 
        1.61376        0.102494       0.0987185         0.11232 
        1.61989        0.101696       0.0978241        0.111253 
        1.62604        0.100891       0.0969389         0.11023 
        1.63218       0.0999589       0.0960651        0.109339 
        1.63831        0.099077       0.0952041        0.108412 
        1.64444       0.0982373       0.0943534        0.107382 
        1.65059       0.0974321       0.0935111         0.10647 
        1.65673       0.0965558         0.09268        0.105648 
        1.66285       0.0958284       0.0918614        0.104785 
        1.66898       0.0949428       0.0910523        0.103834 
        1.67512       0.0939925       0.0902515        0.102962 
        1.68127       0.0931304       0.0894595        0.102164 
         1.6874       0.0925156       0.0886788        0.101406 
        1.69353        0.091515       0.0879079        0.100602 
        1.69967       0.0910308       0.0871444       0.0996189 
        1.70581       0.0899362       0.0863903       0.0987773 
        1.71193       0.0892973        0.085648       0.0980674 
        1.71806        0.088439       0.0849128       0.0972173 
        1.72421       0.0879648       0.0841848        0.096542 
        1.73035       0.0870584       0.0834662       0.0957509 
        1.73649       0.0864344       0.0827562       0.0947774 
        1.74262       0.0856717        0.082055       0.0940509 
        1.74876       0.0849312       0.0813614       0.0934703 
        1.75489       0.0843705       0.0806773       0.0927604 
        1.76101       0.0835458       0.0800014       0.0919166 
        1.76715       0.0828282       0.0793322       0.0912771 
        1.77329       0.0820364       0.0786699       0.0906337 
        1.77943       0.0814639       0.0780149       0.0898695 
        1.78557       0.0809468       0.0773683       0.0890649 
        1.79171       0.0802703       0.0767289        0.088291 
        1.79785       0.0796383       0.0760967       0.0876488 
        1.80399       0.0789466       0.0754717       0.0870937 
        1.81012       0.0783844       0.0748546       0.0862297 
        1.81625       0.0776814       0.0742446       0.0855078 
        1.82239       0.0770449       0.0736405       0.0850933 
        1.82853       0.0764377       0.0730435       0.0845147 
        1.83466       0.0758587       0.0724536       0.0837762 
        1.84078       0.0752504       0.0718709       0.0830709 
        1.84692        0.074573       0.0712937       0.0825449 
        1.85306       0.0741443       0.0707221       0.0818357 
         1.8592       0.0734128       0.0701576       0.0810789 
        1.86533       0.0729432       0.0695997        0.080582 
        1.87147       0.0723433       0.0690472       0.0800352 
        1.87761       0.0718849       0.0685004       0.0794818 
