# k  (h/Mpc)    Pcb(k)  (Mpc/h)^3    Pcb_linear(k) (Mpc/h)^3    Pcb_NL(k) (Mpc/h)^3   ShotnoiseSubtracted = false
     0.00783031         15885.3         16114.1         16034.5 
       0.013688         20332.4         20137.8         19997.2 
       0.019231         20684.3         20654.7         20466.6 
      0.0249154         18886.3         19323.2         19122.1 
      0.0312784           16651         16874.2         16666.9 
      0.0375637           14354         14381.3         14199.3 
      0.0433917         12194.3         12444.5         12253.2 
      0.0492413         10897.7         10990.1         10813.5 
      0.0555754            9584         9908.63         9752.31 
      0.0619321         9174.58         9170.91         9017.83 
       0.067871         8356.22         8622.53         8480.07 
      0.0738098         7818.64         8076.05         7854.59 
      0.0800417         7097.57         7427.51         7232.28 
      0.0862327         6494.25         6704.23         6608.68 
      0.0921407         5929.33         5990.94         5926.83 
      0.0982031          5245.2         5305.85         5352.46 
       0.104506         4837.33         4705.82         4839.74 
       0.110769         4398.44         4252.58         4349.86 
       0.116806         4094.67         3945.04         4033.31 
       0.122832         3886.39         3734.97         3829.14 
       0.129052         3626.88         3575.88         3657.37 
       0.135211          3477.5         3431.57         3501.63 
       0.141259         3364.24          3270.4         3375.08 
       0.147318         3196.24          3075.8         3222.94 
       0.153489         2939.16         2848.66          2967.9 
       0.159709         2771.38         2609.56         2789.78 
       0.165845         2643.69         2386.95         2647.84 
       0.171974         2474.01         2196.27         2467.46 
       0.178125         2338.85         2045.69         2363.15 
       0.184229         2225.23         1935.58          2229.9 
        0.19034         2108.31         1855.78         2138.67 
       0.196428         2072.74         1793.58         2055.35 
       0.202534         2002.52         1735.13          2002.1 
       0.208729         1920.78          1669.3         1914.56 
       0.214876         1848.37         1592.51          1879.5 
       0.220989         1786.38         1505.87         1822.73 
       0.227147         1708.57         1413.82         1756.79 
        0.23329         1637.56          1324.6         1695.69 
       0.239377         1608.28         1245.16         1618.17 
       0.245482         1506.85          1178.2         1538.55 
       0.251667         1496.92         1124.02         1495.55 
       0.257832         1437.67          1081.5         1442.72 
       0.263955         1392.07         1046.62         1402.43 
       0.270079         1346.12         1014.64         1368.06 
        0.27624         1332.19         981.623          1332.2 
       0.282372         1277.31         945.745          1311.3 
        0.28843         1269.96         907.104          1284.8 
       0.294538         1207.73         866.142         1248.04 
       0.300721         1199.84         824.913         1208.88 
        0.30691         1152.77         786.092         1187.79 
       0.313033         1129.64          751.81         1145.92 
       0.319153         1110.69          722.23         1110.96 
       0.325316         1074.45         696.905         1090.49 
        0.33145         1051.22         675.021          1052.5 
       0.337538         1031.98         655.238         1036.34 
       0.343633         1009.53         635.973         1026.69 
       0.349808         976.238         616.117          1011.9 
       0.355968         969.361         595.504         995.196 
       0.362074           959.7         574.504         976.798 
       0.368217         929.729         553.333         951.883 
       0.374374         894.858         532.789         932.395 
       0.380519         896.177         513.622         911.727 
       0.386598         870.941         496.289         899.362 
       0.392688         867.902         480.669         877.323 
        0.39888         842.505         466.309         863.211 
       0.405048         832.083         453.116          849.26 
       0.411186         820.328         440.657         834.089 
       0.417313         803.229         428.464         823.784 
       0.423458         789.223         416.238         810.439 
       0.429607         779.036         403.991         797.228 
       0.435692         762.807         391.918         780.293 
       0.441815         756.267         380.012          776.64 
       0.447964         740.232         368.541         765.673 
       0.454126         733.405         357.673         743.594 
       0.460267         715.596         347.535         741.514 
       0.466387         707.316          338.13         728.113 
        0.47254         701.959         329.265         717.814 
       0.478662         695.232         320.869         707.013 
       0.484765         674.706         312.797         698.938 
       0.490885         670.628         304.905         686.601 
       0.497035          656.37         297.096          680.46 
       0.503198         652.294         289.376         672.738 
       0.509342         645.599         281.844         661.356 
       0.515458         641.502          274.57         656.688 
       0.521598         625.367         267.535         649.555 
       0.527764          614.27         260.768         642.904 
       0.533884          612.41         254.371         634.882 
           0.54         606.082         248.293          626.65 
       0.546137         601.037         242.459         619.395 
       0.552299         592.321         236.812         610.809 
       0.558452         587.953         231.341         606.012 
       0.564573         580.262         226.039         600.953 
       0.570708         573.798         220.857         593.942 
       0.576825         558.362         215.814         585.378 
       0.582926         560.453         210.906         581.139 
       0.589034         554.574         206.128         572.397 
       0.595184         549.805         201.473         566.562 
       0.601379         541.572         196.956         561.304 
       0.607522         534.318         192.647         553.166 
       0.613639         534.021          188.51         551.886 
       0.619772         522.582         184.497         550.057 
       0.625918         519.801         180.595         541.822 
       0.632068         512.515         176.799         538.585 
       0.638161         510.548         173.138          530.74 
         0.6443          501.65         169.549         526.672 
       0.650464         499.372         166.041         518.728 
       0.656582         495.284         162.653         515.998 
       0.662703         493.451         159.354         512.354 
       0.668861         485.097         156.126         509.827 
       0.675024         481.033         152.987         506.063 
       0.681124         477.548         149.971          498.01 
       0.687237         473.539         147.038         493.561 
       0.693381         467.126         144.177         489.158 
       0.699536         460.085         141.392         485.916 
       0.705665         459.397         138.694         479.972 
       0.711789         456.791          136.07         476.755 
       0.717957         452.486         133.493         475.913 
        0.72409         449.973         130.994         470.544 
       0.730186         443.241         128.571         465.851 
       0.736317         440.469         126.194         462.461 
       0.742472         437.899         123.867         458.901 
       0.748622         433.258         121.602         454.596 
        0.75476         427.079           119.4         455.291 
       0.760888         422.993         117.258         449.245 
       0.767043         423.617         115.162         444.219 
       0.773185         418.986         113.124         441.641 
       0.779291         414.141         111.148         437.792 
       0.785407         411.654         109.218         435.241 
       0.791564          406.78         107.321         433.201 
       0.797719         404.628         105.471          428.92 
       0.803834         400.139         103.676         426.708 
       0.809972         399.337         101.916         423.957 
       0.816124         398.129         100.193         418.642 
       0.822261         392.393         98.5142          416.88 
       0.828378         390.478         96.8788         413.704 
       0.834502         385.938         95.2792         412.232 
       0.840667         383.042         93.7055         408.601 
       0.846816         381.278         92.1721         405.678 
       0.852925         378.584          90.683         403.363 
       0.859047         376.617          89.224         399.653 
       0.865192         371.905         87.7927         396.689 
       0.871341         368.925         86.3923         394.681 
       0.877463         368.424          85.029         392.352 
       0.883569         365.071         83.6988         390.698 
       0.889708          362.25         82.3906         386.641 
       0.895864         360.374         81.1072         384.662 
       0.902008         357.258          79.854         381.903 
       0.908149         353.499         78.6281          378.63 
       0.914301         351.054         77.4262         375.641 
       0.920448         349.063         76.2506         374.501 
       0.926574         344.256         75.1037         371.698 
       0.932687         344.275         73.9829         368.967 
       0.938823         340.392         72.8811         368.275 
       0.944975         340.467         71.7994         365.134 
       0.951105         336.521         70.7436         362.429 
       0.957225         334.377          69.711         360.636 
       0.963368         330.455         68.6956         358.462 
       0.969511         329.308         67.7005         356.312 
       0.975621         327.128         66.7307         353.874 
       0.981748          325.47         65.7774         351.943 
       0.987916         323.608         64.8369         350.327 
        0.99406          318.48         63.9185         347.917 
        1.00019         317.388         63.0197         344.818 
        1.00632         315.915         62.1392         342.743 
        1.01246         313.174         61.2743         340.387 
        1.01859         313.502         60.4274         338.388 
        1.02471         308.649         59.5977         336.951 
        1.03085         307.065         58.7807         335.704 
        1.03698         305.976         57.9809         334.309 
        1.04314          303.05         57.1927         331.809 
        1.04929         300.541          56.421         328.986 
        1.05541         301.045         55.6668         327.082 
        1.06154         295.854         54.9245         325.542 
        1.06769         295.199         54.1947         323.343 
        1.07382         292.978         53.4807         321.622 
        1.07993         291.136         52.7811         320.027 
        1.08607         290.303         52.0913         317.626 
        1.09222         287.297         51.4131         315.999 
        1.09836         285.325         50.7479         314.857 
        1.10449         282.942         50.0953         313.131 
        1.11063         280.098         49.4535         310.585 
        1.11677         279.981         48.8232         309.081 
         1.1229         277.863          48.205         307.313 
        1.12903         276.072         47.5971         305.796 
        1.13518         273.742         46.9992         303.736 
        1.14131         272.078         46.4119         302.196 
        1.14745         270.936          45.835         300.081 
        1.15359         268.973         45.2679           299.3 
        1.15973         266.953         44.7102         297.393 
        1.16584          265.08         44.1644         296.171 
        1.17197         265.051         43.6269         294.741 
        1.17811         261.603         43.0968         292.658 
        1.18424          260.01         42.5771          291.23 
        1.19038         259.153         42.0645         290.297 
        1.19652          256.83         41.5605         288.018 
        1.20267         256.178         41.0649          286.65 
        1.20881         254.113         40.5775         285.152 
        1.21495         252.283         40.0987         283.404 
        1.22108         250.813         39.6278         281.656 
         1.2272         249.234         39.1657         280.374 
        1.23334         247.871         38.7098         278.847 
        1.23949         245.858         38.2602         277.523 
        1.24562         244.898          37.819         275.814 
        1.25174          243.25         37.3854         274.497 
        1.25789         241.304         36.9573         272.929 
        1.26402         239.218         36.5368         272.182 
        1.27014         237.867         36.1238         270.155 
        1.27628         236.499          35.716         269.607 
        1.28244         236.153         35.3137         268.345 
        1.28858         233.749         34.9182         266.651 
        1.29471         232.262         34.5296         264.669 
        1.30084          230.73         34.1473         263.319 
        1.30697         229.373         33.7703         262.362 
        1.31312         227.097         33.3984         260.888 
        1.31925         226.268         33.0334         259.603 
        1.32537         225.484         32.6742         257.956 
        1.33151         223.311          32.319         256.865 
        1.33765         221.708         31.9694          255.84 
        1.34378         221.032         31.6256         254.344 
        1.34992         219.675         31.2867         252.863 
        1.35606         219.244          30.952         251.364 
         1.3622         216.842         30.6229         250.625 
        1.36833         215.145         30.2993         249.637 
        1.37445         214.277         29.9805         247.538 
        1.38059         212.396         29.6654         246.856 
        1.38675         211.576         29.3541         245.987 
        1.39288         210.295         29.0485         244.089 
        1.39901         209.488         28.7474         242.825 
        1.40515         207.631         28.4499         241.513 
         1.4113         206.521         28.1567         240.256 
        1.41742         204.945         27.8688          239.34 
        1.42355          204.13         27.5843         237.925 
         1.4297         202.212          27.303         236.639 
        1.43585         201.243         27.0258         236.209 
        1.44198         200.244         26.7534          234.77 
        1.44809         199.038         26.4854         233.704 
        1.45423         197.982           26.22         231.942 
        1.46036         196.629         25.9588          231.09 
        1.46649         195.122          25.701         230.275 
        1.47263         194.104         25.4465         228.827 
        1.47877         192.758         25.1956         227.463 
        1.48491         191.041         24.9477         226.197 
        1.49104         190.527         24.7037         225.455 
        1.49718         188.817         24.4628         224.857 
        1.50333         188.114         24.2247         223.503 
        1.50947         186.863         23.9902         222.392 
         1.5156         185.318         23.7592         221.375 
        1.52172         184.669         23.5313         220.006 
        1.52787         182.947         23.3059         219.212 
          1.534         182.585         23.0837         218.161 
        1.54013         181.107         22.8647         217.129 
        1.54627         179.971         22.6481         216.312 
        1.55241         178.766         22.4343         215.321 
        1.55855         177.668         22.2236         214.183 
        1.56467         176.492         22.0161         212.953 
         1.5708         175.725         21.8108         211.916 
        1.57695         174.722         21.6077         210.968 
        1.58308         173.642         21.4077          209.87 
        1.58922         172.335         21.2101         208.869 
        1.59535         171.039         21.0151         208.158 
         1.6015         170.345         20.8222         207.323 
        1.60764         169.245         20.6319         206.175 
        1.61376         168.292         20.4445          205.09 
        1.61989         167.312         20.2593         204.162 
        1.62604         166.189         20.0759         203.054 
        1.63218          165.26          19.895         202.142 
        1.63831         163.986         19.7167         201.426 
        1.64444         163.277         19.5405          200.42 
        1.65059          162.22         19.3661         199.548 
        1.65673         161.033         19.1939         198.633 
        1.66285         160.129         19.0244         197.617 
        1.66898         159.152         18.8568          196.64 
        1.67512         158.714          18.691         195.847 
        1.68127         157.023          18.527         194.963 
         1.6874         156.315         18.3653         194.048 
        1.69353         155.313         18.2056         193.269 
        1.69967         154.118         18.0475         192.349 
        1.70581         153.572         17.8913         191.534 
        1.71193         152.402         17.7376         190.709 
        1.71806         151.724         17.5854         189.551 
        1.72421         150.705         17.4346         188.754 
        1.73035         150.069         17.2858         187.978 
        1.73649         149.158         17.1387         187.019 
        1.74262         148.105         16.9935          186.25 
        1.74876         147.037         16.8499         185.421 
        1.75489         146.341         16.7082         184.613 
        1.76101         145.105         16.5682         183.934 
        1.76715         144.736         16.4296         183.197 
        1.77329         143.785         16.2925         182.358 
        1.77943         142.986         16.1568         181.449 
        1.78557         142.194         16.0229         180.548 
        1.79171         141.344         15.8905         179.794 
        1.79785          140.39         15.7595         179.015 
        1.80399         139.524         15.6301         178.112 
        1.81012         138.684         15.5023         177.587 
        1.81625         138.134          15.376         176.864 
        1.82239         137.066         15.2509         175.807 
        1.82853         136.481         15.1272         175.046 
        1.83466         135.408         15.0051         174.228 
        1.84078         134.864         14.8844         173.413 
        1.84692         133.606         14.7648         172.968 
        1.85306          133.35         14.6465         172.072 
         1.8592         132.385         14.5296         171.063 
        1.86533         131.598          14.414          170.67 
        1.87147         130.582         14.2996         170.121 
