# k  (h/Mpc)    Pcb(k)  (Mpc/h)^3    Pcb_linear(k) (Mpc/h)^3    Pcb_NL(k) (Mpc/h)^3   ShotnoiseSubtracted = false
     0.00783031         6180.18         6253.03         6225.33 
       0.013688         7860.95          7824.7         7783.48 
       0.019231         8040.76         8028.64         7977.54 
      0.0249154         7415.28         7512.45         7468.72 
      0.0312784         6525.56         6561.03          6528.1 
      0.0375637          5603.2         5592.11         5565.25 
      0.0433917         4797.62         4839.19         4813.37 
      0.0492413         4267.29         4273.74         4250.89 
      0.0555754         3794.46         3853.27         3831.72 
      0.0619321         3588.58         3566.44         3544.49 
       0.067871         3309.71         3353.23         3331.62 
      0.0738098         3095.79         3140.73         3106.22 
      0.0800417          2825.8         2888.54         2858.33 
      0.0862327         2572.12         2607.27         2594.19 
      0.0921407         2323.72         2329.89         2322.43 
      0.0982031         2050.25         2063.46         2075.52 
       0.104506         1862.45         1830.12         1857.03 
       0.110769         1686.48         1653.86         1672.45 
       0.116806         1557.24         1534.25            1551 
       0.122832          1483.3         1452.56         1470.75 
       0.129052         1397.02         1390.69         1405.78 
       0.135211         1340.13         1334.57         1348.87 
       0.141259         1289.69         1271.89         1291.42 
       0.147318         1220.88         1196.21         1225.96 
       0.153489         1124.05         1107.87         1130.27 
       0.159709         1046.59         1014.89         1048.49 
       0.165845         980.565         928.312         978.686 
       0.171974         903.942         854.157         903.827 
       0.178125         850.697         795.594         854.844 
       0.184229         810.757         752.772         808.971 
        0.19034         760.346         721.738         774.671 
       0.196428         748.669         697.545         742.835 
       0.202534         729.992         674.814         721.407 
       0.208729         697.089         649.211         692.753 
       0.214876         661.511          619.35         673.942 
       0.220989         638.678         585.655         645.267 
       0.227147          599.95         549.855         612.129 
        0.23329         570.403         515.156         585.096 
       0.239377         550.665         484.261         555.855 
       0.245482         512.499         458.218         525.011 
       0.251667         503.853         437.147         507.646 
       0.257832         486.385         420.611         488.362 
       0.263955         470.356         407.045         472.422 
       0.270079         454.797         394.607         459.144 
        0.27624         448.515         381.768         444.492 
       0.282372         430.981         367.814          432.55 
        0.28843         416.795         352.786         418.549 
       0.294538         397.514         336.856          405.47 
       0.300721         391.902         320.821         392.409 
        0.30691         372.665         305.723         379.547 
       0.313033         363.013          292.39         364.232 
       0.319153         348.703         280.886         353.009 
       0.325316         339.828         271.037         344.125 
        0.33145          329.05         262.526         331.841 
       0.337538         324.248         254.832         323.263 
       0.343633         313.821          247.34          318.51 
       0.349808         304.183         239.617         311.921 
       0.355968         299.274         231.601         305.499 
       0.362074         291.537         223.434         297.124 
       0.368217         283.351           215.2         287.055 
       0.374374         273.474          207.21          279.74 
       0.380519         268.618         199.756         271.735 
       0.386598         261.635         193.014         265.911 
       0.392688         258.074          186.94          258.99 
        0.39888         251.217         181.355         252.569 
       0.405048         245.483         176.224         248.764 
       0.411186         240.039         171.379         242.747 
       0.417313         235.264         166.636         236.422 
       0.423458         230.332         161.881         232.159 
       0.429607         224.855         157.119         227.585 
       0.435692          218.41         152.423         222.613 
       0.441815         216.596         147.793         219.782 
       0.447964         212.415         143.332         214.622 
       0.454126         203.632         139.105         208.512 
       0.460267         201.221         135.162         206.246 
       0.466387         198.582         131.504         201.654 
        0.47254         194.309         128.056         198.129 
       0.478662          192.61         124.791         194.367 
       0.484765         187.027         121.652         189.623 
       0.490885         184.167         118.582         187.291 
       0.497035         181.465         115.545         184.775 
       0.503198         176.732         112.543         181.502 
       0.509342         174.148         109.614         178.841 
       0.515458         171.729         106.785         176.816 
       0.521598         169.126         104.049         172.583 
       0.527764         166.507         101.417         169.279 
       0.533884         163.837         98.9288          166.95 
           0.54         161.143         96.5652         164.303 
       0.546137          159.76         94.2962         162.396 
       0.552299         157.016         92.1001         159.017 
       0.558452         154.134         89.9722         156.559 
       0.564573         151.428         87.9102          155.08 
       0.570708         149.147         85.8949         152.833 
       0.576825         147.118         83.9335         149.937 
       0.582926         144.595         82.0249         147.852 
       0.589034         142.341         80.1666         146.408 
       0.595184         140.624         78.3561         143.727 
       0.601379         139.155         76.5993         142.575 
       0.607522          135.85         74.9236         139.853 
       0.613639         135.399         73.3146         138.427 
       0.619772           132.4         71.7539         136.275 
       0.625918         130.985         70.2363         134.897 
       0.632068         129.501         68.7598         132.683 
       0.638161         128.178         67.3362         131.738 
         0.6443          126.47         65.9402         129.749 
       0.650464         124.906         64.5762         127.252 
       0.656582         123.289         63.2583         126.414 
       0.662703         121.256         61.9752         124.541 
       0.668861         119.781           60.72         123.246 
       0.675024         118.344         59.4993         121.477 
       0.681124         117.277         58.3264         120.189 
       0.687237          115.13         57.1856         118.661 
       0.693381         113.744         56.0727         117.121 
       0.699536         112.635         54.9895         116.222 
       0.705665         112.911         53.9405         115.393 
       0.711789          109.86         52.9198         113.233 
       0.717957         109.372         51.9177         112.232 
        0.72409         107.774         50.9457         111.626 
       0.730186         105.959         50.0033         110.342 
       0.736317         105.674         49.0788         108.742 
       0.742472         104.557          48.174         107.709 
       0.748622         103.586          47.293          106.42 
        0.75476         102.486         46.4365         105.211 
       0.760888          101.01         45.6034         103.876 
       0.767043         100.163         44.7883         103.396 
       0.773185         99.0315         43.9957         102.662 
       0.779291         98.0487         43.2273         101.471 
       0.785407          97.341         42.4765         100.083 
       0.791564         96.1111         41.7391         99.2976 
       0.797719         94.7664         41.0196         98.6617 
       0.803834         94.3356         40.3215         97.2451 
       0.809972         92.7636          39.637         96.4264 
       0.816124         92.3558         38.9668         95.8321 
       0.822261         91.5317         38.3138         94.7092 
       0.828378         90.6636         37.6778         93.4504 
       0.834502         89.9662         37.0556         93.0385 
       0.840667         88.9489         36.4436         92.5183 
       0.846816         87.9319         35.8472         91.4707 
       0.852925         87.1829         35.2681         90.5754 
       0.859047          86.037         34.7007         89.6708 
       0.865192         85.6425          34.144          89.121 
       0.871341         84.9751         33.5994         88.1502 
       0.877463         83.7442         33.0692         87.5701 
       0.883569         83.1994         32.5519         86.9585 
       0.889708         82.6838         32.0431         86.1672 
       0.895864         81.9233         31.5439         85.5582 
       0.902008         81.2423         31.0565         84.6359 
       0.908149         80.6739         30.5798         84.0215 
       0.914301         79.7874         30.1123         83.5038 
       0.920448         79.2447         29.6551         82.8028 
       0.926574          78.539         29.2091         81.8562 
       0.932687         78.1549         28.7732         81.3168 
       0.938823         76.9123         28.3447         80.6123 
       0.944975          76.567          27.924         80.0096 
       0.951105         75.8686         27.5133         79.4872 
       0.957225         74.9388         27.1117         78.9516 
       0.963368         74.7551         26.7168          78.031 
       0.969511          74.282         26.3299         77.5391 
       0.975621         73.7712         25.9527         77.5498 
       0.981748         73.0149         25.5819         76.6779 
       0.987916         72.4051         25.2162         76.2908 
        0.99406         71.9966          24.859         75.5358 
        1.00019         71.1594         24.5094         74.8973 
        1.00632         70.8632          24.167         74.4414 
        1.01246         70.1847         23.8306         73.8036 
        1.01859         69.2931         23.5012         73.4513 
        1.02471         69.4726         23.1785         73.0856 
        1.03085         68.6754         22.8608          72.407 
        1.03698         68.1223         22.5497         71.8229 
        1.04314         67.4528         22.2432         71.3357 
        1.04929         67.1004         21.9431         71.0363 
        1.05541          66.477         21.6497         70.7188 
        1.06154         66.3017         21.3611         70.1769 
        1.06769         65.7038         21.0772         69.7149 
        1.07382         65.4333         20.7995         69.2112 
        1.07993         65.0457         20.5275         68.7529 
        1.08607         64.3997         20.2592         68.3088 
        1.09222         64.0735         19.9954         67.7071 
        1.09836         63.6023         19.7367         67.3106 
        1.10449         63.1377         19.4829         66.9245 
        1.11063         62.5611         19.2333         66.3206 
        1.11677         62.1823         18.9882         65.8962 
         1.1229         61.8084         18.7477         65.7589 
        1.12903         60.9758         18.5113         65.2493 
        1.13518         61.1633         18.2788         64.8205 
        1.14131         60.7679         18.0504         64.4431 
        1.14745         59.9477          17.826         64.0835 
        1.15359         59.8185         17.6054         63.7112 
        1.15973         59.2593         17.3885         63.3607 
        1.16584          58.875         17.1763         62.8306 
        1.17197         58.5397         16.9672         62.5822 
        1.17811         58.2205         16.7611         62.0945 
        1.18424         57.6557         16.5589         61.7665 
        1.19038         57.4446         16.3596          61.499 
        1.19652         57.1807         16.1636          60.992 
        1.20267         56.6901         15.9708         60.7629 
        1.20881         56.3289         15.7812         60.3552 
        1.21495         55.8601         15.5951         60.0316 
        1.22108          55.554         15.4119         59.7412 
         1.2272         55.0281         15.2322         59.4184 
        1.23334         54.8403         15.0549         59.0431 
        1.23949         54.6989           14.88         58.6047 
        1.24562         54.2431         14.7084         58.3475 
        1.25174          53.989         14.5398         58.1164 
        1.25789         53.6872         14.3733         57.7037 
        1.26402         53.2451         14.2098         57.3651 
        1.27014         52.7596         14.0491         57.1775 
        1.27628         52.6069         13.8905         56.8323 
        1.28244         52.1311         13.7341         56.4376 
        1.28858         51.9374         13.5803         56.1738 
        1.29471         51.7903         13.4291         55.9832 
        1.30084         51.4139         13.2805         55.4605 
        1.30697         51.0034         13.1338         55.1673 
        1.31312         50.6664         12.9892         55.0595 
        1.31925         50.5194         12.8472          54.693 
        1.32537         50.2469         12.7075         54.4003 
        1.33151         49.7969         12.5694         54.1264 
        1.33765         49.6861         12.4334         53.8441 
        1.34378         49.3731         12.2997         53.5568 
        1.34992         48.8931         12.1679           53.33 
        1.35606         48.6554         12.0378         53.0968 
         1.3622         48.3429         11.9097         52.7889 
        1.36833         48.1492         11.7839         52.4888 
        1.37445         47.9906         11.6599         52.2514 
        1.38059         47.6723         11.5374         52.1636 
        1.38675         47.3194         11.4163         51.7347 
        1.39288         47.1385         11.2974         51.5708 
        1.39901         46.7888         11.1803         51.2848 
        1.40515         46.5745         11.0646         51.0434 
         1.4113         46.4157         10.9506         50.8174 
        1.41742         46.0433         10.8386         50.5094 
        1.42355           45.81          10.728         50.2477 
         1.4297         45.5105         10.6186         49.9749 
        1.43585         45.3744         10.5108         49.8272 
        1.44198         45.0629         10.4049         49.6443 
        1.44809         44.8592         10.3006         49.2281 
        1.45423         44.6705         10.1974         49.0224 
        1.46036         44.4027         10.0958         48.8552 
        1.46649         44.1247         9.99555         48.6792 
        1.47263         43.8835         9.89659         48.4707 
        1.47877         43.7421         9.79901         48.1637 
        1.48491         43.5474          9.7026         47.9499 
        1.49104         43.2232         9.60769         47.6722 
        1.49718         42.8361         9.51398         47.4906 
        1.50333         42.7435         9.42138         47.2843 
        1.50947         42.5285          9.3302          47.075 
         1.5156         42.2616         9.24037         46.8927 
        1.52172         42.0267         9.15172         46.6932 
        1.52787         42.0151         9.06406         46.4674 
          1.534         41.6568         8.97765         46.2611 
        1.54013         41.4199         8.89247         46.0447 
        1.54627         41.2971         8.80823         45.8192 
        1.55241         41.0078         8.72508         45.6041 
        1.55855         40.7759         8.64312         45.3896 
        1.56467         40.4357         8.56244         45.2016 
         1.5708         40.4333         8.48257         45.0632 
        1.57695         40.1248          8.4036         44.8997 
        1.58308         40.0387         8.32581         44.6684 
        1.58922         39.9244         8.24896         44.4391 
        1.59535         39.6316         8.17312         44.2525 
         1.6015         39.3458         8.09812         44.0389 
        1.60764          39.207          8.0241         43.8523 
        1.61376         39.0058         7.95121         43.7144 
        1.61989          38.671         7.87918         43.4955 
        1.62604         38.6268         7.80787         43.2829 
        1.63218         38.4472          7.7375         43.1216 
        1.63831         38.2177         7.66815         42.9727 
        1.64444         38.0645         7.59963         42.7766 
        1.65059         37.7262         7.53179         42.5832 
        1.65673         37.5831         7.46485         42.3942 
        1.66285          37.435         7.39891         42.2385 
        1.66898         37.2201         7.33374         42.1195 
        1.67512         37.0707         7.26924         41.9527 
        1.68127         36.8061         7.20545         41.7089 
         1.6874         36.7258         7.14257         41.4706 
        1.69353         36.4822         7.08048         41.3315 
        1.69967          36.322         7.01898         41.2165 
        1.70581         36.2307         6.95824         41.1158 
        1.71193         35.9952         6.89845         40.9536 
        1.71806         35.7631         6.83924         40.6553 
        1.72421         35.5723         6.78061          40.472 
        1.73035         35.3962         6.72273         40.4262 
        1.73649         35.2346         6.66554         40.3344 
        1.74262         35.0672         6.60906         39.9998 
        1.74876         35.0518          6.5532         39.8026 
        1.75489         34.7571          6.4981         39.7189 
        1.76101         34.5895         6.44365         39.5871 
        1.76715         34.4332         6.38975         39.4312 
        1.77329         34.2498         6.33641           39.27 
        1.77943           34.15         6.28365          39.108 
        1.78557         33.9413         6.23157         38.9466 
        1.79171         33.7621         6.18007         38.7877 
        1.79785         33.5989         6.12915         38.6682 
        1.80399         33.4773         6.07881         38.5737 
        1.81012         33.3524         6.02911         38.3292 
        1.81625         33.1244         5.97998         38.1156 
        1.82239         33.0337         5.93132          38.034 
        1.82853         32.7527         5.88323         37.9264 
        1.83466         32.6639         5.83572         37.7567 
        1.84078         32.4203         5.78879          37.584 
        1.84692          32.325          5.7423          37.487 
        1.85306         32.1675         5.69626         37.3602 
         1.8592          32.022         5.65079         37.2007 
        1.86533         31.8205         5.60586         37.0789 
        1.87147         31.7235         5.56135         36.9461 
