# k  (h/Mpc)    P(k)  (Mpc/h)^3    P_linear(k)  (Mpc/h)^3     P_NL(k)  ShotnoiseSubtracted = false
     0.00783031           16173         16407.6           16326 
       0.013688         20704.7         20503.2         20358.5 
       0.019231         21058.7         21029.2         20835.2 
      0.0249154         19221.2         19673.4         19464.9 
      0.0312784         16947.1         17179.9         16963.7 
      0.0375637         14611.4         14641.8         14451.8 
      0.0433917         12409.4         12669.9           12470 
      0.0492413         11091.9         11189.1         11004.4 
      0.0555754         9750.76         10088.1         9924.78 
      0.0619321         9337.87            9337         9177.22 
       0.067871         8501.21         8778.69         8630.08 
      0.0738098         7954.51          8222.3          7991.4 
      0.0800417         7219.52         7562.02         7358.53 
      0.0862327         6607.07         6825.64         6725.84 
      0.0921407         6034.69         6099.44         6032.44 
      0.0982031         5339.34         5401.94         5449.97 
       0.104506         4926.52         4791.04         4929.89 
       0.110769         4480.39         4329.59         4430.88 
       0.116806         4172.55         4016.48         4108.42 
       0.122832         3959.65          3802.6         3900.54 
       0.129052         3694.33         3640.63         3725.59 
       0.135211          3541.8         3493.71         3566.52 
       0.141259         3427.12         3329.62         3438.61 
       0.147318         3256.55          3131.5         3284.06 
       0.153489          2994.7         2900.24         3024.36 
       0.159709         2824.65         2656.81         2844.16 
       0.165845         2696.39         2430.17         2700.78 
       0.171974         2524.46         2236.04         2517.81 
       0.178125         2387.04         2082.74         2412.19 
       0.184229         2270.55         1970.63            2276 
        0.19034         2153.07         1889.39         2183.05 
       0.196428          2116.1         1826.06         2098.51 
       0.202534         2043.54         1766.55         2044.31 
       0.208729         1960.65         1699.53          1954.9 
       0.214876         1887.96         1621.35         1919.24 
       0.220989         1824.55         1533.14         1862.09 
       0.227147          1746.1         1439.42         1795.78 
        0.23329         1673.91         1348.59         1733.56 
       0.239377         1644.78         1267.71         1654.61 
       0.245482         1541.79         1199.53         1573.66 
       0.251667         1531.85         1144.37         1529.73 
       0.257832         1471.18         1101.08            1476 
       0.263955         1424.41         1065.57         1435.16 
       0.270079         1377.61         1033.01         1400.09 
        0.27624          1363.1         999.401         1363.59 
       0.282372         1307.15          962.87            1343 
        0.28843          1300.7         923.533          1316.5 
       0.294538          1237.3         881.826         1278.72 
       0.300721         1228.92          839.85         1238.66 
        0.30691         1181.48         800.326         1217.52 
       0.313033         1157.65         765.426         1174.82 
       0.319153          1139.1         735.305         1138.92 
       0.325316         1101.82         709.524         1118.28 
        0.33145         1078.33         687.246         1079.46 
       0.337538         1058.24         667.102         1063.23 
       0.343633         1035.89         647.488         1053.24 
       0.349808         1001.96         627.278         1038.36 
       0.355968          994.74         606.286         1021.27 
       0.362074         985.197         584.907          1002.7 
       0.368217         954.228         563.352         977.553 
       0.374374          919.07         542.434         957.589 
       0.380519          920.69         522.924         936.699 
       0.386598         894.559         505.275         923.797 
       0.392688         891.331         489.373         901.766 
        0.39888         865.426         474.753         887.089 
       0.405048         855.182         461.321         872.605 
       0.411186         843.119         448.637         857.547 
       0.417313          825.51         436.222         847.277 
       0.423458         811.143         423.775         833.262 
       0.429607         800.938         411.309         820.044 
       0.435692         784.496         399.014         802.549 
       0.441815           777.7         386.893         799.063 
       0.447964          761.31         375.215         788.104 
       0.454126          754.88         364.151         765.303 
       0.460267         736.295         353.825         763.237 
       0.466387         727.584         344.254         749.527 
        0.47254         722.995         335.226         738.887 
       0.478662         715.431          326.68         728.029 
       0.484765         694.684         318.461         720.017 
       0.490885         690.595         310.427          707.15 
       0.497035         675.827         302.476         700.979 
       0.503198         671.825         294.616         693.175 
       0.509342         664.775         286.948         681.272 
       0.515458           660.8         279.542         676.498 
       0.521598          644.22          272.38         669.429 
       0.527764         632.868          265.49         662.671 
       0.533884         630.936         258.977         654.501 
           0.54         624.733         252.789         646.208 
       0.546137         619.123         246.849         638.827 
       0.552299          610.56         241.101         629.991 
       0.558452         605.809          235.53         625.096 
       0.564573         598.035         230.132         619.789 
       0.570708         591.514         224.856         612.382 
       0.576825          575.65         219.722         603.862 
       0.582926         578.016         214.725         599.632 
       0.589034         571.831         209.861         590.641 
       0.595184         566.949         205.121         584.657 
       0.601379         558.496         200.522         579.304 
       0.607522         550.977         196.136          570.82 
       0.613639         550.788         191.923         569.507 
       0.619772         539.255         187.838         567.604 
       0.625918         536.119         183.865         559.348 
       0.632068         528.817             180         556.143 
       0.638161         526.726         176.273         547.849 
         0.6443         517.634         172.619         543.621 
       0.650464         515.509         169.048         535.735 
       0.656582         511.054         165.598         532.931 
       0.662703         509.224         162.239         529.041 
       0.668861         500.679         158.953         526.569 
       0.675024         496.475         155.758         522.807 
       0.681124         492.935         152.687         514.579 
       0.687237         488.886         149.701         509.975 
       0.693381         482.288         146.788         505.367 
       0.699536         474.784         143.952         502.031 
       0.705665         474.348         141.206         495.907 
       0.711789         471.646         138.534          492.51 
       0.717957         467.188         135.911         491.778 
        0.72409         464.725         133.366          486.24 
       0.730186         457.653         130.899         481.338 
       0.736317         454.987         128.479         477.967 
       0.742472         452.213          126.11         474.466 
       0.748622         447.448         123.804         469.918 
        0.75476         440.888         121.562         470.574 
       0.760888         436.808         119.381         464.514 
       0.767043         437.309         117.247         459.077 
       0.773185         432.742         115.172         456.469 
       0.779291         427.883         113.161         452.553 
       0.785407         425.059         111.195         449.875 
       0.791564         420.181         109.265         447.988 
       0.797719         418.112         107.381         443.598 
       0.803834         413.319         105.554          441.16 
       0.809972         412.497         103.762         438.372 
       0.816124         411.196         102.007         432.999 
       0.822261         405.244         100.298         431.106 
       0.828378         403.358         98.6331         427.855 
       0.834502         398.553         97.0045         426.389 
       0.840667         395.667         95.4023         422.741 
       0.846816         393.807         93.8411         419.644 
       0.852925         391.064          92.325         417.244 
       0.859047         389.132         90.8397         413.282 
       0.865192         384.187         89.3825         410.357 
       0.871341         381.062         87.9566         408.216 
       0.877463          380.72         86.5686         405.884 
       0.883569          377.05         85.2144         404.141 
       0.889708         374.339         83.8825         399.923 
       0.895864         372.633         82.5758         397.885 
       0.902008         369.266         81.2999          395.06 
       0.908149         365.081         80.0519         391.611 
       0.914301          362.89         78.8282         388.522 
       0.920448         360.873         77.6313         387.514 
       0.926574         355.695         76.4637         384.653 
       0.932687         355.597         75.3226         381.692 
       0.938823         351.679         74.2008         380.962 
       0.944975         351.874         73.0995         377.847 
       0.951105         347.668         72.0246         375.017 
       0.957225         345.471         70.9733         373.156 
       0.963368         341.474         69.9395          370.86 
       0.969511         340.365         68.9264         368.693 
       0.975621         338.218          67.939          366.16 
       0.981748         336.263         66.9685         364.179 
       0.987916         334.424          66.011          362.51 
        0.99406         329.147         65.0759          360.01 
        1.00019         327.876         64.1609         356.844 
        1.00632          326.44         63.2644         354.661 
        1.01246         323.595         62.3839         352.321 
        1.01859         323.811         61.5216         350.232 
        1.02471         318.952         60.6768         348.678 
        1.03085         317.369         59.8451         347.447 
        1.03698         316.179         59.0308         346.006 
        1.04314          313.28         58.2283         343.428 
        1.04929         310.518         57.4427         340.476 
        1.05541         311.074         56.6748         338.488 
        1.06154         305.736         55.9191         336.898 
        1.06769         304.963         55.1761         334.597 
        1.07382         302.637         54.4491         332.809 
        1.07993         300.823         53.7369         331.142 
        1.08607         299.955         53.0345         328.732 
        1.09222         296.748         52.3441         327.018 
        1.09836         294.735         51.6668         325.838 
        1.10449         292.409         51.0024         324.125 
        1.11063         289.275          50.349         321.381 
        1.11677         289.341         49.7073         319.923 
         1.1229         287.119         49.0779          318.02 
        1.12903         285.244          48.459         316.409 
        1.13518          282.68         47.8502         314.262 
        1.14131         281.134         47.2523         312.769 
        1.14745         279.723          46.665         310.471 
        1.15359         277.834         46.0876         309.778 
        1.15973         275.767         45.5198         307.731 
        1.16584         273.804         44.9641         306.561 
        1.17197          273.72         44.4169         305.024 
        1.17811          270.24         43.8772         302.804 
        1.18424         268.503         43.3481         301.352 
        1.19038         267.587         42.8262         300.379 
        1.19652         265.227         42.3131         297.973 
        1.20267         264.492         41.8085         296.646 
        1.20881         262.436         41.3122         295.067 
        1.21495         260.496         40.8248         293.265 
        1.22108         258.974         40.3454         291.452 
         1.2272         257.405         39.8749         290.256 
        1.23334         255.946         39.4108         288.576 
        1.23949         253.773          38.953         287.134 
        1.24562         252.855         38.5038         285.393 
        1.25174         251.201         38.0624         284.039 
        1.25789         249.118         37.6265         282.423 
        1.26402         247.038         37.1984         281.627 
        1.27014         245.611         36.7779          279.52 
        1.27628         244.137         36.3627         278.951 
        1.28244         243.785         35.9531         277.636 
        1.28858          241.38         35.5505         275.916 
        1.29471         239.929         35.1549         273.954 
        1.30084         238.199         34.7657         272.439 
        1.30697         236.887         34.3818         271.455 
        1.31312         234.479         34.0032         270.001 
        1.31925         233.505         33.6315         268.628 
        1.32537          232.77         33.2658           266.9 
        1.33151         230.566         32.9042          265.81 
        1.33765         228.846         32.5483          264.76 
        1.34378          228.18         32.1983         263.106 
        1.34992         226.758         31.8532         261.635 
        1.35606         226.147         31.5125         260.083 
         1.3622         223.735         31.1774         259.339 
        1.36833         222.092         30.8479         258.324 
        1.37445         221.105         30.5234         256.184 
        1.38059         219.188         30.2026         255.453 
        1.38675         218.324         29.8856         254.537 
        1.39288         217.033         29.5745         252.676 
        1.39901         216.095         29.2679          251.27 
        1.40515         214.338          28.965         249.865 
         1.4113         213.109         28.6665         248.586 
        1.41742         211.472         28.3734         247.638 
        1.42355         210.694         28.0838         246.205 
         1.4297         208.697         27.7974          244.81 
        1.43585         207.644         27.5152         244.419 
        1.44198         206.666         27.2379         242.905 
        1.44809         205.273          26.965         241.769 
        1.45423         204.225         26.6948          239.98 
        1.46036         202.853         26.4288           239.1 
        1.46649         201.333         26.1664         238.217 
        1.47263         200.343         25.9073         236.688 
        1.47877         198.868         25.6519         235.304 
        1.48491         197.092         25.3995         233.995 
        1.49104         196.529          25.151         233.189 
        1.49718         194.833         24.9057         232.674 
        1.50333         194.104         24.6633         231.194 
        1.50947         192.753         24.4246         229.987 
         1.5156         191.149         24.1895         229.015 
        1.52172         190.495         23.9574         227.675 
        1.52787         188.748         23.7279         226.785 
          1.534         188.356         23.5017         225.658 
        1.54013         186.755         23.2787         224.622 
        1.54627         185.663         23.0582         223.778 
        1.55241         184.431         22.8405         222.755 
        1.55855          183.19          22.626         221.618 
        1.56467         182.131         22.4148         220.286 
         1.5708          181.28         22.2057         219.184 
        1.57695         180.213          21.999         218.211 
        1.58308         179.057         21.7953         217.054 
        1.58922         177.633         21.5942         216.047 
        1.59535         176.356         21.3956         215.316 
         1.6015         175.583         21.1993         214.493 
        1.60764         174.508         21.0055         213.302 
        1.61376         173.574         20.8147         212.104 
        1.61989         172.532         20.6261          211.16 
        1.62604          171.38         20.4395         210.027 
        1.63218         170.371         20.2552          209.08 
        1.63831         169.046         20.0737         208.327 
        1.64444         168.327         19.8943         207.263 
        1.65059         167.302         19.7167         206.373 
        1.65673         166.087         19.5415          205.46 
        1.66285         164.992         19.3689         204.398 
        1.66898         164.104         19.1983         203.327 
        1.67512         163.575         19.0294         202.523 
        1.68127         161.828         18.8625         201.596 
         1.6874         161.206         18.6978         200.634 
        1.69353         160.047         18.5353         199.886 
        1.69967         158.808         18.3743         198.927 
        1.70581         158.277         18.2153          198.05 
        1.71193          157.05         18.0588         197.192 
        1.71806         156.367         17.9038         196.027 
        1.72421         155.272         17.7503         195.186 
        1.73035         154.556         17.5988         194.356 
        1.73649          153.66         17.4491         193.359 
        1.74262         152.623         17.3012         192.555 
        1.74876         151.439          17.155         191.697 
        1.75489         150.786         17.0107         190.883 
        1.76101         149.462         16.8682         190.203 
        1.76715         149.094         16.7271         189.401 
        1.77329         148.021         16.5875         188.556 
        1.77943         147.313         16.4494         187.651 
        1.78557          146.43          16.313         186.673 
        1.79171         145.599         16.1782         185.873 
        1.79785          144.56         16.0449         185.079 
        1.80399         143.717         15.9131          184.14 
        1.81012         142.819          15.783         183.602 
        1.81625         142.277         15.6544         182.863 
        1.82239         141.102          15.527         181.772 
        1.82853         140.549         15.4011         180.993 
        1.83466         139.454         15.2768         180.156 
        1.84078         138.846         15.1539         179.307 
        1.84692         137.592         15.0322         178.822 
        1.85306         137.272         14.9117         177.912 
         1.8592         136.293         14.7927         176.885 
        1.86533         135.547          14.675         176.427 
        1.87147          134.49         14.5585         175.813 
        1.87761         133.653         14.4432         174.933 
