# k  (h/Mpc)    Pcb(k)  (Mpc/h)^3    Pcb_linear(k) (Mpc/h)^3    Pcb_NL(k) (Mpc/h)^3   ShotnoiseSubtracted = false
     0.00783031         17536.7         17795.8         17706.1 
       0.013688         22462.7           22234         22072.3 
       0.019231         22833.3         22803.2           22585 
      0.0249154         20819.2         21332.6         21094.6 
      0.0312784         18358.4         18628.5         18377.8 
      0.0375637         15834.8         15876.3         15655.3 
      0.0433917         13437.6         13738.1           13505 
      0.0492413         12016.7         12132.4         11916.8 
      0.0555754         10551.5         10938.5         10748.4 
      0.0619321         10115.9         10124.1         9938.56 
       0.067871         9198.02         9518.73         9346.43 
      0.0738098         8607.21         8915.43         8648.04 
      0.0800417         7807.68         8199.48         7964.13 
      0.0862327         7149.13         7401.02         7284.96 
      0.0921407         6537.11         6613.59         6535.67 
      0.0982031         5786.96          5857.3         5911.25 
       0.104506         5346.75          5194.9         5353.31 
       0.110769         4865.26         4694.56         4811.59 
       0.116806         4536.01         4355.05         4461.41 
       0.122832         4302.55         4123.14         4235.91 
       0.129052         4011.57         3947.52         4046.01 
       0.135211          3844.6         3788.21         3871.95 
       0.141259         3722.26         3610.28         3736.28 
       0.147318         3538.81         3395.46         3569.64 
       0.153489          3254.6         3144.71         3288.02 
       0.159709         3072.45         2880.76         3096.12 
       0.165845         2938.85         2635.02         2944.09 
       0.171974         2754.85         2424.53         2747.86 
       0.178125         2606.54         2258.29         2634.99 
       0.184229          2477.5         2136.74         2485.73 
        0.19034         2355.39         2048.65         2384.76 
       0.196428         2312.73         1979.98          2294.1 
       0.202534         2230.69         1915.45         2235.36 
       0.208729         2141.94         1842.78         2137.66 
       0.214876         2066.36         1758.02         2098.95 
       0.220989          1996.7         1662.38            2039 
       0.227147         1913.91         1560.75         1969.67 
        0.23329            1836         1462.26            1902 
       0.239377         1806.44         1374.57         1816.39 
       0.245482         1695.76         1300.64         1728.98 
       0.251667         1685.39         1240.83         1680.82 
       0.257832         1618.68          1193.9         1622.78 
       0.263955         1566.83         1155.39         1579.11 
       0.270079         1516.11         1120.09         1540.81 
        0.27624         1499.21         1083.64         1501.26 
       0.282372         1438.46         1044.03         1481.14 
        0.28843         1434.47         1001.38         1453.88 
       0.294538         1365.82         956.157         1411.83 
       0.300721         1355.44         910.643         1367.87 
        0.30691         1305.68         867.787         1345.89 
       0.313033         1278.84         829.943         1299.36 
       0.319153         1261.06         797.289         1259.51 
       0.325316         1219.45         769.331         1237.71 
        0.33145         1194.43         745.173         1195.23 
       0.337538         1171.12         723.334         1178.31 
       0.343633         1148.51         702.067         1166.93 
       0.349808         1111.77         680.147         1151.34 
       0.355968         1103.14         657.392         1132.63 
       0.362074         1093.64          634.21         1112.91 
       0.368217         1058.69         610.838         1086.38 
       0.374374          1021.8          588.16         1064.29 
       0.380519         1024.25         567.001         1042.23 
       0.386598          994.57         547.866         1027.12 
       0.392688         990.518         530.623         1004.71 
        0.39888         962.408         514.771         987.721 
       0.405048         952.513         500.207         971.181 
       0.411186         938.943         486.453         956.089 
       0.417313         919.276         472.992         945.551 
       0.423458         903.424         459.496         928.999 
       0.429607         892.827         445.976         915.437 
       0.435692         875.318         432.648         895.671 
       0.441815         867.478         419.505          892.59 
       0.447964         849.587         406.842         881.412 
       0.454126         843.975         394.845         855.763 
       0.460267         822.735         383.653         853.588 
       0.466387         812.215         373.271          838.51 
        0.47254         810.041         363.484         826.523 
       0.478662         799.501         354.216         815.185 
       0.484765         777.644         345.305         807.081 
       0.490885         773.351         336.593          792.23 
       0.497035         756.567         327.972          785.85 
       0.503198         752.527          319.45         777.517 
       0.509342         744.121         311.135         763.745 
       0.515458         740.338         303.105         758.423 
       0.521598         722.133         295.339         751.188 
       0.527764         709.666         287.869         743.973 
       0.533884         707.402         280.806         735.195 
           0.54         701.583         274.097         726.452 
       0.546137          693.74         267.656         718.548 
       0.552299         685.512         261.423         708.752 
       0.558452         679.337         255.383         703.353 
       0.564573         671.099          249.53          697.08 
       0.570708         664.066          243.81         688.183 
       0.576825         646.785         238.242         679.578 
       0.582926         649.794         232.825         675.215 
       0.589034         642.459          227.55         665.361 
       0.595184         637.081         222.411          658.66 
       0.601379         627.894         217.425         652.863 
       0.607522         619.227         212.668         643.102 
       0.613639         619.188         208.101         641.474 
       0.619772         607.178         203.671         639.228 
       0.625918         602.778         199.363          630.75 
       0.632068         595.275         195.172         627.386 
       0.638161         592.615         191.131         617.719 
         0.6443          582.82         187.169         612.709 
       0.650464         581.031         183.297         604.966 
       0.656582         575.269         179.557         601.665 
       0.662703         573.426         175.914         596.974 
       0.668861         564.019         172.352         594.514 
       0.675024         559.123         168.887         590.591 
       0.681124         555.391         165.557         581.695 
       0.687237         551.165         162.319         576.532 
       0.693381         543.822          159.16         571.124 
       0.699536         534.677         156.086         567.423 
       0.705665         534.897         153.108         560.587 
       0.711789          531.71         150.211         556.552 
       0.717957         526.734         147.367         555.956 
        0.72409         524.166         144.608         549.937 
       0.730186         516.071         141.932         544.174 
       0.736317          513.63         139.308         540.726 
       0.742472         509.986          136.74         537.369 
       0.748622         504.795         134.239         531.871 
        0.75476         496.952         131.808         532.227 
       0.760888         492.961         129.444         526.148 
       0.767043          492.83          127.13         519.341 
       0.773185         488.269          124.88         516.459 
       0.779291         483.221         122.699         512.169 
       0.785407         479.216         120.568         509.036 
       0.791564          474.33         118.475         507.579 
       0.797719         472.463         116.433         502.858 
       0.803834         466.572         114.451         499.569 
       0.809972         465.491         112.508         496.492 
       0.816124         463.956         110.606         490.966 
       0.822261          457.08         108.752         488.529 
       0.828378         455.181         106.947         484.972 
       0.834502         449.713         105.181          483.34 
       0.840667         446.547         103.444          479.64 
       0.846816         444.226         101.751         475.996 
       0.852925         441.328         100.107         473.173 
       0.859047         439.495         98.4967         468.433 
       0.865192         433.563         96.9166         465.587 
       0.871341         429.982         95.3706         462.809 
       0.877463         429.917         93.8656         460.461 
       0.883569         425.301         92.3972         458.314 
       0.889708         422.893          90.953          453.56 
       0.895864         421.449         89.5362         451.216 
       0.902008          417.46         88.1528         448.111 
       0.908149         411.799         86.7996         443.894 
       0.914301         410.246         85.4727         440.501 
       0.920448         408.136          84.175         439.812 
       0.926574         401.801         82.9089         436.799 
       0.932687         401.223         81.6716          432.95 
       0.938823         397.089         80.4553         431.949 
       0.944975         397.383         79.2611         429.042 
       0.951105         392.659         78.0956         425.741 
       0.957225         390.052         76.9557         423.479 
       0.963368         385.701         75.8348         420.714 
       0.969511         384.627         74.7363         418.282 
       0.975621         382.477         73.6657         415.613 
       0.981748         379.581         72.6134         413.405 
       0.987916         377.632         71.5751         411.422 
        0.99406         371.947         70.5612          408.61 
        1.00019         370.229         69.5691         405.182 
        1.00632         368.773         68.5971         402.624 
        1.01246         365.529         67.6423         400.306 
        1.01859         365.235         66.7074         397.846 
        1.02471         360.379         65.7914         395.801 
        1.03085         358.683         64.8895         394.616 
        1.03698         357.041         64.0066         393.053 
        1.04314         354.094         63.1364         390.054 
        1.04929         350.577         62.2846          386.67 
        1.05541          351.27          61.452         384.372 
        1.06154         345.566         60.6326         382.547 
        1.06769         344.251         59.8269         379.901 
        1.07382         341.518         59.0387         377.765 
        1.07993         339.704         58.2664         375.853 
        1.08607         338.736         57.5049         373.394 
        1.09222           334.8         56.7563         371.332 
        1.09836         332.573         56.0219          369.94 
        1.10449         330.387         55.3015         368.401 
        1.11063         326.171         54.5929         365.028 
        1.11677         326.928         53.8972         363.528 
         1.1229         324.248         53.2148         361.182 
        1.12903         322.121         52.5436         359.191 
        1.13518         318.767         51.8836          356.66 
        1.14131         317.401         51.2353         355.415 
        1.14745         315.139         50.5985         352.423 
        1.15359         313.472         49.9724          351.89 
        1.15973         311.251         49.3567         349.442 
        1.16584         308.863         48.7542          348.19 
        1.17197         308.473         48.1609         346.352 
        1.17811         304.985         47.5757         343.728 
        1.18424         302.722         47.0019         342.067 
        1.19038         301.479         46.4361         340.944 
        1.19652         299.197         45.8797         338.082 
        1.20267         298.008         45.3326         336.829 
        1.20881         295.855         44.7945         334.962 
        1.21495         293.659          44.266         332.978 
        1.22108         291.883         43.7462          330.89 
         1.2272         290.169          43.236         329.906 
        1.23334         288.424         42.7328         327.723 
        1.23949         285.662         42.2364         325.854 
        1.24562          284.72         41.7493         323.988 
        1.25174         283.113         41.2707         322.511 
        1.25789         280.393         40.7981         320.648 
        1.26402         278.471         40.3339          319.61 
        1.27014           276.7          39.878           317.3 
        1.27628         274.763         39.4278         316.593 
        1.28244         274.615         38.9837         315.048 
        1.28858         271.915          38.547         313.207 
        1.29471         270.635         38.1181         311.273 
        1.30084         268.291         37.6961         309.169 
        1.30697         267.081         37.2799         308.086 
        1.31312         264.196         36.8694         306.644 
        1.31925         262.836         36.4664         304.931 
        1.32537         262.137         36.0698         303.021 
        1.33151         259.682         35.6778         301.897 
        1.33765         257.592         35.2918         300.669 
        1.34378          256.91         34.9123         298.496 
        1.34992         255.278         34.5382         297.028 
        1.35606          254.02         34.1687         295.292 
         1.3622         251.626         33.8053         294.472 
        1.36833         250.184         33.4481         293.317 
        1.37445         248.587         33.0963         291.037 
        1.38059         246.614         32.7484         290.062 
        1.38675         245.514         32.4047         288.902 
        1.39288         244.109         32.0674         287.135 
        1.39901          242.77          31.735         285.366 
        1.40515          241.25         31.4065         283.687 
         1.4113         239.571         31.0829         282.228 
        1.41742          237.72          30.765         281.086 
        1.42355         236.911          30.451         279.707 
         1.4297         234.868         30.1405          277.87 
        1.43585         233.531         29.8344         277.421 
        1.44198         232.505         29.5338         275.759 
        1.44809         230.435         29.2379         274.353 
        1.45423         229.272         28.9449         272.417 
        1.46036         227.913         28.6565           271.4 
        1.46649         226.378          28.372         270.282 
        1.47263          225.34         28.0911           268.5 
        1.47877         223.491         27.8141         267.021 
        1.48491         221.381         27.5404         265.523 
        1.49104         220.744         27.2711         264.519 
        1.49718          219.03         27.0051         264.125 
        1.50333         218.169         26.7422         262.163 
        1.50947          216.61         26.4834         260.683 
         1.5156         214.749         26.2284         259.886 
        1.52172         214.051         25.9768         258.606 
        1.52787         212.149          25.728         257.336 
          1.534         211.616         25.4827         255.972 
        1.54013         209.597         25.2409          254.88 
        1.54627         208.686         25.0018         253.906 
        1.55241         207.305         24.7658         252.763 
        1.55855         205.512         24.5332         251.543 
        1.56467         204.956         24.3042         249.932 
         1.5708         203.639         24.0774         248.606 
        1.57695         202.302         23.8533         247.475 
        1.58308         201.001         23.6325         246.169 
        1.58922         199.137         23.4144         245.133 
        1.59535         197.998         23.1991          244.24 
         1.6015         196.904         22.9862         243.426 
        1.60764         195.883         22.7761          242.09 
        1.61376         194.863         22.5692         240.485 
        1.61989         193.635         22.3647          239.53 
        1.62604         192.262         22.1623         238.255 
        1.63218         191.151         21.9626         237.143 
        1.63831         189.667         21.7657         236.279 
        1.64444         188.807         21.5713         235.011 
        1.65059         187.895         21.3787         234.094 
        1.65673          186.46         21.1887         233.137 
        1.66285          185.01         21.0015         231.868 
        1.66898         184.202         20.8165         230.508 
        1.67512         183.363         20.6335         229.602 
        1.68127         181.383         20.4524         228.548 
         1.6874         180.915         20.2739         227.467 
        1.69353         179.455         20.0977         226.731 
        1.69967         178.091         19.9231         225.619 
        1.70581          177.47         19.7507         224.506 
        1.71193         176.014          19.581         223.498 
        1.71806         175.358         19.4129         222.306 
        1.72421         174.032         19.2465         221.278 
        1.73035         173.183         19.0822         220.291 
        1.73649         172.161         18.9199         219.206 
        1.74262         171.058         18.7595          218.14 
        1.74876         169.579          18.601         217.186 
        1.75489         168.998         18.4446         216.412 
        1.76101         167.486         18.2901          215.66 
        1.76715         166.911         18.1371         214.567 
        1.77329         165.693         17.9856         213.673 
        1.77943         164.957         17.8359         212.796 
        1.78557         163.818         17.6881         211.581 
        1.79171         163.045         17.5419         210.571 
        1.79785         161.635         17.3973         209.688 
        1.80399         160.874         17.2545         208.692 
        1.81012         159.902         17.1134         208.023 
        1.81625         159.192         16.9739         207.195 
        1.82239         157.825         16.8358         206.065 
        1.82853         157.277         16.6993         205.157 
        1.83466         156.147         16.5645         204.222 
        1.84078         155.322         16.4313         203.289 
        1.84692         154.085         16.2993         202.615 
        1.85306         153.441         16.1686          201.63 
         1.8592         152.422         16.0396         200.546 
        1.86533          151.71          15.912         199.836 
        1.87147         150.626         15.7857         198.989 
