# k  (h/Mpc)    P(k)  (Mpc/h)^3    P_linear(k)  (Mpc/h)^3     P_NL(k)  ShotnoiseSubtracted = false
     0.00783031         2898.12          2928.7         2915.94 
       0.013688         3672.85         3666.64         3649.31 
       0.019231         3766.36         3762.82         3742.27 
      0.0249154         3490.04         3521.17         3506.07 
      0.0312784            3067         3075.38         3067.49 
      0.0375637         2628.32         2621.29          2615.8 
      0.0433917         2258.98          2268.4         2264.21 
      0.0492413         2004.49         2003.37         2000.06 
      0.0555754         1791.35         1806.29         1802.51 
      0.0619321         1682.48         1671.84         1667.64 
       0.067871          1561.5          1571.9         1567.13 
      0.0738098         1460.62          1472.3         1464.42 
      0.0800417         1336.78         1354.08          1347.3 
      0.0862327         1213.49         1222.23         1219.63 
      0.0921407         1091.37          1092.2         1091.26 
      0.0982031         963.229         967.311           971.1 
       0.104506         867.826         857.924         865.233 
       0.110769         784.775         775.297         780.486 
       0.116806         723.715         719.231         723.785 
       0.122832         689.213         680.934          685.77 
       0.129052         652.686         651.932         655.859 
       0.135211         625.735         625.624         629.437 
       0.141259         600.431         596.241         601.204 
       0.147318         567.679         560.764         568.456 
       0.153489         523.456         519.354         525.174 
       0.159709         483.668         475.763         484.303 
       0.165845         449.599         435.179         447.941 
       0.171974         411.952         400.416         412.726 
       0.178125         386.523         372.963         387.589 
       0.184229         367.719         352.889         366.956 
        0.19034         346.437          338.34         351.465 
       0.196428          339.32         326.999         337.882 
       0.202534           331.2         316.343         327.532 
       0.208729         316.311         304.341         315.106 
       0.214876          299.71         290.343         304.024 
       0.220989         288.287         274.547         289.375 
       0.227147         268.983         257.764         272.987 
        0.23329         254.203         241.498         258.781 
       0.239377         242.726         227.015         244.945 
       0.245482         226.988         214.805         231.267 
       0.251667         221.036         204.928         222.412 
       0.257832          213.22         197.177         213.948 
       0.263955         205.991         190.817         206.816 
       0.270079         199.557         184.987         200.631 
        0.27624         195.595         178.968         193.982 
       0.282372         188.323         172.426         188.165 
        0.28843         180.533         165.382         181.414 
       0.294538         172.712         157.913         174.655 
       0.300721         168.116         150.396         168.093 
        0.30691          159.66         143.319         161.386 
       0.313033          154.19         137.069         154.598 
       0.319153         146.816         131.675         149.495 
       0.325316          144.09         127.058         145.158 
        0.33145         138.973         123.069         140.201 
       0.337538         136.198         119.462         136.148 
       0.343633         131.816         115.949         133.022 
       0.349808         128.041          112.33         129.793 
       0.355968         124.798         108.571         126.826 
       0.362074         120.798         104.743         122.748 
       0.368217         117.061         100.883         118.171 
       0.374374         113.333         97.1369         114.872 
       0.380519         110.309          93.643         111.104 
       0.386598         107.151         90.4826          108.03 
       0.392688         104.959         87.6349         105.252 
        0.39888         102.013         85.0169         102.177 
       0.405048         99.6549         82.6116         99.7869 
       0.411186         97.3931         80.3401         97.9029 
       0.417313         94.5474         78.1169         94.9899 
       0.423458         92.2649         75.8878         92.9677 
       0.429607         89.8035         73.6556         90.6377 
       0.435692         86.9342         71.4538         88.5565 
       0.441815         85.7702         69.2833         86.9239 
       0.447964         84.1824          67.192         84.4255 
       0.454126         80.5426         65.2107         82.0502 
       0.460267         79.3118         63.3616         80.6168 
       0.466387          77.392         61.6477         78.5237 
        0.47254         76.1163         60.0311         77.0295 
       0.478662           74.87         58.5006         75.3527 
       0.484765         72.7722         57.0288         73.4722 
       0.490885         71.2702           55.59         72.4346 
       0.497035         70.2367         54.1662         71.1795 
       0.503198         68.3551         52.7587         69.4103 
       0.509342          66.656         51.3855         68.1865 
       0.515458          65.442         50.0593         67.2402 
       0.521598         64.4173         48.7767         65.2959 
       0.527764         63.1926          47.543          63.647 
       0.533884         62.0683         46.3765         62.5473 
           0.54         60.7702         45.2685         61.4426 
       0.546137         59.9362         44.2048         60.5604 
       0.552299         58.9983         43.1754         59.0946 
       0.558452         57.3008         42.1778         57.9463 
       0.564573         56.3304         41.2112         57.2427 
       0.570708          55.588         40.2664         56.2208 
       0.576825         54.3727          39.347         55.1912 
       0.582926         53.3066         38.4522         54.2315 
       0.589034         52.0117         37.5811         53.5078 
       0.595184         51.3578         36.7323         52.3994 
       0.601379         50.5761         35.9087         51.7074 
       0.607522         49.4106         35.1233         50.5106 
       0.613639         49.1284         34.3689         49.7976 
       0.619772         47.8867         33.6373         48.9729 
       0.625918          47.561         32.9259         48.4058 
       0.632068         46.8372         32.2337         47.4386 
       0.638161         45.9792         31.5663         46.7647 
         0.6443         45.1639         30.9119          45.907 
       0.650464         44.4086         30.2725         45.2315 
       0.656582         44.0553         29.6547         44.6666 
       0.662703         43.1619         29.0532          43.824 
       0.668861         42.4973         28.4648         43.3358 
       0.675024         41.8145         27.8925         42.5274 
       0.681124         41.0967         27.3427         41.8963 
       0.687237         40.3758         26.8079          41.261 
       0.693381          40.058         26.2862         40.6224 
       0.699536         39.1657         25.7784         40.2728 
       0.705665         39.1867         25.2866         39.7446 
       0.711789         38.1773         24.8081         38.9131 
       0.717957         37.7508         24.3384         38.5595 
        0.72409           37.22         23.8827          38.121 
       0.730186         36.6468         23.4409         37.5277 
       0.736317         36.3416         23.0075         36.9765 
       0.742472         35.6916         22.5834         36.5666 
       0.748622         35.3732         22.1703         35.9896 
        0.75476         34.8165         21.7688           35.57 
       0.760888         34.2895         21.3783         35.1464 
       0.767043         33.8938         20.9962         34.7848 
       0.773185          33.345         20.6246         34.3198 
       0.779291         33.1868         20.2644         33.9435 
       0.785407         32.8305         19.9125         33.4385 
       0.791564         32.2117         19.5668         33.0303 
       0.797719         31.5712         19.2295         32.6972 
       0.803834         31.5157         18.9022         32.2201 
       0.809972         31.1244         18.5813         31.8867 
       0.816124          30.463         18.2671         31.4938 
       0.822261         30.2791          17.961         31.0569 
       0.828378          30.007         17.6629         30.6511 
       0.834502         29.6541         17.3712         30.4834 
       0.840667         29.3055         17.0843         30.0439 
       0.846816         28.8144         16.8047         29.7269 
       0.852925         28.5624         16.5332         29.5549 
       0.859047         28.2156         16.2672         29.0753 
       0.865192         27.9345         16.0063         28.7497 
       0.871341          27.763          15.751         28.5091 
       0.877463         27.2175         15.5024         28.1821 
       0.883569         26.9345         15.2599         27.9291 
       0.889708         26.6301         15.0214         27.5615 
       0.895864         26.4013         14.7874         27.2433 
       0.902008         26.1875         14.5589          27.006 
       0.908149         25.9031         14.3354         26.7824 
       0.914301          25.779         14.1163         26.5809 
       0.920448         25.2588          13.902         26.2005 
       0.926574         25.0904         13.6928         25.9016 
       0.932687         24.7999         13.4885         25.6439 
       0.938823         24.4807         13.2876         25.3796 
       0.944975         24.2774         13.0904         25.1292 
       0.951105         24.0576         12.8979         24.8603 
       0.957225         23.7793         12.7096         24.6658 
       0.963368         23.6194         12.5245         24.3959 
       0.969511         23.4069         12.3431         24.1614 
       0.975621         23.2171         12.1663         23.9639 
       0.981748         22.8784         11.9925         23.7712 
       0.987916         22.7309          11.821         23.4866 
        0.99406         22.4811         11.6536         23.2907 
        1.00019         22.1906         11.4897         23.0736 
        1.00632         22.0967         11.3292          22.897 
        1.01246          21.915         11.1715         22.7351 
        1.01859          21.581         11.0171         22.5075 
        1.02471          21.521         10.8658         22.2721 
        1.03085         21.3103         10.7169         22.0786 
        1.03698         20.9586          10.571          21.884 
        1.04314         20.8351         10.4273         21.6503 
        1.04929         20.6137         10.2866         21.5252 
        1.05541         20.3972         10.1491         21.4026 
        1.06154          20.283         10.0138           21.12 
        1.06769         20.1422         9.88074         20.9222 
        1.07382         19.9273         9.75055          20.802 
        1.07993          19.819         9.62302         20.6028 
        1.08607         19.5534         9.49724         20.4442 
        1.09222         19.4419          9.3736         20.3133 
        1.09836         19.2011         9.25232         20.1143 
        1.10449         19.1048         9.13334         19.9253 
        1.11063          18.858         9.01632         19.8034 
        1.11677         18.7933         8.90141         19.6075 
         1.1229         18.6907         8.78871         19.4721 
        1.12903         18.4335         8.67787         19.3314 
        1.13518         18.2494         8.56886         19.1331 
        1.14131         18.1847         8.46179         19.0007 
        1.14745          18.032         8.35661         18.8717 
        1.15359           17.92         8.25321         18.7128 
        1.15973         17.7328         8.15153          18.581 
        1.16584         17.5031         8.05202          18.462 
        1.17197         17.4982         7.95403         18.3521 
        1.17811         17.2819         7.85738          18.113 
        1.18424         17.1289         7.76263         18.0292 
        1.19038         17.0697         7.66917         17.9203 
        1.19652         16.9267         7.57729         17.7422 
        1.20267         16.7717         7.48692         17.6287 
        1.20881         16.6845         7.39805         17.5304 
        1.21495         16.5584         7.31077         17.4051 
        1.22108          16.397         7.22492         17.2657 
         1.2272         16.2372         7.14066         17.1334 
        1.23334         16.1428         7.05755         17.0471 
        1.23949         15.9927         6.97557         16.8896 
        1.24562         15.9333         6.89513         16.7689 
        1.25174         15.8361         6.81608         16.6708 
        1.25789         15.7066         6.73804          16.544 
        1.26402         15.6404         6.66136         16.4123 
        1.27014         15.4699         6.58606         16.3167 
        1.27628         15.3073         6.51171          16.183 
        1.28244         15.2467         6.43837         16.1312 
        1.28858         15.1964         6.36626         15.9858 
        1.29471         15.0374         6.29541         15.8745 
        1.30084         14.9067         6.22572         15.8262 
        1.30697         14.8204         6.15698         15.6838 
        1.31312         14.6716         6.08918         15.5646 
        1.31925         14.5697         6.02262         15.5047 
        1.32537         14.5292         5.95713         15.4169 
        1.33151         14.3941         5.89238         15.2951 
        1.33765         14.3181         5.82863         15.1901 
        1.34378         14.2277         5.76596         15.0987 
        1.34992         14.0674         5.70417         15.0157 
        1.35606         14.0367         5.64315         14.8986 
         1.3622         13.9482         5.58314         14.8061 
        1.36833         13.8121         5.52414         14.7527 
        1.37445         13.7644         5.46603         14.6254 
        1.38059         13.6704         5.40858         14.5128 
        1.38675         13.5249         5.35182         14.4608 
        1.39288         13.4817          5.2961         14.3589 
        1.39901          13.366          5.2412         14.2777 
        1.40515         13.3073         5.18696         14.1957 
         1.4113         13.2029         5.13351         14.1166 
        1.41742         13.1071         5.08102         14.0396 
        1.42355         13.0395         5.02916         13.9293 
         1.4297         12.9681         4.97787         13.8578 
        1.43585          12.915         4.92732         13.8008 
        1.44198          12.797         4.87767         13.7119 
        1.44809         12.7287          4.8288         13.6406 
        1.45423         12.6355         4.78042         13.5472 
        1.46036         12.5749         4.73279         13.4569 
        1.46649         12.5125         4.68579         13.3899 
        1.47263         12.3961          4.6394         13.3383 
        1.47877          12.334         4.59365         13.2664 
        1.48491         12.2695         4.54846         13.1469 
        1.49104         12.2106         4.50397         13.0936 
        1.49718         12.1197         4.46004         13.0374 
        1.50333         12.0555         4.41663           12.96 
        1.50947         11.9837         4.37388         12.8963 
         1.5156         11.8956         4.33177         12.8272 
        1.52172         11.8335         4.29021         12.7382 
        1.52787          11.761         4.24912         12.6669 
          1.534         11.6873         4.20861         12.6035 
        1.54013         11.6068         4.16868         12.5096 
        1.54627         11.5361         4.12919         12.4384 
        1.55241         11.4817         4.09021         12.3975 
        1.55855         11.4239         4.05179         12.3335 
        1.56467         11.3458         4.01397         12.2648 
         1.5708         11.3272         3.97652         12.2166 
        1.57695         11.2161          3.9395         12.1539 
        1.58308         11.1634         3.90304         12.0873 
        1.58922         11.1132         3.86701         12.0437 
        1.59535         11.0564         3.83146          11.976 
         1.6015          10.971          3.7963         11.9061 
        1.60764         10.9082          3.7616         11.8381 
        1.61376           10.88         3.72743         11.7724 
        1.61989         10.7788         3.69366         11.7323 
        1.62604         10.7606         3.66023         11.6861 
        1.63218         10.6878         3.62724         11.6214 
        1.63831         10.6437         3.59474         11.5593 
        1.64444         10.5532         3.56261          11.509 
        1.65059         10.4966         3.53081         11.4362 
        1.65673         10.4738         3.49943         11.3911 
        1.66285         10.3661         3.46852         11.3457 
        1.66898         10.3435         3.43797         11.2686 
        1.67512         10.2977         3.40773         11.2135 
        1.68127         10.2277         3.37783         11.1593 
         1.6874         10.1756         3.34835         11.1036 
        1.69353         10.1164         3.31924         11.0595 
        1.69967         10.0628         3.29041         11.0121 
        1.70581         10.0153         3.26194         10.9655 
        1.71193         9.94876         3.23391         10.9163 
        1.71806         9.92437         3.20615         10.8586 
        1.72421         9.84895         3.17866         10.8182 
        1.73035         9.82314         3.15153         10.7676 
        1.73649         9.76894         3.12472         10.7044 
        1.74262         9.72127         3.09825         10.6674 
        1.74876         9.67613         3.07206         10.6136 
        1.75489          9.6283         3.04623         10.5473 
        1.76101         9.54797         3.02071         10.4975 
        1.76715         9.54597         2.99544         10.4729 
        1.77329         9.46606         2.97043          10.421 
        1.77943         9.41785          2.9457         10.3624 
        1.78557         9.38771         2.92128         10.3313 
        1.79171         9.35232         2.89714         10.2798 
        1.79785         9.27958         2.87327         10.2224 
        1.80399         9.23786         2.84967         10.1902 
        1.81012         9.20194         2.82637         10.1471 
        1.81625         9.14302         2.80334         10.1071 
        1.82239         9.10703         2.78053         10.0733 
        1.82853         9.04087         2.75799           10.02 
        1.83466         9.00867         2.73572         9.97549 
        1.84078         8.94841         2.71371         9.93939 
        1.84692          8.9367         2.69192         9.88562 
        1.85306         8.87597         2.67034         9.84344 
         1.8592         8.83619         2.64902         9.81018 
        1.86533         8.79896         2.62796         9.76298 
        1.87147         8.75802         2.60709         9.71887 
        1.87761         8.72419         2.58645         9.68466 
