# k  (h/Mpc)    Pcb(k)  (Mpc/h)^3    Pcb_linear(k) (Mpc/h)^3    Pcb_NL(k) (Mpc/h)^3   ShotnoiseSubtracted = false
     0.00783031         8780.31         8890.85          8850.4 
       0.013688         11191.9         11121.6           11058 
       0.019231           11429         11410.3         11329.3 
      0.0249154         10507.7         10676.1         10600.7 
      0.0312784         9253.43         9323.74         9258.47 
      0.0375637         7955.26         7946.68         7891.34 
      0.0433917         6794.94         6876.65         6820.85 
      0.0492413         6052.84         6073.08         6022.61 
      0.0555754         5364.15         5475.55         5429.49 
      0.0619321          5093.7         5067.94         5021.85 
       0.067871         4679.29         4764.94         4720.94 
      0.0738098         4376.95         4462.97         4393.58 
      0.0800417         3988.36          4104.6         4043.51 
      0.0862327         3636.37         3704.92         3676.99 
      0.0921407         3295.53         3310.75          3293.2 
      0.0982031         2908.73         2932.16         2952.21 
       0.104506         2655.57         2600.57         2649.57 
       0.110769         2407.23         2350.11            2384 
       0.116806         2227.04         2180.15         2210.77 
       0.122832         2119.77         2064.06         2097.32 
       0.129052         1990.04         1976.15         2003.98 
       0.135211          1909.4          1896.4         1922.02 
       0.141259         1840.52         1807.33          1843.6 
       0.147318          1743.8         1699.79         1754.08 
       0.153489         1604.42         1574.27         1615.69 
       0.159709         1500.81         1442.13         1504.94 
       0.165845         1413.53         1319.11         1412.78 
       0.171974         1309.38         1213.74         1307.66 
       0.178125         1233.99         1130.52          1242.3 
       0.184229         1176.54         1069.67         1174.65 
        0.19034          1103.6         1025.58         1125.14 
       0.196428         1088.02         991.197         1078.47 
       0.202534         1058.67         958.896         1048.44 
       0.208729         1011.72         922.516         1005.19 
       0.214876         962.889         880.084         982.021 
       0.220989         930.781         832.204         944.049 
       0.227147         879.221         781.331         899.641 
        0.23329         838.447         732.025         863.563 
       0.239377         814.425         688.124         821.718 
       0.245482         758.018         651.117         777.268 
       0.251667         748.577         621.177         753.502 
       0.257832         721.436         597.679         725.139 
       0.263955         698.506         578.402         702.184 
       0.270079         674.839         560.728         683.425 
        0.27624         667.405         542.483         662.801 
       0.282372         640.337         522.655         646.504 
        0.28843         624.446         501.301         627.548 
       0.294538         593.931         478.664         609.404 
       0.300721         588.905         455.879         590.512 
        0.30691          560.89         434.425         574.235 
       0.313033         548.581          415.48         551.908 
       0.319153         530.889         399.133         535.135 
       0.325316         515.561         385.137         522.721 
        0.33145         500.774         373.043         503.871 
       0.337538         493.807          362.11         492.477 
       0.343633         478.401         351.464         487.126 
       0.349808         463.011          340.49         477.944 
       0.355968         458.126         329.099         468.886 
       0.362074          448.74         317.494         457.296 
       0.368217         436.244         305.794         442.691 
       0.374374         418.895         294.441         432.204 
       0.380519         414.624         283.848          420.75 
       0.386598         404.277         274.269         413.801 
       0.392688         400.918         265.637         402.038 
        0.39888         389.645         257.701         394.188 
       0.405048         381.331          250.41         388.939 
       0.411186         373.769         243.525         378.851 
       0.417313         367.056         236.786         370.576 
       0.423458          359.99          230.03         364.781 
       0.429607         352.459         223.262         357.714 
       0.435692         343.759         216.589          350.06 
       0.441815         340.932          210.01         346.496 
       0.447964         333.795         203.671         339.485 
       0.454126         322.864         197.665         330.016 
       0.460267         318.504         192.062         327.448 
       0.466387         314.922         186.864         320.746 
        0.47254         308.042         181.965          315.75 
       0.478662         306.808         177.325         309.743 
       0.484765         297.241         172.864          303.05 
       0.490885         293.647         168.503         299.279 
       0.497035         288.666         164.187         295.632 
       0.503198         282.767         159.921          291.04 
       0.509342         280.163         155.758         287.287 
       0.515458         276.605         151.739          284.31 
       0.521598          271.39         147.851         278.416 
       0.527764         266.955         144.111         274.448 
       0.533884         264.007         140.575         270.787 
           0.54         260.255         137.217         266.459 
       0.546137         258.732         133.993         263.448 
       0.552299         253.538         130.872         258.937 
       0.558452          250.87         127.848         255.727 
       0.564573         246.878         124.918         253.508 
       0.570708          242.36         122.055         250.606 
       0.576825         238.967         119.267          245.64 
       0.582926         236.095         116.555          242.85 
       0.589034         233.393         113.915         240.252 
       0.595184         230.836         111.342         235.888 
       0.601379         228.448         108.846         234.376 
       0.607522         223.986         106.465         231.043 
       0.613639         222.731         104.178         228.925 
       0.619772         217.819          101.96          226.55 
       0.625918          216.28         99.8041         223.626 
       0.632068         213.327          97.706         220.195 
       0.638161         212.149          95.683         219.051 
         0.6443         208.796         93.6994         216.443 
       0.650464          206.59         91.7612          212.45 
       0.656582         204.884         89.8885         210.806 
       0.662703         202.791         88.0653          208.98 
       0.668861          199.41         86.2816         206.687 
       0.675024         196.987         84.5471         204.234 
       0.681124         196.168         82.8803         201.937 
       0.687237         193.139         81.2593         199.739 
       0.693381         190.345          79.678         197.509 
       0.699536         188.987         78.1387         195.782 
       0.705665         188.271         76.6481         194.557 
       0.711789         184.906         75.1977         192.093 
       0.717957         184.174         73.7738         190.308 
        0.72409         181.793         72.3926         189.157 
       0.730186         179.186         71.0534         187.365 
       0.736317         177.767         69.7397         184.978 
       0.742472         176.685          68.454         183.278 
       0.748622         175.212         67.2021         181.244 
        0.75476         173.679         65.9851         180.034 
       0.760888         171.231         64.8013         177.628 
       0.767043         170.604         63.6431         176.621 
       0.773185         168.698         62.5168         175.463 
       0.779291         165.872         61.4249         173.484 
       0.785407         165.288         60.3581         171.667 
       0.791564         163.647         59.3102         170.544 
       0.797719         161.429         58.2878         169.583 
       0.803834         160.609         57.2958         167.729 
       0.809972         158.936         56.3232         166.346 
       0.816124         158.768         55.3708         165.112 
       0.822261          156.65          54.443          163.62 
       0.828378         155.174         53.5392         161.788 
       0.834502         154.998         52.6552         160.773 
       0.840667         152.455         51.7855         159.804 
       0.846816         151.202          50.938         158.402 
       0.852925         150.384         50.1151         157.126 
       0.859047         148.586         49.3088         155.939 
       0.865192          147.55         48.5178         154.719 
       0.871341         146.149         47.7439         153.276 
       0.877463         144.995         46.9905         152.437 
       0.883569         144.069         46.2554         151.531 
       0.889708         142.919         45.5324         150.206 
       0.895864         141.333         44.8231         149.424 
       0.902008         140.574         44.1305         147.849 
       0.908149         139.855         43.4531         146.602 
       0.914301         138.285         42.7889         145.804 
       0.920448         137.277         42.1392         144.759 
       0.926574         136.482         41.5054         143.348 
       0.932687         135.932          40.886         142.382 
       0.938823         133.992         40.2771         141.637 
       0.944975         132.811         39.6793         140.753 
       0.951105           132.2         39.0958         139.552 
       0.957225         130.686         38.5251         138.583 
       0.963368         129.603          37.964         137.237 
       0.969511         129.277         37.4141         136.441 
       0.975621         128.573         36.8781         136.475 
       0.981748         127.782         36.3513         135.191 
       0.987916         126.229         35.8315         134.352 
        0.99406         125.491          35.324          133.29 
        1.00019         124.938         34.8273         132.206 
        1.00632         123.841         34.3407         131.219 
        1.01246         123.018         33.8627         130.135 
        1.01859         121.738         33.3947         129.856 
        1.02471         121.272         32.9361         129.393 
        1.03085         120.134         32.4846         128.304 
        1.03698         119.424         32.0426         127.314 
        1.04314         118.389          31.607         126.594 
        1.04929         117.632         31.1806         125.972 
        1.05541         116.878         30.7637         125.288 
        1.06154         116.164         30.3535         124.577 
        1.06769         115.912         29.9502         123.853 
        1.07382         115.085         29.5556         123.091 
        1.07993         114.101          29.169         122.262 
        1.08607         113.267         28.7878         121.646 
        1.09222         112.797          28.413         120.979 
        1.09836         111.822         28.0454         120.079 
        1.10449         111.033         27.6847         119.387 
        1.11063         110.312           27.33          118.37 
        1.11677         109.849         26.9817         117.811 
         1.1229          108.67         26.6401         117.324 
        1.12903         107.894         26.3041         116.528 
        1.13518         108.002         25.9737         115.895 
        1.14131         106.888         25.6491         115.058 
        1.14745         106.172         25.3303         114.565 
        1.15359         105.484         25.0169          113.79 
        1.15973         105.115         24.7087         113.519 
        1.16584         104.186          24.407         112.443 
        1.17197         103.606           24.11         112.038 
        1.17811         102.892         23.8171         111.545 
        1.18424         102.333         23.5298         110.881 
        1.19038         101.853         23.2466         110.273 
        1.19652         101.187         22.9681         109.644 
        1.20267         100.384         22.6941         109.046 
        1.20881         99.7218         22.4248          108.52 
        1.21495         99.1363         22.1602         107.699 
        1.22108          98.585            21.9         107.471 
         1.2272         97.7756         21.6445         106.671 
        1.23334         97.3716         21.3926         106.361 
        1.23949         96.4963         21.1441         105.473 
        1.24562          96.169         20.9003         104.897 
        1.25174         95.4127         20.6607         104.452 
        1.25789         95.0089         20.4241         103.931 
        1.26402         94.5902         20.1917          103.41 
        1.27014         93.8022         19.9635         103.277 
        1.27628         93.4206         19.7381         102.795 
        1.28244         92.6835         19.5158         101.749 
        1.28858         92.3625         19.2972         101.211 
        1.29471         91.6374         19.0825         100.896 
        1.30084         91.1256         18.8712         100.218 
        1.30697         90.5841         18.6629         99.8552 
        1.31312         90.1976         18.4573         99.3143 
        1.31925           89.53         18.2556         98.7747 
        1.32537         89.1793         18.0571         98.4011 
        1.33151         88.3276         17.8608          97.812 
        1.33765         87.9025         17.6676         97.4088 
        1.34378         87.3622         17.4776         96.9146 
        1.34992         87.1851         17.2903         96.4085 
        1.35606         86.5981         17.1054         95.8785 
         1.3622         85.7649         16.9234         95.4702 
        1.36833         85.6351         16.7446         94.9132 
        1.37445         84.9863         16.5685         94.4399 
        1.38059         84.4763         16.3943         94.0791 
        1.38675         83.9135         16.2223          93.442 
        1.39288         83.4768         16.0534         93.1184 
        1.39901         83.2591          15.887         92.7519 
        1.40515         82.7188         15.7226         92.4102 
         1.4113         82.0501         15.5605         92.0169 
        1.41742         81.9911         15.4014         91.4613 
        1.42355         81.2158         15.2442         90.9469 
         1.4297         80.8341         15.0888         90.5673 
        1.43585         80.2106         14.9356         90.0758 
        1.44198         79.9474          14.785         89.7566 
        1.44809         79.4646         14.6369         89.2598 
        1.45423         78.9559         14.4903          88.808 
        1.46036         78.7415         14.3459         88.4619 
        1.46649         78.1977         14.2034         88.1786 
        1.47263         77.7144         14.0628         87.7751 
        1.47877         77.4993         13.9241         87.1061 
        1.48491         76.9234         13.7871          86.921 
        1.49104         76.5369         13.6523         86.5799 
        1.49718         76.0389         13.5191          86.014 
        1.50333         75.6212         13.3875         85.6112 
        1.50947         75.2066          13.258          85.239 
         1.5156         74.9128         13.1303         84.8827 
        1.52172         74.3992         13.0044         84.5751 
        1.52787          74.235         12.8798         84.1254 
          1.534         73.7093          12.757         83.7919 
        1.54013         73.1739          12.636         83.3754 
        1.54627         72.9108         12.5163         83.0005 
        1.55241         72.4273         12.3981         82.7069 
        1.55855         72.1456         12.2817         82.2271 
        1.56467          71.603          12.167         81.8987 
         1.5708         71.3742         12.0535         81.5965 
        1.57695         71.1182         11.9413         81.2431 
        1.58308         70.4077         11.8308         80.9033 
        1.58922         70.3114         11.7216          80.493 
        1.59535         70.0526         11.6138         80.1374 
         1.6015         69.4076         11.5072         79.7428 
        1.60764         69.1834          11.402         79.4777 
        1.61376         68.7414         11.2985         79.3314 
        1.61989         68.3893         11.1961         78.9033 
        1.62604          68.152         11.0948         78.3937 
        1.63218         67.8373         10.9948         78.0532 
        1.63831         67.3293         10.8963         77.8815 
        1.64444         67.0272         10.7989         77.5249 
        1.65059         66.5422         10.7025         76.9931 
        1.65673         66.2737         10.6074          76.758 
        1.66285         65.9357         10.5137         76.5684 
        1.66898         65.6288         10.4211         76.1343 
        1.67512         65.1915         10.3294         75.8638 
        1.68127         64.8573         10.2388         75.4888 
         1.6874         64.5863         10.1494         75.0932 
        1.69353         64.2442         10.0612         74.9142 
        1.69967         63.8518          9.9738         74.6229 
        1.70581         63.6916         9.88749         74.2341 
        1.71193         63.4456         9.80253         73.9202 
        1.71806         62.7975         9.71839         73.7674 
        1.72421         62.6666         9.63507         73.4294 
        1.73035         62.3276         9.55282         73.0248 
        1.73649         61.9243         9.47156         72.7225 
        1.74262         61.7431          9.3913         72.4961 
        1.74876         61.4024         9.31193         72.1807 
        1.75489         60.9798         9.23363         71.8398 
        1.76101         60.7958         9.15627          71.538 
        1.76715         60.3571         9.07968         71.1977 
        1.77329         60.1034         9.00388         70.9565 
        1.77943         59.7041         8.92891         70.7012 
        1.78557         59.5524         8.85491         70.3099 
        1.79171         59.1998         8.78173         70.0223 
        1.79785         58.9619         8.70937         69.8116 
        1.80399         58.6608         8.63784         69.5361 
        1.81012          58.429         8.56721         69.2488 
        1.81625         57.9084          8.4974         68.9426 
        1.82239          57.715         8.42826         68.6706 
        1.82853         57.3404         8.35993          68.498 
        1.83466         57.1416         8.29242           68.19 
        1.84078         56.7577         8.22573         67.8315 
        1.84692         56.4388         8.15966           67.71 
        1.85306         56.2348         8.09424         67.4434 
         1.8592         55.8153         8.02964         67.0643 
        1.86533         55.6598         7.96578         66.8259 
        1.87147         55.3147         7.90254           66.48 
