# k  (h/Mpc)    Pcb(k)  (Mpc/h)^3    Pcb_linear(k) (Mpc/h)^3    Pcb_NL(k) (Mpc/h)^3   ShotnoiseSubtracted = false
     0.00783031         10524.3         10661.9         10612.4 
       0.013688           13431         13333.9         13253.6 
       0.019231         13701.6         13679.1         13575.2 
      0.0249154         12573.8         12798.5         12697.4 
      0.0312784         11076.9         11177.1           11084 
      0.0375637         9529.91         9526.16         9446.18 
      0.0433917         8128.02          8243.4         8161.37 
      0.0492413          7246.7         7280.08         7205.28 
      0.0555754         6409.02         6563.77          6496.3 
      0.0619321         6099.92         6075.14          6008.1 
       0.067871         5590.47         5711.91         5648.57 
      0.0738098         5229.51         5349.92         5250.57 
      0.0800417         4760.27         4920.32          4832.7 
      0.0862327         4344.42          4441.2         4400.16 
      0.0921407         3944.94         3968.69         3942.07 
      0.0982031         3483.35         3514.86         3540.79 
       0.104506         3189.37         3117.38         3184.01 
       0.110769         2893.22         2817.14         2863.53 
       0.116806         2680.57         2613.41         2655.39 
       0.122832         2549.79         2474.24          2519.7 
       0.129052         2389.43         2368.86         2407.17 
       0.135211         2292.66         2273.26         2307.84 
       0.141259         2212.06         2166.49          2216.4 
       0.147318         2097.08         2037.58         2111.24 
       0.153489         1928.91         1887.11         1944.06 
       0.159709         1808.89         1728.72         1815.31 
       0.165845          1709.3         1581.25         1709.66 
       0.171974         1588.08         1454.94         1585.02 
       0.178125         1497.72         1355.18         1509.51 
       0.184229         1427.89         1282.24         1426.46 
        0.19034         1341.23         1229.38         1366.73 
       0.196428         1322.26         1188.17          1310.4 
       0.202534         1284.45         1149.45         1274.64 
       0.208729         1228.36         1105.84         1220.89 
       0.214876         1172.01         1054.98         1195.06 
       0.220989         1133.24         997.581         1151.64 
       0.227147         1074.15         936.599         1100.75 
        0.23329         1025.95         877.495         1058.77 
       0.239377          999.83          824.87         1008.25 
       0.245482          931.66         780.509         954.887 
       0.251667         922.024         744.618         926.728 
       0.257832         887.448         716.451         892.191 
       0.263955         859.636         693.343         864.646 
       0.270079          830.35         672.157         842.207 
        0.27624         822.021         650.287         817.802 
       0.282372         788.103         626.519         799.213 
        0.28843         772.855         600.921         777.581 
       0.294538         734.269         573.785         755.588 
       0.300721         729.476         546.472         732.203 
        0.30691         695.898         520.755         714.305 
       0.313033         681.557         498.045         687.207 
       0.319153         662.605         478.449         666.371 
       0.325316         642.516         461.672         651.645 
        0.33145         625.335         447.175         628.199 
       0.337538         616.316         434.069         615.357 
       0.343633         598.069         421.307         609.443 
       0.349808         578.271         408.153         598.608 
       0.355968         573.637         394.498         587.854 
       0.362074         563.739         380.587         574.286 
       0.368217         547.751         366.561         556.654 
       0.374374         525.011         352.952         544.111 
       0.380519         521.894         340.255         530.238 
       0.386598         508.669         328.772         522.658 
       0.392688         505.818         318.425         507.453 
        0.39888          491.04         308.912         498.805 
       0.405048         481.464         300.172         492.046 
       0.411186         472.935         291.918         479.678 
       0.417313         464.147         283.841         470.526 
       0.423458          455.59         275.742         463.663 
       0.429607         447.026         267.629         454.616 
       0.435692         436.642          259.63         445.014 
       0.441815         433.072         251.743         441.047 
       0.447964          423.68         244.144         432.805 
       0.454126         412.737         236.945         420.855 
       0.460267         406.224         230.228         418.287 
       0.466387          401.74         223.998         410.029 
        0.47254         393.638         218.125         404.097 
       0.478662         392.483         212.564         396.475 
       0.484765         379.847         207.216         388.942 
       0.490885         376.006         201.988         383.708 
       0.497035         369.012         196.815         379.326 
       0.503198         363.191         191.701         373.792 
       0.509342         360.243         186.711         368.965 
       0.515458         356.189         181.892         365.452 
       0.521598         348.497         177.232           358.7 
       0.527764         342.423         172.749         354.248 
       0.533884         339.887         168.511         349.539 
           0.54         335.245         164.485          343.99 
       0.546137         333.592          160.62         340.005 
       0.552299         326.768         156.879         334.859 
       0.558452         324.397         153.254          331.22 
       0.564573         319.391         149.742         328.496 
       0.570708         313.814         146.309         325.147 
       0.576825         308.306         142.968         318.833 
       0.582926         305.902         139.717         315.529 
       0.589034         302.829         136.552         311.689 
       0.595184         299.739         133.468         306.771 
       0.601379         296.276         130.476         304.327 
       0.607522           291.3         127.621         300.443 
       0.613639          289.72         124.881         298.275 
       0.619772         283.101         122.222         296.197 
       0.625918         281.947         119.637         291.701 
       0.632068         277.574         117.122         287.831 
       0.638161         276.399         114.697          285.98 
         0.6443         271.737         112.319          283.02 
       0.650464         269.042         109.996         277.862 
       0.656582         267.434         107.751         275.706 
       0.662703         265.563         105.566         274.134 
       0.668861         260.771         103.428         271.321 
       0.675024         257.718         101.348         268.508 
       0.681124         256.592         99.3504         264.735 
       0.687237          253.46         97.4073         262.271 
       0.693381         249.657         95.5117          259.63 
       0.699536         247.579         93.6665         257.627 
       0.705665         245.892         91.8797          255.35 
       0.711789         243.117         90.1411         253.136 
       0.717957         241.705         88.4342         251.129 
        0.72409         239.006         86.7786         249.152 
       0.730186         236.102         85.1732         246.835 
       0.736317         233.671         83.5985         244.009 
       0.742472         232.413         82.0573         241.651 
       0.748622           230.5         80.5566         239.321 
        0.75476          228.48         79.0977         238.578 
       0.760888         225.436         77.6786         235.248 
       0.767043         225.294         76.2904         233.826 
       0.773185         222.451         74.9402         232.078 
       0.779291         218.503         73.6313         229.484 
       0.785407         218.022         72.3525         227.664 
       0.791564         215.702         71.0964         226.014 
       0.797719          213.21         69.8708           224.6 
       0.803834         211.933         68.6817         222.888 
       0.809972         210.382         67.5157         221.009 
       0.816124         210.252         66.3741         218.958 
       0.822261         207.219         65.2619         217.409 
       0.828378         205.439         64.1785         215.338 
       0.834502         205.092         63.1188           213.9 
       0.840667         201.818         62.0763         212.222 
       0.846816          200.46         61.0605         210.907 
       0.852925         199.582          60.074          209.27 
       0.859047         197.548         59.1075         207.813 
       0.865192         195.664         58.1594         206.045 
       0.871341         193.964         57.2316         204.434 
       0.877463         192.572         56.3285         203.326 
       0.883569         191.692         55.4473         202.277 
       0.889708         189.836         54.5806         200.281 
       0.895864          187.47         53.7304         199.183 
       0.902008         186.875         52.9002         197.498 
       0.908149         186.074         52.0882         195.792 
       0.914301         183.717         51.2919         194.634 
       0.920448         182.394         50.5131         193.068 
       0.926574         181.397         49.7533         191.608 
       0.932687         180.957         49.0109         190.426 
       0.938823          178.61          48.281         189.526 
       0.944975         177.146         47.5644         188.454 
       0.951105         176.359         46.8649         186.918 
       0.957225         174.531         46.1809           185.5 
       0.963368           172.5         45.5082         183.995 
       0.969511         171.954          44.849         182.742 
       0.975621         170.728         44.2065         182.425 
       0.981748         170.402          43.575         181.128 
       0.987916         168.333          42.952         179.922 
        0.99406         167.026         42.3436         178.711 
        1.00019         166.846         41.7482         177.338 
        1.00632         165.136         41.1649         175.901 
        1.01246         164.072         40.5919         174.495 
        1.01859         163.197         40.0309         174.065 
        1.02471         161.626         39.4812         173.381 
        1.03085         160.097           38.94         172.151 
        1.03698         159.348         38.4102         171.222 
        1.04314         158.018          37.888         169.953 
        1.04929         156.893         37.3768           168.9 
        1.05541         156.395         36.8771         167.987 
        1.06154          155.15         36.3854         166.996 
        1.06769         154.971          35.902         166.208 
        1.07382         153.583         35.4289         165.107 
        1.07993         152.197         34.9655         164.055 
        1.08607         151.416         34.5085          163.26 
        1.09222         150.718         34.0593         162.472 
        1.09836         149.381         33.6186         161.551 
        1.10449         147.972         33.1862         160.595 
        1.11063         146.883         32.7611         159.368 
        1.11677         146.557         32.3435         158.406 
         1.1229         145.166          31.934         157.632 
        1.12903         144.423         31.5313         156.801 
        1.13518         144.028         31.1352         155.899 
        1.14131         142.463         30.7461         154.798 
        1.14745         142.025          30.364         154.181 
        1.15359         140.951         29.9883         153.225 
        1.15973         140.404         29.6188         152.469 
        1.16584         138.926         29.2572         151.108 
        1.17197         138.375         28.9012         150.724 
        1.17811         137.488           28.55         150.091 
        1.18424         136.811         28.2057         148.954 
        1.19038          136.38         27.8661         148.456 
        1.19652         135.272         27.5323         147.747 
        1.20267         134.451         27.2039          146.74 
        1.20881         133.263          26.881         146.064 
        1.21495         132.777         26.5639         145.114 
        1.22108         132.015         26.2519         144.657 
         1.2272         130.867         25.9458         143.409 
        1.23334         130.285         25.6438         143.124 
        1.23949         129.131         25.3459         142.265 
        1.24562         128.526         25.0536         141.163 
        1.25174          127.29         24.7664         140.672 
        1.25789         126.818         24.4828          139.91 
        1.26402         126.114         24.2042         139.152 
        1.27014         125.298         23.9306         138.897 
        1.27628         124.636         23.6605         138.431 
        1.28244         124.092          23.394         137.211 
        1.28858         123.509          23.132         136.426 
        1.29471         122.114         22.8746         135.833 
        1.30084          121.74         22.6213         135.047 
        1.30697         120.908         22.3716         134.514 
        1.31312         120.519         22.1252         133.607 
        1.31925         119.418         21.8834         133.012 
        1.32537         118.889         21.6454         132.627 
        1.33151         117.759         21.4101         131.791 
        1.33765         117.439         21.1785         131.185 
        1.34378         116.646         20.9508         130.565 
        1.34992          116.42         20.7262         129.762 
        1.35606         115.586         20.5045         129.057 
         1.3622         114.584         20.2865         128.566 
        1.36833         114.054         20.0721          127.78 
        1.37445         113.316          19.861         127.211 
        1.38059         112.851         19.6522         126.544 
        1.38675         111.994          19.446         125.873 
        1.39288         111.604         19.2435         125.066 
        1.39901         111.121         19.0441         124.785 
        1.40515         110.249          18.847         124.393 
         1.4113         109.353         18.6527         123.793 
        1.41742         109.122          18.462         123.235 
        1.42355         108.293         18.2736         122.657 
         1.4297         107.698         18.0872         122.009 
        1.43585         106.793         17.9036         121.191 
        1.44198         106.587         17.7231         120.755 
        1.44809         105.785         17.5456         120.249 
        1.45423         105.078         17.3698         119.565 
        1.46036         104.829         17.1967         119.021 
        1.46649         104.025         17.0259         118.651 
        1.47263         103.446         16.8574         118.188 
        1.47877         103.103         16.6912         117.349 
        1.48491         102.064         16.5269         116.932 
        1.49104         101.841         16.3653          116.66 
        1.49718         100.985         16.2057         115.664 
        1.50333          100.54         16.0479         115.118 
        1.50947         100.062         15.8926         114.724 
         1.5156         99.4432         15.7396           114.2 
        1.52172         98.7769         15.5886         113.715 
        1.52787         98.3946         15.4393         113.141 
          1.534         97.7466         15.2921          112.68 
        1.54013         97.1195          15.147         112.209 
        1.54627         96.7474         15.0035         111.694 
        1.55241          96.032         14.8619         111.201 
        1.55855         95.6907         14.7223         110.658 
        1.56467         95.2258         14.5849         110.122 
         1.5708         94.5151         14.4488         109.715 
        1.57695         94.3149         14.3143         109.252 
        1.58308         93.3738         14.1818         108.662 
        1.58922         93.2124         14.0509         108.159 
        1.59535         92.6315         13.9217          107.74 
         1.6015         92.0633         13.7939         107.199 
        1.60764         91.5526         13.6679         106.717 
        1.61376          91.308         13.5437         106.482 
        1.61989         90.5792          13.421         106.068 
        1.62604         90.2703         13.2996         105.309 
        1.63218         89.7474         13.1797         104.807 
        1.63831          88.965         13.0616         104.586 
        1.64444         88.7023         12.9448         103.982 
        1.65059         88.1262         12.8293         103.504 
        1.65673          87.354         12.7153          103.09 
        1.66285         87.2411         12.6029         102.696 
        1.66898         86.6723         12.4919         102.299 
        1.67512         86.1676         12.3821         101.828 
        1.68127         85.7181         12.2734         101.313 
         1.6874         85.2219         12.1663         100.887 
        1.69353         84.7406         12.0606         100.579 
        1.69967         84.2506         11.9558         100.078 
        1.70581         83.9414         11.8523         99.5836 
        1.71193         83.6244         11.7505         99.2097 
        1.71806         82.9196         11.6496         98.8485 
        1.72421         82.4944         11.5498         98.4153 
        1.73035         82.0937         11.4512         97.8994 
        1.73649         81.6419         11.3538         97.4209 
        1.74262         81.1684         11.2575         97.1409 
        1.74876          80.839         11.1624         96.7286 
        1.75489         80.1465         11.0685         96.2121 
        1.76101         79.9402         10.9758         95.7651 
        1.76715         79.3702          10.884         95.4209 
        1.77329         79.0528         10.7931         95.0479 
        1.77943         78.4631         10.7033         94.6343 
        1.78557         78.2722         10.6146         94.2471 
        1.79171         77.6851         10.5268         93.8936 
        1.79785         77.3491         10.4401         93.5428 
        1.80399         76.9922         10.3544         93.1432 
        1.81012         76.6682         10.2697         92.6576 
        1.81625         76.0838          10.186          92.247 
        1.82239         75.7992         10.1031         91.9386 
        1.82853         75.4756         10.0212         91.5765 
        1.83466         74.9355         9.94029         91.1582 
        1.84078           74.71         9.86035         90.7926 
        1.84692         74.0842         9.78115         90.5632 
        1.85306         73.6856         9.70273         90.1454 
         1.8592         73.2849         9.62529         89.6726 
        1.86533          72.951         9.54874         89.3579 
        1.87147         72.3976         9.47294         88.8351 
