# k  (h/Mpc)    Pcb(k)  (Mpc/h)^3    Pcb_linear(k) (Mpc/h)^3    Pcb_NL(k) (Mpc/h)^3   ShotnoiseSubtracted = false
     0.00783031          6645.4         6724.74         6694.81 
       0.013688         8456.21         8414.43         8369.43 
       0.019231         8646.93         8633.57         8577.49 
      0.0249154         7969.65         8078.41         8029.59 
      0.0312784         7014.43         7055.27         7017.36 
      0.0375637         6024.38         6013.34         5982.12 
      0.0433917         5155.85         5203.69         5173.33 
      0.0492413         4587.24         4595.64         4568.63 
      0.0555754         4076.39          4143.5         4118.23 
      0.0619321         3858.27         3835.07         3809.44 
       0.067871         3555.74         3605.79         3580.75 
      0.0738098         3325.92         3377.28         3337.41 
      0.0800417         3034.87          3106.1         3071.15 
      0.0862327         2763.31         2803.65         2788.33 
      0.0921407          2497.9         2505.37         2496.42 
      0.0982031            2204         2218.88         2232.29 
       0.104506         2004.08         1967.95         1998.43 
       0.110769         1815.06         1778.42         1799.46 
       0.116806          1676.5         1649.81         1668.77 
       0.122832         1596.74         1561.96         1582.57 
       0.129052          1502.9         1495.43         1512.56 
       0.135211         1441.78         1435.08         1451.23 
       0.141259         1387.96         1367.68         1389.88 
       0.147318         1314.11          1286.3         1320.03 
       0.153489          1209.7         1191.31         1216.75 
       0.159709         1127.37         1091.32         1129.58 
       0.165845         1057.29         998.229         1055.55 
       0.171974         975.541         918.489         975.186 
       0.178125         918.345         855.515         923.138 
       0.184229         875.339         809.468         873.485 
        0.19034         820.777         776.096         836.467 
       0.196428         808.473         750.082         801.963 
       0.202534         788.054         725.638         778.995 
       0.208729         752.603         698.107          747.83 
       0.214876           714.5         665.997         728.171 
       0.220989         690.044         629.764         697.724 
       0.227147          648.87         591.267         662.429 
        0.23329         617.299         553.955         633.735 
       0.239377          596.67         520.734         602.271 
       0.245482         555.211         492.729         568.971 
       0.251667         546.362         470.071         550.459 
       0.257832         527.308          452.29          529.57 
       0.263955         510.049         437.702         512.368 
       0.270079         493.083         424.327         498.103 
        0.27624          486.58         410.521         482.352 
       0.282372         467.416         395.516         469.576 
        0.28843         452.686         379.357         454.616 
       0.294538         431.513         362.226         440.668 
       0.300721         425.966         344.984         426.633 
        0.30691         405.151         328.749         413.063 
       0.313033          395.02         314.412         396.505 
       0.319153         379.966         302.041         384.337 
       0.325316         370.002          291.45         374.819 
        0.33145         358.479         282.298         361.395 
       0.337538         353.353         274.025         352.258 
       0.343633         342.007         265.968         347.385 
       0.349808         331.418         257.664         340.328 
       0.355968         326.445         249.044         333.415 
       0.362074         318.325         240.262         324.453 
       0.368217         309.436         231.407         313.587 
       0.374374         298.355         222.816         305.692 
       0.380519         293.476           214.8         297.082 
       0.386598         285.935         207.551         291.002 
       0.392688         282.334         201.019         283.298 
        0.39888          274.78         195.014         276.548 
       0.405048         268.547         189.496         272.542 
       0.411186         262.668         184.286          265.79 
       0.417313         257.632         179.187          259.06 
       0.423458         252.314         174.074         254.505 
       0.429607         246.441         168.952         249.552 
       0.435692          239.57         163.903         244.123 
       0.441815           237.6         158.924         241.153 
       0.447964         232.946         154.127         235.651 
       0.454126         223.595         149.582         228.962 
       0.460267         220.926         145.342         226.619 
       0.466387         218.168         141.409         221.665 
        0.47254           213.4         137.701         217.851 
       0.478662         211.766          134.19         213.726 
       0.484765         205.539         130.814         208.592 
       0.490885         202.521         127.514         206.045 
       0.497035         199.488         124.248         203.332 
       0.503198         194.431         121.019         199.844 
       0.509342         191.845         117.869         196.993 
       0.515458         189.216         114.827         194.797 
       0.521598         186.251         111.885         190.258 
       0.527764         183.371         109.055         186.814 
       0.533884         180.553          106.38          184.27 
           0.54          177.69         103.838         181.345 
       0.546137         176.266         101.398         179.267 
       0.552299         173.128         99.0366         175.648 
       0.558452         170.227         96.7484         173.044 
       0.564573         167.294         94.5311         171.443 
       0.570708         164.628         92.3641         169.053 
       0.576825         162.452          90.255         165.803 
       0.582926         159.793         88.2026         163.594 
       0.589034          157.46         86.2044         162.001 
       0.595184         155.589         84.2575         158.993 
       0.601379         153.998         82.3684          157.84 
       0.607522         150.441         80.5664         154.983 
       0.613639         149.863         78.8363         153.413 
       0.619772         146.578          77.158         151.147 
       0.625918         145.048         75.5262         149.558 
       0.632068         143.392         73.9385         147.131 
       0.638161         142.069         72.4076         146.175 
         0.6443         140.134         70.9065         144.066 
       0.650464         138.471         69.4398         141.303 
       0.656582         136.752         68.0226         140.349 
       0.662703          134.65         66.6429         138.412 
       0.668861         132.899         65.2931         136.961 
       0.675024         131.311         63.9805         135.046 
       0.681124         130.302         62.7192          133.67 
       0.687237         127.931         61.4925         131.995 
       0.693381         126.318         60.2959          130.33 
       0.699536         125.217          59.131         129.265 
       0.705665         125.419          58.003         128.445 
       0.711789         122.158         56.9055         126.163 
       0.717957         121.677         55.8279         124.994 
        0.72409          119.91         54.7827         124.347 
       0.730186         117.916         53.7693         122.981 
       0.736317         117.523         52.7752         121.235 
       0.742472         116.416         51.8022         120.111 
       0.748622         115.349         50.8548         118.678 
        0.75476         114.173         49.9339          117.39 
       0.760888         112.529          49.038         115.901 
       0.767043         111.676         48.1616         115.343 
       0.773185         110.439         47.3092         114.574 
       0.779291         109.198          46.483         113.258 
       0.785407         108.482         45.6757         111.753 
       0.791564         107.191         44.8827         110.941 
       0.797719         105.684         44.1089         110.245 
       0.803834         105.192         43.3583          108.69 
       0.809972         103.554         42.6222         107.793 
       0.816124         103.202         41.9016          107.13 
       0.822261         102.194         41.1994         105.935 
       0.828378          101.21         40.5155         104.554 
       0.834502         100.576         39.8465         104.055 
       0.840667         99.3339         39.1884         103.527 
       0.846816         98.2635         38.5471         102.363 
       0.852925         97.4569         37.9243          101.38 
       0.859047         96.1982         37.3142         100.429 
       0.865192         95.7553         36.7156         99.8074 
       0.871341         94.9411         36.1299         98.7281 
       0.877463         93.7221         35.5598           98.11 
       0.883569         93.0959         35.0035         97.4263 
       0.889708         92.4865         34.4564          96.582 
       0.895864         91.6427         33.9196         95.9476 
       0.902008          90.913         33.3955         94.8857 
       0.908149          90.306         32.8829         94.1809 
       0.914301         89.2944         32.3802         93.6185 
       0.920448         88.7251         31.8886         92.9021 
       0.926574         87.9791          31.409         91.8358 
       0.932687          87.588         30.9402         91.2013 
       0.938823         86.2036         30.4795         90.5038 
       0.944975         85.7189         30.0271         89.8354 
       0.951105           85.02         29.5855         89.1932 
       0.957225         83.9881         29.1537         88.6306 
       0.963368         83.7181          28.729         87.6093 
       0.969511         83.2686         28.3129         87.0864 
       0.975621         82.7486         27.9073         87.1534 
       0.981748         81.9428         27.5086         86.1707 
       0.987916         81.1881         27.1153         85.7263 
        0.99406         80.7235         26.7312         84.8817 
        1.00019         79.8772         26.3554         84.1547 
        1.00632         79.5104         25.9871          83.665 
        1.01246         78.7669         25.6254         82.9532 
        1.01859         77.7531         25.2712         82.5976 
        1.02471         77.9438         24.9242         82.2227 
        1.03085          77.074         24.5826         81.4624 
        1.03698         76.4912         24.2481         80.7906 
        1.04314         75.7452         23.9184         80.3015 
        1.04929         75.3337         23.5957         79.9609 
        1.05541         74.6754         23.2803         79.5782 
        1.06154         74.4308         22.9699         79.0247 
        1.06769         73.8428         22.6647          78.506 
        1.07382         73.5484          22.366         77.9582 
        1.07993         73.0658         22.0735         77.4587 
        1.08607         72.3799          21.785          76.963 
        1.09222         72.0054         21.5014         76.2884 
        1.09836         71.4679         21.2232         75.8194 
        1.10449          70.985         20.9502         75.4269 
        1.11063         70.4015         20.6818         74.7393 
        1.11677         69.9711         20.4182         74.2813 
         1.1229         69.4563         20.1597         74.1458 
        1.12903         68.5995         19.9055          73.552 
        1.13518         68.8222         19.6554         73.0891 
        1.14131          68.326         19.4098         72.6499 
        1.14745         67.4572         19.1686         72.2762 
        1.15359          67.271         18.9314         71.8111 
        1.15973         66.7362         18.6982         71.5081 
        1.16584         66.2886         18.4699         70.8856 
        1.17197         65.8778         18.2451         70.6235 
        1.17811         65.5205         18.0234         70.1004 
        1.18424         64.9289         17.8061         69.7638 
        1.19038         64.6285         17.5917         69.3973 
        1.19652         64.3529         17.3809          68.861 
        1.20267         63.7875         17.1737         68.5752 
        1.20881         63.4168         16.9698         68.1497 
        1.21495         62.8915         16.7696         67.7385 
        1.22108         62.5498         16.5727         67.4765 
         1.2272         61.9938         16.3794          67.079 
        1.23334         61.7598         16.1888         66.6989 
        1.23949         61.5541         16.0007         66.1911 
        1.24562          61.093         15.8162         65.9106 
        1.25174         60.7895         15.6349         65.6463 
        1.25789         60.4667         15.4559         65.1997 
        1.26402           60.01           15.28         64.8439 
        1.27014         59.4303         15.1073         64.6556 
        1.27628         59.2704         14.9367          64.264 
        1.28244         58.7253         14.7685         63.7527 
        1.28858          58.488         14.6031         63.4647 
        1.29471         58.3245         14.4406         63.2811 
        1.30084         57.8953         14.2807         62.6993 
        1.30697         57.4609          14.123         62.3976 
        1.31312         57.1078         13.9675         62.2598 
        1.31925         56.9333         13.8148         61.8501 
        1.32537         56.6195         13.6646         61.5264 
        1.33151         56.0842         13.5161         61.2063 
        1.33765         55.9215         13.3698         60.8979 
        1.34378         55.5763         13.2261         60.5807 
        1.34992         55.1399         13.0843         60.3283 
        1.35606          54.855         12.9444         60.0343 
         1.3622         54.4526         12.8067         59.7033 
        1.36833         54.2784         12.6714         59.3523 
        1.37445         54.0351         12.5381         59.0931 
        1.38059         53.6476         12.4063         58.9915 
        1.38675         53.3133         12.2761         58.4927 
        1.39288         53.0583         12.1483         58.3296 
        1.39901         52.7595         12.0224         58.0104 
        1.40515         52.4901          11.898         57.7744 
         1.4113         52.2727         11.7754         57.5326 
        1.41742         51.9422         11.6549         57.1259 
        1.42355          51.602          11.536         56.8297 
         1.4297         51.3003         11.4183         56.5521 
        1.43585         51.0805         11.3024         56.3798 
        1.44198         50.7917         11.1885         56.1829 
        1.44809         50.5496         11.0764         55.7028 
        1.45423         50.3268         10.9654         55.4944 
        1.46036         50.0205         10.8562         55.3117 
        1.46649         49.7245         10.7484         55.1127 
        1.47263         49.4257         10.6419         54.8729 
        1.47877         49.2751          10.537         54.4983 
        1.48491         49.0709         10.4333          54.292 
        1.49104         48.6852         10.3313         53.9653 
        1.49718         48.2682         10.2305         53.7692 
        1.50333         48.1468          10.131         53.5096 
        1.50947         47.9036         10.0329         53.2629 
         1.5156         47.6161         9.93631         53.0771 
        1.52172         47.3819         9.84098         52.8636 
        1.52787         47.3188         9.74672         52.6171 
          1.534         46.9527         9.65381         52.3792 
        1.54013         46.6904          9.5622         52.1284 
        1.54627         46.5275         9.47163         51.8852 
        1.55241         46.1868         9.38221         51.6453 
        1.55855         45.9203         9.29408         51.3745 
        1.56467           45.54         9.20732          51.168 
         1.5708         45.5434         9.12143          51.026 
        1.57695         45.2508         9.03651         50.8537 
        1.58308         45.0634         8.95287         50.6054 
        1.58922         44.9867         8.87024         50.3311 
        1.59535         44.6876         8.78868         50.1088 
         1.6015         44.3177         8.70803         49.8653 
        1.60764         44.1679         8.62844         49.6755 
        1.61376         43.9408         8.55006         49.5419 
        1.61989         43.5817          8.4726         49.2751 
        1.62604         43.5182         8.39592         49.0083 
        1.63218          43.354         8.32025         48.8137 
        1.63831          43.076         8.24568         48.6562 
        1.64444         42.8713           8.172         48.4436 
        1.65059           42.51         8.09905         48.2056 
        1.65673         42.3495         8.02706         48.0064 
        1.66285          42.173         7.95616         47.8434 
        1.66898         41.9339         7.88609         47.6858 
        1.67512         41.7381         7.81672         47.5092 
        1.68127         41.4661         7.74813          47.234 
         1.6874         41.3812         7.68052         46.9581 
        1.69353         41.0836         7.61375         46.8203 
        1.69967         40.9174         7.54762         46.6914 
        1.70581         40.8364         7.48231         46.5573 
        1.71193          40.551         7.41801         46.3659 
        1.71806         40.2503         7.35434         46.0598 
        1.72421         40.0892         7.29129         45.8495 
        1.73035         39.8707         7.22905         45.7865 
        1.73649          39.631         7.16755         45.6888 
        1.74262         39.5242         7.10682         45.3114 
        1.74876         39.4584         7.04675         45.0835 
        1.75489         39.1298          6.9875         44.9833 
        1.76101         38.9713         6.92896         44.8285 
        1.76715          38.766           6.871         44.6429 
        1.77329         38.5395         6.81364         44.4666 
        1.77943         38.4486          6.7569          44.288 
        1.78557         38.2316          6.7009         44.0914 
        1.79171         37.9933         6.64553          43.909 
        1.79785         37.8244         6.59077          43.773 
        1.80399         37.6961         6.53664          43.655 
        1.81012         37.5291         6.48319         43.4066 
        1.81625         37.2417         6.43036         43.1788 
        1.82239         37.1425         6.37804         43.0714 
        1.82853         36.8386         6.32633         42.9595 
        1.83466         36.7656         6.27524         42.7548 
        1.84078         36.4727         6.22477         42.5358 
        1.84692         36.3474         6.17478         42.4492 
        1.85306         36.1765         6.12527         42.3037 
         1.8592         36.0093         6.07639         42.1057 
        1.86533         35.8052         6.02806         41.9868 
        1.87147         35.6897         5.98021         41.8392 
