# k  (h/Mpc)    P(k)  (Mpc/h)^3    P_linear(k)  (Mpc/h)^3     P_NL(k)  ShotnoiseSubtracted = false
     0.00783031         10896.2           11040         10988.5 
       0.013688         13909.7           13806         13721.7 
       0.019231         14186.3         14163.1         14053.8 
      0.0249154         13012.6         13251.3         13143.7 
      0.0312784         11464.4         11572.4         11472.1 
      0.0375637         9865.11         9863.09         9776.58 
      0.0433917          8410.8         8534.94         8445.92 
      0.0492413         7500.47         7537.54         7456.22 
      0.0555754         6630.01          6795.9         6722.71 
      0.0619321         6313.82         6289.98         6217.38 
       0.067871         5783.09          5913.9         5845.45 
      0.0738098         5409.78         5539.11         5431.87 
      0.0800417         4923.07         5094.31         4999.71 
      0.0862327          4494.1         4598.25          4553.7 
      0.0921407         4082.92         4109.04         4079.96 
      0.0982031         3605.64         3639.16         3666.47 
       0.104506         3303.69         3227.61         3298.69 
       0.110769          2997.5         2916.75         2966.37 
       0.116806          2778.3         2705.82         2750.73 
       0.122832         2642.26         2561.74         2610.31 
       0.129052         2475.01         2452.63         2493.64 
       0.135211         2374.74         2353.65         2390.49 
       0.141259         2291.81          2243.1          2296.5 
       0.147318         2173.05         2109.63         2188.15 
       0.153489         1998.67         1953.84         2014.77 
       0.159709         1875.42         1789.85         1882.52 
       0.165845         1773.68         1637.17         1774.35 
       0.171974         1649.11         1506.39         1645.72 
       0.178125         1555.57         1403.11         1568.25 
       0.184229         1482.93         1327.58         1481.74 
        0.19034         1393.65         1272.85          1419.8 
       0.196428          1373.8         1230.19         1361.46 
       0.202534         1333.91          1190.1         1324.51 
       0.208729         1275.92         1144.94         1268.36 
       0.214876         1218.25         1092.28         1242.05 
       0.220989         1177.98         1032.86         1197.65 
       0.227147         1117.52         969.718         1145.61 
        0.23329         1067.77         908.524         1102.41 
       0.239377         1041.42         854.038         1050.01 
       0.245482         970.789         808.105         994.772 
       0.251667         961.205         770.944         965.659 
       0.257832          924.87         741.785         929.789 
       0.263955         895.937          717.86         901.294 
       0.270079         865.413         695.927         878.066 
        0.27624          856.87         673.282         852.881 
       0.282372         821.399         648.672         833.956 
        0.28843          806.65         622.172         811.902 
       0.294538         766.249         594.074         788.991 
       0.300721         761.485         565.796         764.537 
        0.30691         726.792         539.169         746.437 
       0.313033          711.98         515.657         718.305 
       0.319153         692.968         495.365         696.523 
       0.325316         671.737         477.997         681.339 
        0.33145         654.122         462.988         656.861 
       0.337538         644.535         449.418         643.791 
       0.343633         625.806         436.204         637.724 
       0.349808         604.963         422.589          626.57 
       0.355968         600.397         408.447         615.448 
       0.362074         590.516         394.045         601.504 
       0.368217         573.654         379.523         583.259 
       0.374374         549.737         365.431         570.274 
       0.380519         547.005         352.287         555.881 
       0.386598         533.035         340.397         548.154 
       0.392688         530.331         329.684         532.215 
        0.39888         514.728         319.835         523.387 
       0.405048         504.981         310.786         516.206 
       0.411186         496.305         302.241          503.45 
       0.417313         486.952         293.877         494.193 
       0.423458         478.061         285.491          487.06 
       0.429607         469.342         277.094         477.581 
       0.435692         458.543          268.81         467.517 
       0.441815         454.806         260.645         463.504 
       0.447964         444.897         252.777          455.01 
       0.454126         434.208         245.324         442.459 
       0.460267          427.04         238.368          439.93 
       0.466387         422.342          231.92         431.322 
        0.47254         414.107         225.838         425.163 
       0.478662         412.881          220.08         417.213 
       0.484765         399.531         214.543          409.59 
       0.490885         395.692         209.131          403.93 
       0.497035         388.178         203.774         399.405 
       0.503198         382.522         198.479         393.678 
       0.509342         379.428         193.313         388.522 
       0.515458         375.326         188.324         384.923 
       0.521598         366.981         183.499         378.065 
       0.527764         360.498         178.857         373.497 
       0.533884         358.125         174.469         368.535 
           0.54          353.27         170.301         362.717 
       0.546137         351.567         166.299         358.483 
       0.552299          344.43         162.426         353.194 
       0.558452          342.11         158.673         349.481 
       0.564573         336.869         155.037         346.647 
       0.570708         331.165         151.483         343.168 
       0.576825         324.955         148.024         336.582 
       0.582926         322.806         144.658          333.17 
       0.589034         319.637         141.381         328.982 
       0.595184         316.446         138.187         324.042 
       0.601379         312.646         135.089          321.32 
       0.607522         307.584         132.134         317.253 
       0.613639         306.005         129.296         315.153 
       0.619772         298.961         126.544         313.195 
       0.625918         297.888         123.868         308.282 
       0.632068         293.194         121.264         304.414 
       0.638161         291.995         118.753         302.271 
         0.6443         287.014         116.291         299.262 
       0.650464         284.253         113.886         293.817 
       0.656582         282.633         111.561         291.573 
       0.662703          280.83         109.299         290.032 
       0.668861         275.733         107.085         287.169 
       0.675024         272.578         104.932         284.278 
       0.681124         271.285         102.863         280.099 
       0.687237         268.162         100.852          277.57 
       0.693381         264.154          98.889         274.854 
       0.699536         261.828         96.9786         272.809 
       0.705665         259.965         95.1285         270.204 
       0.711789         257.364         93.3285         268.081 
       0.717957         255.739         91.5613         266.086 
        0.72409         252.992          89.847          263.86 
       0.730186         249.997         88.1849         261.397 
       0.736317         247.391         86.5546         258.501 
       0.742472         246.062         84.9589         255.981 
       0.748622         244.005         83.4051         253.599 
        0.75476         241.809         81.8946          253.01 
       0.760888         238.672         80.4254         249.456 
       0.767043         238.662          78.988         247.904 
       0.773185         235.558         77.5901         246.016 
       0.779291         231.459          76.235         243.302 
       0.785407          230.96         74.9109         241.503 
       0.791564         228.418         73.6104         239.705 
       0.797719         225.931         72.3414         238.115 
       0.803834         224.492         71.1103         236.486 
       0.809972         223.011         69.9031         234.498 
       0.816124         222.865         68.7212         232.188 
       0.822261         219.625         67.5696         230.671 
       0.828378         217.799         66.4479         228.554 
       0.834502         217.275         65.3507         227.042 
       0.840667         213.947         64.2714         225.182 
       0.846816         212.572         63.2196          223.88 
       0.852925         211.608         62.1983         222.161 
       0.859047          209.58         61.1976         220.631 
       0.865192          207.46         60.2159         218.738 
       0.871341         205.724         59.2553         217.109 
       0.877463         204.264         58.3202         215.917 
       0.883569         203.389         57.4079         214.838 
       0.889708         201.352         56.5106         212.677 
       0.895864         198.844         55.6303         211.475 
       0.902008         198.251         54.7708         209.792 
       0.908149         197.405           53.93         207.981 
       0.914301         194.828         53.1056         206.703 
       0.920448         193.477         52.2993         205.046 
       0.926574         192.359         51.5126         203.577 
       0.932687         192.011         50.7439          202.32 
       0.938823          189.54         49.9882         201.407 
       0.944975         188.091         49.2462         200.239 
       0.951105         187.214         48.5221         198.642 
       0.957225         185.355         47.8138         197.143 
       0.963368         183.103         47.1174          195.62 
       0.969511         182.449         46.4349         194.242 
       0.975621         181.052         45.7697         193.807 
       0.981748         180.862         45.1159         192.521 
       0.987916         178.724         44.4708         191.241 
        0.99406         177.197         43.8408         189.972 
        1.00019         177.094         43.2244          188.51 
        1.00632         175.284         42.6205         187.029 
        1.01246         174.107         42.0273         185.544 
        1.01859         173.396         41.4464          185.01 
        1.02471          171.55         40.8773         184.265 
        1.03085         169.918         40.3169         183.042 
        1.03698          169.16         39.7683         182.146 
        1.04314         167.743         39.2277         180.723 
        1.04929          166.56         38.6984         179.555 
        1.05541         166.165         38.1811         178.581 
        1.06154         164.698          37.672         177.525 
        1.06769         164.494         37.1715         176.706 
        1.07382         163.022         36.6817         175.522 
        1.07993          161.54         36.2019         174.449 
        1.08607          160.83         35.7287         173.549 
        1.09222         160.024         35.2636          172.69 
        1.09836         158.608         34.8073         171.804 
        1.10449          157.04         34.3597         170.816 
        1.11063         155.825         33.9195         169.564 
        1.11677         155.532         33.4872         168.455 
         1.1229         154.137         33.0632         167.642 
        1.12903          153.36         32.6462         166.803 
        1.13518         152.796         32.2361         165.814 
        1.14131         151.172         31.8333         164.677 
        1.14745          150.81         31.4377         164.008 
        1.15359         149.644         31.0487         163.004 
        1.15973         148.999         30.6661         162.141 
        1.16584          147.43         30.2918         160.715 
        1.17197         146.911         29.9231         160.364 
        1.17811         145.928         29.5596         159.633 
        1.18424         145.201         29.2031         158.425 
        1.19038         144.784         28.8515         157.947 
        1.19652         143.575         28.5058         157.183 
        1.20267         142.774         28.1659         156.062 
        1.20881         141.452         27.8315          155.37 
        1.21495         140.984         27.5032         154.398 
        1.22108         140.142         27.1802          153.83 
         1.2272         138.919         26.8632         152.484 
        1.23334         138.336         26.5506         152.188 
        1.23949         137.169         26.2422         151.399 
        1.24562         136.454         25.9395         150.172 
        1.25174         135.121         25.6422         149.659 
        1.25789         134.566         25.3486         148.815 
        1.26402         133.785         25.0601         148.029 
        1.27014         132.923         24.7768         147.687 
        1.27628         132.259         24.4971          147.22 
        1.28244         131.766         24.2212         146.001 
        1.28858         131.025         23.9499         145.151 
        1.29471         129.544         23.6834         144.451 
        1.30084         129.183         23.4212         143.647 
        1.30697         128.272         23.1626         143.075 
        1.31312         127.817         22.9076         142.086 
        1.31925         126.734         22.6572         141.453 
        1.32537         126.129         22.4108         141.067 
        1.33151         124.916         22.1672         140.185 
        1.33765         124.607         21.9274         139.497 
        1.34378          123.77         21.6916         138.875 
        1.34992         123.471         21.4591         137.982 
        1.35606         122.678         21.2296         137.229 
         1.3622         121.588         21.0038         136.727 
        1.36833         120.939         20.7819         135.897 
        1.37445         120.185         20.5633         135.269 
        1.38059         119.693         20.3471         134.552 
        1.38675         118.824         20.1336         133.885 
        1.39288         118.408          19.924         132.929 
        1.39901         117.928         19.7175         132.664 
        1.40515         116.927         19.5134         132.271 
         1.4113         115.994         19.3123         131.609 
        1.41742         115.677         19.1148         131.015 
        1.42355         114.842         18.9197          130.43 
         1.4297         114.203         18.7268         129.732 
        1.43585         113.223         18.5366         128.849 
        1.44198         113.029         18.3498         128.406 
        1.44809         112.194          18.166         127.841 
        1.45423         111.441          17.984         127.116 
        1.46036         111.114         17.8048         126.528 
        1.46649         110.234          17.628         126.139 
        1.47263         109.661         17.4535         125.674 
        1.47877          109.26         17.2814         124.786 
        1.48491         108.127         17.1113         124.292 
        1.49104         107.934          16.944         124.022 
        1.49718         106.967         16.7787         122.968 
        1.50333         106.545         16.6154         122.365 
        1.50947         106.068         16.4546         121.962 
         1.5156         105.345         16.2962         121.401 
        1.52172         104.667         16.1398         120.835 
        1.52787         104.184         15.9852         120.262 
          1.534         103.539         15.8328         119.763 
        1.54013         102.873         15.6826         119.274 
        1.54627         102.479         15.5341         118.742 
        1.55241          101.67         15.3874         118.183 
        1.55855         101.252         15.2429         117.599 
        1.56467         100.875         15.1006         117.028 
         1.5708         100.058         14.9597          116.61 
        1.57695         99.8103         14.8204         116.122 
        1.58308         98.9142         14.6833         115.483 
        1.58922         98.6992         14.5477         114.957 
        1.59535         98.0158          14.414         114.506 
         1.6015         97.4794         14.2817         113.918 
        1.60764         96.9069         14.1512         113.382 
        1.61376         96.6875         14.0226         113.122 
        1.61989         95.8659         13.8956         112.707 
        1.62604         95.5404         13.7698         111.904 
        1.63218         94.9805         13.6457         111.362 
        1.63831         94.1623         13.5234         111.099 
        1.64444         93.8856         13.4026         110.435 
        1.65059         93.2943         13.2829         109.997 
        1.65673         92.4118         13.1649         109.528 
        1.66285         92.3322         13.0486         109.064 
        1.66898         91.7534         12.9337         108.694 
        1.67512          91.216         12.8199         108.182 
        1.68127         90.6964         12.7074         107.648 
         1.6874         90.1208         12.5965         107.216 
        1.69353         89.6342          12.487         106.844 
        1.69967         89.1847         12.3786         106.293 
        1.70581         88.7618         12.2714         105.792 
        1.71193         88.4436          12.166         105.396 
        1.71806         87.7427         12.0616         104.939 
        1.72421         87.2246         11.9582         104.487 
        1.73035         86.8306         11.8561         103.983 
        1.73649         86.3112         11.7552         103.481 
        1.74262         85.7937         11.6556         103.153 
        1.74876         85.4723         11.5571          102.71 
        1.75489         84.7262         11.4599         102.173 
        1.76101         84.4755         11.3639         101.705 
        1.76715         83.8504         11.2689         101.341 
        1.77329         83.5605         11.1748         100.909 
        1.77943         82.9008         11.0817         100.447 
        1.78557         82.6948         10.9899         100.071 
        1.79171         82.0432         10.8991         99.7112 
        1.79785         81.7016         10.8093         99.3185 
        1.80399         81.2977         10.7205         98.8682 
        1.81012         80.9535         10.6328         98.3435 
        1.81625         80.3716         10.5462         97.9271 
        1.82239          80.069         10.4604         97.6132 
        1.82853         79.7194         10.3756         97.1988 
        1.83466         79.0939         10.2918         96.7399 
        1.84078         78.9301          10.209         96.3596 
        1.84692         78.2456          10.127         96.1023 
        1.85306         77.7775         10.0458         95.6539 
         1.8592          77.428         9.96564         95.1615 
        1.86533         77.0205         9.88639         94.8368 
        1.87147         76.4274          9.8079         94.3065 
        1.87761         76.1825         9.73024         93.8831 
