# k  (h/Mpc)    Pcb(k)  (Mpc/h)^3    Pcb_linear(k) (Mpc/h)^3    Pcb_NL(k) (Mpc/h)^3   ShotnoiseSubtracted = false
     0.00783031         12360.8         12528.4           12469 
       0.013688         15792.4         15664.4         15564.8 
       0.019231         16094.5         16068.7         15938.3 
      0.0249154         14742.9         15033.8           14902 
      0.0312784         12991.8         13128.9         13001.6 
      0.0375637         11185.4         11189.6           11079 
      0.0433917         9526.35         9682.77         9568.05 
      0.0492413         8500.67          8551.2         8445.97 
      0.0555754         7502.82         7709.79         7615.65 
      0.0619321         7156.45         7135.82         7042.84 
       0.067871         6543.83         6709.16         6621.92 
      0.0738098         6121.72         6283.96         6147.69 
      0.0800417         5566.79         5779.35         5659.07 
      0.0862327         5085.27         5216.58         5159.14 
      0.0921407         4626.78         4661.57         4623.57 
      0.0982031         4087.61         4128.51         4161.04 
       0.104506         3752.86         3661.62         3749.13 
       0.110769         3407.03         3308.96         3370.59 
       0.116806          3161.7         3069.66         3125.48 
       0.122832         3005.19          2906.2          2966.4 
       0.129052         2811.59         2782.42         2833.57 
       0.135211         2697.43         2670.13         2715.45 
       0.141259         2605.07         2544.72         2611.11 
       0.147318         2471.38         2393.31         2489.77 
       0.153489         2272.72         2216.57          2292.3 
       0.159709         2136.03         2030.52          2145.7 
       0.165845         2025.18         1857.31         2026.85 
       0.171974         1886.88         1708.94          1882.4 
       0.178125         1780.86         1591.77         1796.72 
       0.184229         1697.09          1506.1         1696.88 
        0.19034         1597.87         1444.01         1626.35 
       0.196428          1574.3          1395.6         1560.28 
       0.202534         1526.48         1350.12         1518.54 
       0.208729          1461.1          1298.9         1453.31 
       0.214876         1398.14         1239.15         1424.64 
       0.220989         1351.84         1171.74         1376.08 
       0.227147         1285.65         1100.11         1319.26 
        0.23329         1229.66         1030.69         1270.98 
       0.239377         1201.97         968.875         1211.22 
       0.245482          1121.9         916.769         1148.68 
       0.251667         1112.19         874.613         1115.69 
       0.257832         1069.27         841.529          1074.7 
       0.263955         1035.85         814.386         1042.53 
       0.270079         1000.67         789.502         1016.14 
        0.27624         991.038         763.813         987.831 
       0.282372         949.791         735.895         967.606 
        0.28843         936.444         705.829         943.803 
       0.294538         889.387         673.956         917.208 
       0.300721         884.333         641.875         888.606 
        0.30691          845.39         611.668         869.455 
       0.313033         828.532         584.993          837.32 
       0.319153         808.962         561.976         811.916 
       0.325316         783.535          542.27         794.961 
        0.33145         764.161         525.242         766.564 
       0.337538         752.286         509.849         752.467 
       0.343633          731.83         494.859         745.606 
       0.349808         707.179         479.408         733.189 
       0.355968         702.435         463.369          720.58 
       0.362074         692.433         447.029         705.147 
       0.368217         672.189         430.555         684.615 
       0.374374         644.282          414.57         669.869 
       0.380519         642.663         399.656         653.469 
       0.386598         625.818         386.168         644.872 
       0.392688         623.353         374.015         626.462 
        0.39888         604.761         362.841         616.603 
       0.405048         594.422         352.575         607.742 
       0.411186         585.025         342.881         593.717 
       0.417313          573.54         333.393         583.961 
       0.423458         563.298          323.88         575.605 
       0.429607         553.948         314.351         564.629 
       0.435692         541.465         304.956         552.791 
       0.441815         537.072         295.692         548.613 
       0.447964         525.319         286.767         539.146 
       0.454126         515.372          278.31         524.205 
       0.460267         505.626         270.421         521.761 
       0.466387         500.115         263.104         511.802 
        0.47254         491.623         256.205         504.654 
       0.478662         489.763         249.673         495.607 
       0.484765         473.935         243.392          487.63 
       0.490885         470.027         237.251         480.314 
       0.497035         460.654         231.174         475.242 
       0.503198         455.463         225.168          468.82 
       0.509342         451.613         219.307          462.25 
       0.515458         447.315         213.647         458.348 
       0.521598         436.692         208.173         451.133 
       0.527764         428.773         202.907         445.997 
       0.533884         426.789         197.929         440.109 
           0.54         421.183           193.2         433.373 
       0.546137          419.08          188.66         428.222 
       0.552299         410.996         184.267         422.205 
       0.558452         408.581         180.009         418.181 
       0.564573         402.497         175.884         414.884 
       0.570708         396.433         171.852         410.757 
       0.576825          387.58         167.928         403.266 
       0.582926         386.388         164.109         399.457 
       0.589034         382.738         160.391         393.995 
       0.595184         379.147         156.769         388.928 
       0.601379         374.053         153.254         385.298 
       0.607522         368.566         149.901         380.343 
       0.613639          367.13         146.682         378.499 
       0.619772         358.571         143.559         376.787 
       0.625918         357.488         140.523         370.528 
       0.632068         351.788         137.569         366.711 
       0.638161         350.433         134.721         363.327 
         0.6443          344.29         131.928         360.099 
       0.650464         341.403         129.199          353.64 
       0.656582         339.504         126.562          351.16 
       0.662703         337.795         123.995         349.421 
       0.668861         331.689         121.484         346.483 
       0.675024         328.249         119.042         343.245 
       0.681124         326.223         116.695         337.766 
       0.687237         322.951         114.412         334.855 
       0.693381         318.286         112.186         331.815 
       0.699536         314.958         110.019         329.526 
       0.705665         312.824          107.92         325.839 
       0.711789         310.507         105.878         323.776 
       0.717957         308.146         103.873         321.898 
        0.72409         305.232         101.928          318.79 
       0.730186         301.622         100.043         315.771 
       0.736317         298.645          98.193         312.613 
       0.742472         297.045         96.3827         309.579 
       0.748622          294.32           94.62         306.896 
        0.75476         291.336         92.9064         306.773 
       0.760888          287.89         91.2396         302.413 
       0.767043         288.244          89.609         300.275 
       0.773185         284.309         88.0231         297.997 
       0.779291         279.846         86.4857          294.91 
       0.785407         279.143         84.9837         293.075 
       0.791564         275.775         83.5083         290.829 
       0.797719         273.277         82.0687         288.514 
       0.803834          271.18          80.672         287.059 
       0.809972         269.923         79.3025         284.744 
       0.816124          269.65         77.9616         281.467 
       0.822261         265.685         76.6552         280.029 
       0.828378         263.722         75.3827         277.664 
       0.834502         262.339          74.138         275.989 
       0.840667         258.993         72.9135         273.535 
       0.846816         257.513         71.7203         272.056 
       0.852925         256.088         70.5616         270.122 
       0.859047         254.047         69.4264         268.245 
       0.865192         251.167         68.3127         265.908 
       0.871341         249.285         67.2229         264.219 
       0.877463          247.69         66.1622         262.672 
       0.883569         246.607         65.1272         261.468 
       0.889708         244.044         64.1092         258.786 
       0.895864         241.234         63.1106         257.266 
       0.902008         240.363         62.1354         255.416 
       0.908149         239.194         61.1816         253.249 
       0.914301         236.037         60.2463         251.516 
       0.920448         234.584         59.3316         249.688 
       0.926574           232.8         58.4392         248.011 
       0.932687         232.756         57.5671         246.451 
       0.938823         229.764         56.7098         245.567 
       0.944975         228.517          55.868         243.865 
       0.951105         227.141         55.0465         242.024 
       0.957225         225.222          54.243         240.362 
       0.963368         222.309         53.4529          238.76 
       0.969511         221.317         52.6787         236.987 
       0.975621         219.423          51.924         236.096 
       0.981748         219.395         51.1823         234.732 
       0.987916         217.155         50.4505         233.276 
        0.99406         214.687         49.7358         231.735 
        1.00019         214.678         49.0365         229.845 
        1.00632         212.721         48.3514         228.301 
        1.01246         211.081         47.6784         226.492 
        1.01859         210.876         47.0194         225.516 
        1.02471         208.037         46.3737          224.61 
        1.03085         206.232         45.7381         223.425 
        1.03698         205.434         45.1157         222.512 
        1.04314         203.544         44.5024         220.628 
        1.04929         202.254         43.9019         219.063 
        1.05541         202.139         43.3151         217.867 
        1.06154         199.678         42.7375         216.631 
        1.06769         199.338         42.1696         215.554 
        1.07382         197.697          41.614         214.158 
        1.07993         195.948         41.0697         213.021 
        1.08607         195.412         40.5329         211.629 
        1.09222         194.134         40.0052         210.528 
        1.09836         192.468         39.4876         209.656 
        1.10449         190.463         38.9798         208.541 
        1.11063         188.869         38.4804         207.167 
        1.11677         188.579           37.99         205.629 
         1.1229         187.106          37.509         204.724 
        1.12903         186.099         37.0359         203.769 
        1.13518         185.021         36.5707         202.461 
        1.14131         183.234         36.1137           201.2 
        1.14745         183.053         35.6649         200.247 
        1.15359           181.5         35.2236         199.112 
        1.15973          180.47         34.7896         198.011 
        1.16584         178.732         34.3649         196.415 
        1.17197         178.398         33.9467          196.04 
        1.17811         176.795         33.5342         194.964 
        1.18424         175.918         33.1298          193.61 
        1.19038         175.438         32.7309         193.074 
        1.19652         173.954         32.3388         191.996 
        1.20267         173.245         31.9531         190.585 
        1.20881         171.546         31.5739         189.811 
        1.21495         170.879         31.2014         188.705 
        1.22108         169.807          30.835         187.699 
         1.2272         168.359         30.4753         186.154 
        1.23334          167.77         30.1206         185.717 
        1.23949         166.478         29.7708         185.031 
        1.24562          165.51         29.4274          183.53 
        1.25174         163.976         29.0901         182.844 
        1.25789          163.04          28.757         181.749 
        1.26402         161.974         28.4297         180.967 
        1.27014          160.86         28.1084         180.216 
        1.27628         160.202         27.7911          179.72 
        1.28244         159.861          27.478         178.514 
        1.28858         158.382         27.1703         177.413 
        1.29471          156.86         26.8679         176.268 
        1.30084         156.418         26.5705         175.428 
        1.30697         155.218         26.2771         174.748 
        1.31312         154.349         25.9878         173.515 
        1.31925         153.493         25.7037         172.707 
        1.32537         152.675         25.4242         172.191 
        1.33151         151.165         25.1479         171.187 
        1.33765         150.646         24.8758          170.26 
        1.34378         149.794         24.6083         169.621 
        1.34992         149.165         24.3446         168.413 
        1.35606         148.659         24.0842         167.488 
         1.3622         147.116          23.828         166.913 
        1.36833          146.09         23.5763         166.005 
        1.37445         145.303         23.3283         165.011 
        1.38059         144.513         23.0831         164.223 
        1.38675          143.75         22.8408         163.552 
        1.39288         143.009          22.603         162.123 
        1.39901         142.736         22.3687         161.835 
        1.40515          141.19         22.1372         161.347 
         1.4113         140.228         21.9091          160.45 
        1.41742         139.561         21.6851         159.704 
        1.42355         138.684         21.4637         158.969 
         1.4297         137.895         21.2449           158.2 
        1.43585         136.813         21.0291           157.2 
        1.44198         136.357         20.8172         156.675 
        1.44809         135.614         20.6086         155.891 
        1.45423         134.707         20.4021         154.909 
        1.46036         133.933         20.1989         154.216 
        1.46649           132.9         19.9983          153.78 
        1.47263         132.251         19.8003         153.213 
        1.47877         131.675         19.6051         152.138 
        1.48491         130.256         19.4122         151.387 
        1.49104         130.141         19.2223         151.097 
        1.49718         128.822         19.0348         149.966 
        1.50333         128.373         18.8495         149.179 
        1.50947         127.852         18.6671          148.71 
         1.5156         126.836         18.4874         147.979 
        1.52172         126.077           18.31         147.065 
        1.52787         125.289         18.1346         146.537 
          1.534         124.705         17.9618         145.915 
        1.54013         123.863         17.7913         145.276 
        1.54627         123.325         17.6228         144.699 
        1.55241         122.273         17.4564         143.973 
        1.55855         121.613         17.2925         143.164 
        1.56467         121.249          17.131         142.525 
         1.5708         120.253         16.9712         141.986 
        1.57695         119.727         16.8132         141.358 
        1.58308         119.053         16.6576         140.676 
        1.58922         118.594         16.5039         140.028 
        1.59535         117.615         16.3521         139.449 
         1.6015         117.119         16.2021         138.694 
        1.60764         116.401          16.054         137.977 
        1.61376         115.917         15.9081         137.596 
        1.61989         115.002          15.764         137.096 
        1.62604         114.488         15.6214           136.2 
        1.63218         113.922         15.4806         135.551 
        1.63831         112.975         15.3418         135.128 
        1.64444         112.609         15.2047         134.322 
        1.65059         111.983          15.069         133.903 
        1.65673         110.835         14.9351          133.25 
        1.66285         110.721         14.8031         132.568 
        1.66898         110.104         14.6728         132.172 
        1.67512         109.513         14.5437         131.546 
        1.68127         108.656         14.4161         131.004 
         1.6874         107.858         14.2903         130.541 
        1.69353         107.475         14.1661         129.901 
        1.69967          106.99          14.043         129.214 
        1.70581         106.255         13.9215         128.678 
        1.71193          105.84         13.8019         128.158 
        1.71806         105.144         13.6834         127.412 
        1.72421         104.423         13.5661         126.921 
        1.73035         104.143         13.4503          126.44 
        1.73649         103.358         13.3359         125.822 
        1.74262         102.651         13.2229         125.332 
        1.74876         102.335         13.1111         124.809 
        1.75489          101.46         13.0009          124.22 
        1.76101         100.967         12.8919         123.659 
        1.76715         100.247         12.7841         123.189 
        1.77329         100.009         12.6774         122.568 
        1.77943          99.113         12.5718         121.939 
        1.78557          98.722         12.4676         121.521 
        1.79171          98.001         12.3646         121.099 
        1.79785          97.585         12.2627         120.582 
        1.80399         96.9593          12.162         119.996 
        1.81012         96.5445         12.0625         119.395 
        1.81625          95.948         11.9643         118.927 
        1.82239         95.6249         11.8669         118.513 
        1.82853         95.0673         11.7707         117.942 
        1.83466         94.2661         11.6756         117.357 
        1.84078         94.1144         11.5817         116.901 
        1.84692         93.3218         11.4887         116.561 
        1.85306         92.8111         11.3966         116.002 
         1.8592         92.3453         11.3057         115.403 
        1.86533         91.6955         11.2157         115.043 
        1.87147         91.1484         11.1267         114.559 
