# k  (h/Mpc)    P(k)  (Mpc/h)^3    P_linear(k)  (Mpc/h)^3     P_NL(k)  ShotnoiseSubtracted = false
     0.00783031         12260.1         12426.3         12367.3 
       0.013688         15663.7         15536.7           15438 
       0.019231         15963.3         15937.7         15808.4 
      0.0249154         14622.7         14911.3         14780.5 
      0.0312784         12885.9         13021.9         12895.6 
      0.0375637         11094.3         11098.4         10988.7 
      0.0433917          9448.7         9603.84         9490.06 
      0.0492413         8431.38         8481.49         8377.12 
      0.0555754         7441.66         7646.95         7553.57 
      0.0619321         7098.11         7077.65         6985.43 
       0.067871         6490.49         6654.47         6567.94 
      0.0738098         6071.82         6232.74         6097.58 
      0.0800417         5521.42         5732.24         5612.94 
      0.0862327         5043.82         5174.05         5117.09 
      0.0921407         4589.07         4623.58         4585.88 
      0.0982031          4054.3         4094.85         4127.12 
       0.104506         3722.27         3631.78         3718.57 
       0.110769         3379.26         3281.99         3343.11 
       0.116806         3135.93         3044.64         3100.01 
       0.122832         2980.69         2882.52         2942.23 
       0.129052         2788.67         2759.74         2810.48 
       0.135211         2675.44         2648.37         2693.32 
       0.141259         2583.84         2523.98         2589.82 
       0.147318         2451.23          2373.8         2469.47 
       0.153489         2254.19          2198.5         2273.61 
       0.159709         2118.62         2013.97         2128.21 
       0.165845         2008.67         1842.17         2010.33 
       0.171974          1871.5         1695.01         1867.06 
       0.178125         1766.34          1578.8         1782.07 
       0.184229         1683.26         1493.82         1683.05 
        0.19034         1584.84         1432.24         1613.09 
       0.196428         1561.47         1384.23         1547.57 
       0.202534         1514.04         1339.12         1506.16 
       0.208729         1449.19         1288.31         1441.47 
       0.214876         1386.74         1229.05         1413.03 
       0.220989         1340.82         1162.19         1364.86 
       0.227147         1275.17         1091.14          1308.5 
        0.23329         1219.63         1022.29         1260.62 
       0.239377         1192.17         960.978         1201.35 
       0.245482         1112.75         909.294         1139.31 
       0.251667         1103.12         867.479         1106.59 
       0.257832         1060.56         834.669         1065.94 
       0.263955         1027.41         807.748         1034.03 
       0.270079         992.518         783.069         1007.87 
        0.27624          982.96         757.588         979.781 
       0.282372         942.049         729.897         959.718 
        0.28843         928.811         700.078         936.114 
       0.294538         882.137         668.462         909.732 
       0.300721         877.124         636.642         881.363 
        0.30691         838.499         606.682         862.368 
       0.313033         821.779         580.226         830.497 
       0.319153         802.368         557.393         805.294 
       0.325316         777.149          537.85         788.481 
        0.33145         757.932         520.962         760.317 
       0.337538         746.154         505.692         746.333 
       0.343633         725.865         490.824         739.528 
       0.349808         701.414         475.504         727.218 
       0.355968         696.709         459.591         714.704 
       0.362074         686.788         443.385         699.399 
       0.368217          666.71         427.046         679.035 
       0.374374          639.03         411.189         664.406 
       0.380519         637.424         396.399         648.144 
       0.386598         620.717          383.02         639.615 
       0.392688         618.272         370.966         621.356 
        0.39888         599.832         359.884         611.577 
       0.405048         589.576         349.702         602.789 
       0.411186         580.256         340.086         588.878 
       0.417313         568.865         330.675           579.2 
       0.423458         558.706          321.24         570.912 
       0.429607         549.433          311.79          560.03 
       0.435692         537.051          302.47         548.284 
       0.441815         532.694         293.282         544.141 
       0.447964         521.037         284.429         534.751 
       0.454126         511.171         276.042         519.933 
       0.460267         501.504         268.215         517.504 
       0.466387         496.039          260.96         507.632 
        0.47254         487.615         254.116          500.54 
       0.478662         485.771         247.638         491.567 
       0.484765         470.072         241.408         483.655 
       0.490885         466.196         235.317           476.4 
       0.497035         456.899          229.29         471.368 
       0.503198         451.751         223.332         464.999 
       0.509342         447.932         217.519         458.483 
       0.515458         443.668         211.905         454.611 
       0.521598         433.132         206.476         447.456 
       0.527764         425.278         201.253         442.362 
       0.533884          423.31         196.316         436.522 
           0.54          417.75         191.625          429.84 
       0.546137         415.664         187.123         424.732 
       0.552299         407.646         182.765         418.764 
       0.558452         405.251         178.542         414.772 
       0.564573         399.216          174.45         411.502 
       0.570708         393.201         170.451         407.409 
       0.576825         384.421         166.559         399.979 
       0.582926         383.239         162.771         396.201 
       0.589034         379.618         159.084         390.784 
       0.595184         376.057         155.491         385.757 
       0.601379         371.004         152.004         382.157 
       0.607522         365.561          148.68         377.243 
       0.613639         364.138         145.486         375.413 
       0.619772         355.648         142.389         373.715 
       0.625918         354.574         139.378         367.508 
       0.632068          348.92         136.448         363.721 
       0.638161         347.577         133.623         360.365 
         0.6443         341.483         130.853         357.164 
       0.650464          338.62         128.146         350.757 
       0.656582         336.737         125.531         348.298 
       0.662703         335.042         122.984         346.573 
       0.668861         328.985         120.494         343.659 
       0.675024         325.573         118.071         340.447 
       0.681124         323.564         115.744         335.013 
       0.687237         320.319          113.48         332.126 
       0.693381         315.692         111.271          329.11 
       0.699536         312.391         109.122          326.84 
       0.705665         310.274          107.04         323.182 
       0.711789         307.976         105.015         321.136 
       0.717957         305.634         103.026         319.274 
        0.72409         302.744         101.097         316.192 
       0.730186         299.163         99.2271         313.197 
       0.736317         296.211         97.3926         310.064 
       0.742472         294.624         95.5971         307.055 
       0.748622          291.92         93.8488         304.394 
        0.75476         288.961         92.1491         304.272 
       0.760888         285.543         90.4959         299.948 
       0.767043         285.894         88.8786         297.828 
       0.773185         281.992         87.3056         295.568 
       0.779291         277.564         85.7808         292.506 
       0.785407         276.867          84.291         290.686 
       0.791564         273.527         82.8276         288.459 
       0.797719          271.05         81.3997         286.163 
       0.803834         268.969         80.0144          284.72 
       0.809972         267.723         78.6561         282.423 
       0.816124         267.452         77.3261         279.173 
       0.822261         263.519         76.0304         277.747 
       0.828378         261.573         74.7682         275.401 
       0.834502         260.201         73.5337         273.739 
       0.840667         256.882         72.3192         271.305 
       0.846816         255.414         71.1357         269.839 
       0.852925             254         69.9864          267.92 
       0.859047         251.977         68.8605         266.059 
       0.865192         249.119         67.7559         263.741 
       0.871341         247.253          66.675         262.065 
       0.877463         245.671         65.6228         260.531 
       0.883569         244.596         64.5963         259.337 
       0.889708         242.055         63.5866         256.677 
       0.895864         239.268         62.5961         255.169 
       0.902008         238.404         61.6289         253.334 
       0.908149         237.244         60.6829         251.185 
       0.914301         234.113         59.7553         249.466 
       0.920448         232.671          58.848         247.652 
       0.926574         230.902         57.9628         245.989 
       0.932687         230.858         57.0978         244.442 
       0.938823         227.891         56.2475         243.565 
       0.944975         226.654         55.4126         241.877 
       0.951105          225.29         54.5978         240.051 
       0.957225         223.386         53.8009         238.403 
       0.963368         220.497         53.0172         236.813 
       0.969511         219.513         52.2493         235.056 
       0.975621         217.634         51.5008         234.171 
       0.981748         217.607         50.7651         232.819 
       0.987916         215.385         50.0392         231.375 
        0.99406         212.937         49.3304         229.846 
        1.00019         212.928         48.6368         227.972 
        1.00632         210.987         47.9572          226.44 
        1.01246          209.36         47.2897         224.646 
        1.01859         209.157         46.6361         223.678 
        1.02471         206.341         45.9957         222.779 
        1.03085          204.55         45.3652         221.604 
        1.03698         203.759          44.748         220.698 
        1.04314         201.885         44.1396          218.83 
        1.04929         200.605         43.5441         217.278 
        1.05541         200.491          42.962         216.091 
        1.06154          198.05         42.3891         214.866 
        1.06769         197.713         41.8259         213.797 
        1.07382         196.086         41.2748         212.412 
        1.07993          194.35         40.7349         211.285 
        1.08607         193.819         40.2025         209.904 
        1.09222         192.551         39.6792         208.812 
        1.09836         190.899         39.1657         207.947 
        1.10449         188.911         38.6621         206.841 
        1.11063          187.33         38.1667         205.478 
        1.11677         187.042         37.6803         203.953 
         1.1229         185.581         37.2032         203.055 
        1.12903         184.582          36.734         202.108 
        1.13518         183.513         36.2726          200.81 
        1.14131          181.74         35.8194          199.56 
        1.14745          181.56         35.3741         198.615 
        1.15359          180.02         34.9365         197.489 
        1.15973         178.999          34.506         196.397 
        1.16584         177.275         34.0848         194.814 
        1.17197         176.944           33.67         194.442 
        1.17811         175.354         33.2609         193.375 
        1.18424         174.484         32.8598         192.032 
        1.19038         174.008         32.4641           191.5 
        1.19652         172.536         32.0752         190.431 
        1.20267         171.833         31.6927         189.032 
        1.20881         170.148         31.3165         188.264 
        1.21495         169.486          30.947         187.167 
        1.22108         168.422         30.5836         186.169 
         1.2272         166.986         30.2269         184.637 
        1.23334         166.402         29.8751         184.203 
        1.23949         165.121         29.5281         183.523 
        1.24562         164.161         29.1876         182.034 
        1.25174         162.639          28.853         181.354 
        1.25789         161.711         28.5226         180.267 
        1.26402         160.654          28.198         179.492 
        1.27014         159.548         27.8793         178.747 
        1.27628         158.896         27.5645         178.255 
        1.28244         158.558         27.2541         177.059 
        1.28858         157.091         26.9488         175.967 
        1.29471         155.582         26.6489         174.831 
        1.30084         155.143         26.3539         173.998 
        1.30697         153.953         26.0629         173.324 
        1.31312         153.091         25.7759           172.1 
        1.31925         152.242         25.4942         171.299 
        1.32537         151.431          25.217         170.787 
        1.33151         149.932         24.9429         169.792 
        1.33765         149.418          24.673         168.872 
        1.34378         148.573         24.4077         168.238 
        1.34992         147.949         24.1462          167.04 
        1.35606         147.448         23.8879         166.123 
         1.3622         145.917         23.6338         165.553 
        1.36833         144.899         23.3841         164.651 
        1.37445         144.118         23.1381         163.666 
        1.38059         143.335         22.8949         162.884 
        1.38675         142.578         22.6546         162.219 
        1.39288         141.843         22.4188         160.802 
        1.39901         141.572         22.1864         160.516 
        1.40515         140.039         21.9568         160.032 
         1.4113         139.085         21.7305         159.142 
        1.41742         138.423         21.5083         158.402 
        1.42355         137.554         21.2888         157.673 
         1.4297         136.771         21.0717          156.91 
        1.43585         135.697         20.8577         155.918 
        1.44198         135.245         20.6475         155.398 
        1.44809         134.509         20.4406         154.621 
        1.45423         133.609         20.2358         153.646 
        1.46036         132.842         20.0342         152.959 
        1.46649         131.817         19.8353         152.526 
        1.47263         131.173         19.6389         151.964 
        1.47877         130.602         19.4453         150.898 
        1.48491         129.195         19.2539         150.153 
        1.49104          129.08         19.0656         149.865 
        1.49718         127.772         18.8797         148.744 
        1.50333         127.326         18.6959         147.963 
        1.50947          126.81          18.515         147.498 
         1.5156         125.802         18.3367         146.773 
        1.52172         125.049         18.1608         145.866 
        1.52787         124.268         17.9868         145.342 
          1.534         123.689         17.8154         144.726 
        1.54013         122.854         17.6463         144.092 
        1.54627         122.319         17.4792         143.519 
        1.55241         121.276         17.3141         142.799 
        1.55855         120.622         17.1515         141.997 
        1.56467          120.26         16.9914         141.363 
         1.5708         119.273         16.8329         140.829 
        1.57695         118.751         16.6762         140.206 
        1.58308         118.083         16.5218          139.53 
        1.58922         117.627         16.3693         138.886 
        1.59535         116.657         16.2188         138.312 
         1.6015         116.165           16.07         137.564 
        1.60764         115.453         15.9231         136.852 
        1.61376         114.973         15.7785         136.474 
        1.61989         114.064         15.6355         135.979 
        1.62604         113.555          15.494          135.09 
        1.63218         112.993         15.3544         134.447 
        1.63831         112.054         15.2168         134.027 
        1.64444         111.691         15.0808         133.227 
        1.65059          111.07         14.9462         132.812 
        1.65673         109.932         14.8133         132.163 
        1.66285         109.819         14.6825         131.487 
        1.66898         109.206         14.5532         131.094 
        1.67512          108.62         14.4252         130.474 
        1.68127          107.77         14.2986         129.936 
         1.6874         106.978         14.1738         129.477 
        1.69353         106.599         14.0506         128.842 
        1.69967         106.118         13.9285         128.161 
        1.70581         105.389          13.808         127.629 
        1.71193         104.977         13.6894         127.113 
        1.71806         104.287         13.5719         126.373 
        1.72421         103.571         13.4555         125.886 
        1.73035         103.294         13.3406         125.409 
        1.73649         102.515         13.2272         124.797 
        1.74262         101.814         13.1151          124.31 
        1.74876           101.5         13.0042         123.792 
        1.75489         100.633         12.8949         123.208 
        1.76101         100.144         12.7869         122.651 
        1.76715         99.4298         12.6799         122.185 
        1.77329          99.194          12.574         121.569 
        1.77943         98.3051         12.4693         120.945 
        1.78557         97.9173          12.366          120.53 
        1.79171         97.2021         12.2638         120.112 
        1.79785         96.7895         12.1628         119.599 
        1.80399         96.1689         12.0629         119.018 
        1.81012         95.7575         11.9642         118.422 
        1.81625         95.1659         11.8667         117.957 
        1.82239         94.8454         11.7702         117.547 
        1.82853         94.2924         11.6748         116.981 
        1.83466         93.4978         11.5805         116.401 
        1.84078         93.3473         11.4873         115.948 
        1.84692         92.5611         11.3951         115.611 
        1.85306         92.0546         11.3037         115.056 
         1.8592         91.5926         11.2135         114.462 
        1.86533         90.9481         11.1243         114.106 
        1.87147         90.4054          11.036         113.625 
        1.87761         90.0353         10.9486         113.108 
