# k  (h/Mpc)    P(k)  (Mpc/h)^3    P_linear(k)  (Mpc/h)^3     P_NL(k)  ShotnoiseSubtracted = false
     0.00783031         538.769         543.692         541.247 
       0.013688         679.531         681.118         678.147 
       0.019231         698.845         699.131         695.793 
      0.0249154         651.235         654.304         652.197 
      0.0312784         571.044         571.505         571.001 
      0.0375637         488.183          487.14         487.067 
      0.0433917          421.42         421.568         421.824 
      0.0492413         372.883          372.32         372.643 
      0.0555754         335.042         335.697         335.785 
      0.0619321         311.866         310.714         310.659 
       0.067871         291.561         292.142         291.884 
      0.0738098         272.808         273.631         273.188 
      0.0800417         250.397         251.662         251.292 
      0.0862327         226.561         227.158         227.018 
      0.0921407         202.899         202.992         203.017 
      0.0982031         179.391          179.78         180.042 
       0.104506         160.091         159.451         159.863 
       0.110769         144.641         144.094         144.416 
       0.116806         133.629         133.674         133.902 
       0.122832         126.899         126.556         126.753 
       0.129052         120.945         121.166          121.28 
       0.135211         115.912         116.277         116.362 
       0.141259         110.776         110.816          110.94 
       0.147318         104.478         104.222         104.471 
       0.153489         96.5641          96.526         96.7352 
       0.159709            88.6         88.4243         88.7587 
       0.165845         81.6023         80.8815         81.3882 
       0.171974         74.6812         74.4206         74.9039 
       0.178125         69.7393         69.3183         69.8782 
       0.184229         66.1426         65.5873         66.1202 
        0.19034         62.9346         62.8834         63.3645 
       0.196428         61.0961         60.7756         61.1514 
       0.202534         59.4322         58.7951         59.1753 
       0.208729         56.9139         56.5644         56.9406 
       0.214876         54.0667         53.9627         54.4569 
       0.220989         51.5697         51.0269         51.5717 
       0.227147         48.0961         47.9077          48.465 
        0.23329         45.1445         44.8845         45.5264 
       0.239377         42.5859         42.1927          42.868 
       0.245482         40.1703         39.9235         40.5337 
       0.251667         38.6043         38.0876         38.7355 
       0.257832         37.0887         36.6471         37.2637 
       0.263955         35.8962         35.4651         36.0418 
       0.270079         34.8091         34.3815         34.9363 
        0.27624         33.8486         33.2628         33.7901 
       0.282372         32.6053          32.047         32.6172 
        0.28843         31.1622         30.7377          31.327 
       0.294538         29.7901         29.3496         29.9604 
       0.300721         28.5693         27.9526         28.6014 
        0.30691         27.1283         26.6371         27.2972 
       0.313033         25.9957         25.4755         26.1153 
       0.319153         24.7639          24.473         25.1312 
       0.325316         24.2254          23.615         24.2825 
        0.33145         23.3984         22.8735         23.5021 
       0.337538         22.7234         22.2031         22.8093 
       0.343633         21.9962         21.5503         22.1504 
       0.349808         21.3691         20.8776            21.5 
       0.355968         20.6893         20.1789         20.8626 
       0.362074         19.9497         19.4674         20.1227 
       0.368217         19.2468           18.75         19.3611 
       0.374374         18.4896         18.0538         18.7018 
       0.380519         17.9213         17.4044         18.0312 
       0.386598         17.3584          16.817         17.4555 
       0.392688         16.8861         16.2878         16.9223 
        0.39888         16.3508         15.8012         16.4277 
       0.405048         15.9244         15.3541         15.9459 
       0.411186         15.5104         14.9319         15.5708 
       0.417313         15.0199         14.5187          15.133 
       0.423458         14.6321         14.1045         14.7276 
       0.429607         14.1746         13.6896         14.2941 
       0.435692         13.7602         13.2803          13.902 
       0.441815         13.3778         12.8769         13.5254 
       0.447964         13.0655         12.4883         13.1137 
       0.454126         12.5986           12.12         12.7361 
       0.460267         12.2759         11.7764         12.4072 
       0.466387         11.9027         11.4578         12.0605 
        0.47254         11.6487         11.1573          11.765 
       0.478662          11.388         10.8729         11.4677 
       0.484765         11.0657         10.5993         11.1907 
       0.490885         10.7975         10.3319         10.9578 
       0.497035         10.6077         10.0673         10.6994 
       0.503198         10.3101         9.80571          10.395 
       0.509342         10.0594         9.55048         10.1511 
       0.515458         9.78204         9.30399         9.92804 
       0.521598         9.55905         9.06561         9.64699 
       0.527764         9.30543         8.83631         9.41063 
       0.533884         9.12938         8.61951         9.19185 
           0.54         8.90772         8.41358         8.97749 
       0.546137         8.72171         8.21588         8.79244 
       0.552299         8.52987         8.02455         8.56614 
       0.558452         8.28573         7.83913         8.38575 
       0.564573         8.14565         7.65948         8.23815 
       0.570708         7.96784          7.4839         8.05106 
       0.576825         7.76051         7.31301          7.8699 
       0.582926         7.61962          7.1467         7.71026 
       0.589034         7.39123         6.98481          7.5615 
       0.595184         7.25821         6.82705         7.35628 
       0.601379          7.0958         6.67398         7.23813 
       0.607522         6.97735         6.52799         7.07891 
       0.613639         6.86385         6.38779         6.92991 
       0.619772         6.67742         6.25181         6.80709 
       0.625918         6.57841          6.1196         6.65727 
       0.632068         6.46601         5.99094         6.51874 
       0.638161         6.30311          5.8669         6.39299 
         0.6443         6.17303         5.74527         6.26109 
       0.650464         6.03176         5.62643         6.16038 
       0.656582         5.95598          5.5116         6.03682 
       0.662703         5.83801         5.39981         5.91616 
       0.668861         5.73457         5.29045         5.81874 
       0.675024          5.6054         5.18409         5.69801 
       0.681124         5.49533         5.08189         5.58899 
       0.687237         5.40796          4.9825         5.47229 
       0.693381         5.31286         4.88554         5.36726 
       0.699536         5.17051         4.79115         5.27595 
       0.705665         5.09161         4.69975         5.20734 
       0.711789         5.00782         4.61083         5.10655 
       0.717957         4.90862         4.52352         5.00488 
        0.72409         4.81991         4.43883         4.92392 
       0.730186         4.74338         4.35671         4.82936 
       0.736317         4.68536         4.27616         4.74269 
       0.742472         4.60188         4.19733         4.68274 
       0.748622         4.51133         4.12057         4.60202 
        0.75476         4.40897         4.04594          4.5112 
       0.760888         4.34537         3.97336         4.44024 
       0.767043         4.29174         3.90235         4.37288 
       0.773185         4.19711         3.83328         4.30538 
       0.779291         4.14402         3.76633         4.23481 
       0.785407         4.07214         3.70092         4.16052 
       0.791564         4.00661         3.63667         4.09545 
       0.797719         3.94396         3.57398         4.01882 
       0.803834         3.89124         3.51315         3.95967 
       0.809972         3.83113         3.45351         3.91199 
       0.816124         3.75235         3.39512         3.83815 
       0.822261         3.68421         3.33823         3.77703 
       0.828378          3.6394         3.28281         3.72093 
       0.834502         3.59611         3.22861         3.65983 
       0.840667         3.51846         3.17528         3.60718 
       0.846816         3.46185         3.12332         3.56289 
       0.852925         3.42694         3.07286         3.50579 
       0.859047         3.37257         3.02342         3.46177 
       0.865192         3.32409         2.97492         3.40504 
       0.871341         3.27745         2.92747         3.35584 
       0.877463         3.23229         2.88127         3.30145 
       0.883569         3.17089          2.8362         3.26017 
       0.889708          3.1205         2.79187         3.21347 
       0.895864         3.07968         2.74838         3.16343 
       0.902008         3.03172         2.70591         3.12131 
       0.908149         2.99304         2.66437         3.07677 
       0.914301          2.9355         2.62364         3.03362 
       0.920448         2.89644         2.58381         2.98606 
       0.926574         2.85271         2.54495         2.95171 
       0.932687         2.81849         2.50697         2.89766 
       0.938823         2.78533         2.46963         2.87383 
       0.944975         2.74433         2.43298         2.82431 
       0.951105          2.7091          2.3972         2.78648 
       0.957225         2.68689         2.36221         2.75706 
       0.963368         2.64292          2.3278         2.71565 
       0.969511          2.6013         2.29408          2.6819 
       0.975621         2.56084         2.26122         2.63645 
       0.981748         2.53604         2.22892         2.60358 
       0.987916         2.49872         2.19705         2.57965 
        0.99406         2.45725         2.16593         2.54758 
        1.00019          2.4309         2.13547         2.51691 
        1.00632         2.39657         2.10564         2.47923 
        1.01246         2.36782         2.07633         2.44779 
        1.01859         2.33887         2.04763         2.41689 
        1.02471         2.30612         2.01951           2.384 
        1.03085         2.27916         1.99183          2.3514 
        1.03698         2.24586         1.96473         2.32386 
        1.04314         2.22128         1.93802         2.29599 
        1.04929         2.19023         1.91187         2.26873 
        1.05541         2.16516         1.88631         2.24468 
        1.06154         2.13733         1.86116         2.21754 
        1.06769         2.11415         1.83643         2.19218 
        1.07382          2.0856         1.81223         2.16383 
        1.07993         2.05308         1.78853         2.13661 
        1.08607          2.0397         1.76515         2.11376 
        1.09222         2.00956         1.74217         2.08455 
        1.09836         1.99311         1.71963         2.06185 
        1.10449         1.96771         1.69752         2.04013 
        1.11063         1.93759         1.67577         2.01126 
        1.11677         1.91461         1.65441         1.99198 
         1.1229           1.892         1.63347         1.97123 
        1.12903         1.86826         1.61286          1.9474 
        1.13518         1.85244          1.5926         1.92591 
        1.14131         1.82305          1.5727         1.90229 
        1.14745         1.79255         1.55316         1.87718 
        1.15359         1.78295         1.53394         1.86218 
        1.15973         1.75357         1.51504          1.8409 
        1.16584          1.7461         1.49654         1.81926 
        1.17197         1.72186         1.47833         1.80006 
        1.17811         1.70368         1.46037         1.78144 
        1.18424         1.68947         1.44276         1.75869 
        1.19038          1.6656         1.42539         1.74033 
        1.19652         1.64646         1.40831         1.72491 
        1.20267         1.63246         1.39152         1.70035 
        1.20881         1.60827           1.375         1.68447 
        1.21495         1.59597         1.35878          1.6721 
        1.22108         1.57847         1.34282         1.65141 
         1.2272         1.56485         1.32716         1.63039 
        1.23334         1.54242         1.31171         1.61667 
        1.23949         1.52477         1.29648         1.60361 
        1.24562         1.51304         1.28153         1.58591 
        1.25174         1.49408         1.26683         1.56549 
        1.25789         1.47988         1.25233          1.5492 
        1.26402         1.45886         1.23808         1.53265 
        1.27014         1.44446         1.22408          1.5197 
        1.27628          1.4363         1.21026         1.50423 
        1.28244         1.41394         1.19663         1.48718 
        1.28858         1.40217         1.18323         1.47081 
        1.29471         1.38768         1.17006         1.45655 
        1.30084          1.3712         1.15711         1.44693 
        1.30697         1.35978         1.14433         1.43136 
        1.31312          1.3379         1.13173         1.41649 
        1.31925         1.33079         1.11936         1.40556 
        1.32537         1.31761         1.10719         1.39089 
        1.33151          1.3069         1.09516         1.37711 
        1.33765         1.29011         1.08331         1.36398 
        1.34378          1.2752         1.07166         1.35226 
        1.34992         1.26805         1.06017         1.33906 
        1.35606         1.24992         1.04883         1.32241 
         1.3622          1.2412         1.03768         1.31132 
        1.36833         1.22805         1.02672         1.30239 
        1.37445         1.21299         1.01591         1.28978 
        1.38059         1.20316         1.00524         1.27722 
        1.38675         1.19845        0.994688          1.2628 
        1.39288         1.18049        0.984332         1.25332 
        1.39901         1.16869        0.974128         1.24216 
        1.40515         1.15878        0.964047         1.22873 
         1.4113         1.14702        0.954112         1.21904 
        1.41742         1.13642        0.944356         1.21145 
        1.42355         1.13083        0.934718         1.19382 
         1.4297         1.11402        0.925185         1.18964 
        1.43585          1.1061         0.91579         1.17861 
        1.44198         1.09937        0.906562         1.16271 
        1.44809         1.08331        0.897478          1.1571 
        1.45423         1.07464        0.888486         1.14275 
        1.46036         1.06487        0.879634         1.13367 
        1.46649         1.05472        0.870899         1.12672 
        1.47263         1.04376        0.862277         1.11607 
        1.47877          1.0334        0.853775         1.10444 
        1.48491         1.02497        0.845375         1.09722 
        1.49104         1.01585        0.837105         1.08555 
        1.49718          1.0087        0.828941         1.07862 
        1.50333        0.997322        0.820873         1.06716 
        1.50947        0.990347        0.812928         1.05707 
         1.5156        0.980551        0.805101         1.05004 
        1.52172        0.971317        0.797378         1.04111 
        1.52787        0.962021         0.78974         1.03096 
          1.534         0.95576        0.782211         1.02338 
        1.54013        0.943891        0.774789         1.01485 
        1.54627        0.935395         0.76745         1.00535 
        1.55241        0.927803        0.760205        0.997154 
        1.55855        0.920117        0.753064        0.989409 
        1.56467        0.913674        0.746035        0.981894 
         1.5708        0.902417        0.739075        0.972169 
        1.57695        0.898132        0.732194         0.96477 
        1.58308        0.889571        0.725417        0.959207 
        1.58922        0.881866        0.718722        0.950382 
        1.59535        0.874244        0.712113        0.942205 
         1.6015        0.867015        0.705579        0.934116 
        1.60764        0.860658         0.69913        0.927372 
        1.61376        0.851728        0.692779         0.92176 
        1.61989         0.84533        0.686503        0.913978 
        1.62604         0.83771         0.68029        0.906781 
        1.63218        0.832937        0.674158        0.900133 
        1.63831        0.823882        0.668116        0.892705 
        1.64444        0.816627        0.662146        0.884668 
        1.65059        0.810943        0.656235        0.877686 
        1.65673        0.803508        0.650403        0.871649 
        1.66285        0.796341        0.644657        0.864918 
        1.66898        0.792341         0.63898        0.857136 
        1.67512        0.782659         0.63336        0.851142 
        1.68127        0.777314        0.627802        0.845684 
         1.6874        0.772968        0.622323        0.839527 
        1.69353        0.764465        0.616914        0.832458 
        1.69967        0.758314        0.611555        0.825615 
        1.70581        0.753805        0.606263        0.820357 
        1.71193        0.746957        0.601054        0.815178 
        1.71806        0.741916        0.595894        0.807622 
        1.72421        0.735534        0.590786        0.801739 
        1.73035        0.728386        0.585743        0.796001 
        1.73649         0.72485         0.58076        0.789251 
        1.74262        0.718514        0.575839        0.783499 
        1.74876        0.712019        0.570972        0.779016 
        1.75489        0.705817        0.566171        0.773764 
        1.76101        0.700254        0.561427        0.767172 
        1.76715        0.695539        0.556731        0.761675 
        1.77329        0.690471        0.552083        0.756524 
        1.77943        0.683999        0.547487        0.750881 
        1.78557         0.67881        0.542949         0.74497 
        1.79171        0.674859        0.538462        0.739387 
        1.79785        0.669016        0.534025        0.734331 
        1.80399        0.664063        0.529639        0.729293 
        1.81012        0.659685        0.525308        0.722963 
        1.81625        0.653367        0.521028        0.717798 
        1.82239        0.649771        0.516789        0.714574 
        1.82853        0.641921        0.512599        0.710785 
        1.83466        0.638729        0.508459        0.705448 
        1.84078        0.633365         0.50437        0.699512 
        1.84692        0.630323        0.500319        0.694668 
        1.85306        0.625085        0.496308        0.689482 
         1.8592        0.620849        0.492347        0.684532 
        1.86533        0.615835        0.488431        0.680593 
        1.87147        0.611272        0.484554        0.675386 
        1.87761        0.607031        0.480717        0.670743 
