# k  (h/Mpc)    Pcb(k)  (Mpc/h)^3    Pcb_linear(k) (Mpc/h)^3    Pcb_NL(k) (Mpc/h)^3   ShotnoiseSubtracted = false
     0.00783031         77.3747         78.0328         77.6748 
       0.013688         97.3877         97.8115         97.3861 
       0.019231         100.292         100.417         99.9449 
      0.0249154         93.7018         93.9866         93.6935 
      0.0312784         82.0702         82.0977         82.0374 
      0.0375637         70.0865         69.9808         69.9864 
      0.0433917          60.621         60.5622         60.6148 
      0.0492413         53.5743         53.4878         53.5472 
      0.0555754         48.2465         48.2269         48.2508 
      0.0619321         44.7213          44.638         44.6383 
       0.067871         41.9447         41.9699         41.9409 
      0.0738098         39.2609         39.3108         39.2622 
      0.0800417         36.0806         36.1547         36.1144 
      0.0862327         32.6021         32.6346          32.618 
      0.0921407         29.1612         29.1629          29.167 
      0.0982031         25.8178         25.8283         25.8554 
       0.104506         22.9535         22.9077         22.9469 
       0.110769         20.7399         20.7015         20.7339 
       0.116806         19.2018         19.2045         19.2241 
       0.122832         18.1979         18.1819         18.1951 
       0.129052           17.39         17.4075         17.4103 
       0.135211         16.6735          16.705         16.7031 
       0.141259         15.9052         15.9205         15.9211 
       0.147318         14.9768         14.9732         14.9841 
       0.153489         13.8614         13.8675          13.879 
       0.159709         12.7025         12.7036         12.7262 
       0.165845          11.651           11.62         11.6554 
       0.171974         10.6934         10.6918         10.7258 
       0.178125         9.96785         9.95875          9.9971 
       0.184229         9.43954         9.42274         9.45802 
        0.19034         9.02432         9.03426         9.06459 
       0.196428         8.73186         8.73143         8.75335 
       0.202534         8.46623         8.44688         8.46846 
       0.208729         8.12818         8.12641         8.14783 
       0.214876         7.74113         7.75263         7.78258 
       0.220989         7.34574         7.33087         7.36518 
       0.227147         6.87606         6.88275         6.91857 
        0.23329          6.4445         6.44843         6.49036 
       0.239377         6.06188         6.06171         6.10604 
       0.245482         5.73237         5.73572         5.77549 
       0.251667         5.48157         5.47197         5.51395 
       0.257832         5.26673         5.26498          5.3044 
       0.263955         5.09943         5.09516         5.13147 
       0.270079         4.94395         4.93947         4.97398 
        0.27624         4.79171         4.77875         4.81137 
       0.282372         4.61586         4.60409         4.63995 
        0.28843         4.41862         4.41598         4.45344 
       0.294538         4.22105         4.21658         4.25564 
       0.300721         4.02937         4.01587         4.05765 
        0.30691         3.83263         3.82688         3.86947 
       0.313033         3.66739         3.65999         3.70126 
       0.319153         3.51025         3.51599         3.55849 
       0.325316         3.40638          3.3927         3.43572 
        0.33145         3.29663         3.28616         3.32639 
       0.337538          3.1981         3.18985         3.22843 
       0.343633         3.10014         3.09607         3.13397 
       0.349808         3.00685          2.9994         3.03895 
       0.355968         2.90812         2.89906         2.94325 
       0.362074         2.80326         2.79683         2.83891 
       0.368217         2.70127         2.69376         2.73265 
       0.374374         2.59556         2.59375         2.63541 
       0.380519         2.50846         2.50044         2.54057 
       0.386598         2.42616         2.41606         2.45715 
       0.392688         2.35307         2.34002         2.38065 
        0.39888         2.28004         2.27011          2.3104 
       0.405048         2.21634         2.20588         2.24334 
       0.411186         2.15638         2.14523         2.18616 
       0.417313         2.09382         2.08587         2.12532 
       0.423458         2.03763         2.02635         2.06631 
       0.429607          1.9741         1.96673         2.00531 
       0.435692         1.91568         1.90796         1.94789 
       0.441815         1.85826            1.85         1.89191 
       0.447964         1.80701         1.79415         1.83446 
       0.454126         1.74934         1.74125         1.78095 
       0.460267         1.69939         1.69189          1.7326 
       0.466387         1.65236         1.64611         1.68472 
        0.47254         1.61019         1.60295          1.6418 
       0.478662         1.57058         1.56208         1.59994 
       0.484765         1.52931         1.52278         1.56063 
       0.490885         1.49184         1.48436         1.52486 
       0.497035         1.45833         1.44634          1.4873 
       0.503198         1.41796         1.40876         1.44638 
       0.509342         1.38331         1.37209         1.41052 
       0.515458         1.34542         1.33668         1.37682 
       0.521598         1.31154         1.30243         1.33948 
       0.527764         1.27636         1.26949         1.30631 
       0.533884         1.24918         1.23834         1.27499 
           0.54         1.21838         1.20876          1.2447 
       0.546137         1.19101         1.18035         1.21721 
       0.552299         1.16275         1.15286         1.18696 
       0.558452         1.13423         1.12623         1.16092 
       0.564573         1.10977         1.10042         1.13774 
       0.570708          1.0845         1.07519         1.11156 
       0.576825         1.05898         1.05064         1.08615 
       0.582926         1.03709         1.02675         1.06281 
       0.589034         1.00969         1.00349         1.04073 
       0.595184        0.987934        0.980825         1.01418 
       0.601379        0.966368        0.958834        0.995039 
       0.607522        0.947051        0.937857        0.973232 
       0.613639        0.928637        0.917717        0.952398 
       0.619772        0.905992        0.898181        0.933953 
       0.625918        0.887719        0.879185        0.913424 
       0.632068         0.87051        0.860703        0.894218 
       0.638161        0.851506        0.842882        0.876413 
         0.6443        0.834054        0.825408        0.858112 
       0.650464        0.815396        0.808334        0.842508 
       0.656582        0.800121        0.791838        0.825332 
       0.662703        0.784258        0.775776        0.808569 
       0.668861        0.770274        0.760064        0.793865 
       0.675024        0.753495        0.744784        0.777736 
       0.681124        0.737126        0.730102        0.762355 
       0.687237        0.724584        0.715822        0.746712 
       0.693381        0.711048        0.701892        0.731985 
       0.699536        0.694785        0.688332        0.718832 
       0.705665        0.682206        0.675201        0.707691 
       0.711789         0.67068        0.662425        0.694176 
       0.717957        0.656953        0.649881         0.68044 
        0.72409        0.645378        0.637715        0.668463 
       0.730186        0.632839        0.625917        0.655666 
       0.736317         0.62322        0.614345        0.643605 
       0.742472        0.611237        0.603019        0.633867 
       0.748622        0.599602        0.591991        0.622902 
        0.75476        0.588039         0.58127        0.610679 
       0.760888        0.577153        0.570842        0.600344 
       0.767043        0.569693        0.560639        0.590415 
       0.773185        0.558081        0.550718        0.580801 
       0.779291        0.548401        0.541099        0.570879 
       0.785407        0.539177        0.531701        0.560856 
       0.791564        0.530184         0.52247        0.551562 
       0.797719        0.521692        0.513464        0.541361 
       0.803834        0.512995        0.504725        0.532944 
       0.809972        0.503843        0.496157        0.525257 
       0.816124        0.495152        0.487768         0.51563 
       0.822261        0.486376        0.479594        0.507065 
       0.828378        0.479233        0.471633        0.499119 
       0.834502        0.471945        0.463845         0.49065 
       0.840667        0.462981        0.456184        0.483324 
       0.846816        0.455693        0.448719        0.476922 
       0.852925        0.449596         0.44147        0.468727 
       0.859047        0.442283        0.434367        0.462441 
       0.865192        0.434491        0.427399        0.454642 
       0.871341        0.427506        0.420581         0.44741 
       0.877463        0.422127        0.413944        0.440254 
       0.883569         0.41479        0.407469        0.434289 
       0.889708        0.408402          0.4011        0.427748 
       0.895864        0.402003        0.394852        0.420999 
       0.902008        0.395654        0.388751        0.414826 
       0.908149        0.389518        0.382784        0.408856 
       0.914301        0.382597        0.376932        0.402445 
       0.920448         0.37745        0.371209        0.396433 
       0.926574        0.371739        0.365626        0.391085 
       0.932687        0.366003        0.360169        0.384599 
       0.938823        0.361806        0.354806          0.3805 
       0.944975        0.356112        0.349539        0.373812 
       0.951105        0.351172        0.344399         0.36864 
       0.957225        0.346658        0.339372        0.364161 
       0.963368        0.341281        0.334429        0.358602 
       0.969511        0.335839        0.329585        0.353774 
       0.975621        0.330976        0.324863        0.347953 
       0.981748        0.327292        0.320223        0.343332 
       0.987916        0.322323        0.315644        0.339677 
        0.99406        0.317581        0.311173        0.335289 
        1.00019        0.313697        0.306798        0.330655 
        1.00632        0.308478        0.302511        0.325674 
        1.01246         0.30421        0.298301        0.321204 
        1.01859        0.300537        0.294178        0.317355 
        1.02471        0.296267        0.290138        0.313192 
        1.03085         0.29309        0.286161        0.308402 
        1.03698        0.288488        0.282267        0.304265 
        1.04314        0.284777         0.27843        0.300557 
        1.04929        0.280651        0.274673        0.296748 
        1.05541        0.277491        0.271001        0.293317 
        1.06154        0.273384        0.267388        0.289528 
        1.06769        0.269542        0.263835        0.285792 
        1.07382        0.266257        0.260359        0.282109 
        1.07993        0.262494        0.256953        0.278514 
        1.08607        0.259993        0.253595        0.275282 
        1.09222        0.256083        0.250294        0.271408 
        1.09836        0.253484        0.247055        0.268358 
        1.10449        0.250159        0.243878        0.265088 
        1.11063        0.246456        0.240753        0.261393 
        1.11677        0.243108        0.237685        0.258662 
         1.1229        0.240551        0.234676        0.255507 
        1.12903        0.237292        0.231716        0.252326 
        1.13518          0.2346        0.228805        0.249304 
        1.14131        0.231497        0.225946        0.246419 
        1.14745        0.227934        0.223138        0.243002 
        1.15359        0.225713        0.220377        0.240546 
        1.15973        0.222554        0.217662        0.237879 
        1.16584        0.220498        0.215005         0.23472 
        1.17197        0.217761        0.212388        0.232184 
        1.17811        0.215423        0.209808        0.229699 
        1.18424         0.21313        0.207277        0.226619 
        1.19038         0.21016        0.204782        0.224113 
        1.19652        0.207173        0.202328        0.221763 
        1.20267        0.205451        0.199915        0.218676 
        1.20881        0.202882        0.197543        0.216563 
        1.21495        0.200867        0.195212        0.214655 
        1.22108        0.198223         0.19292        0.211726 
         1.2272          0.1962         0.19067        0.209135 
        1.23334         0.19374         0.18845        0.207032 
        1.23949        0.191553        0.186261        0.205019 
        1.24562        0.189353        0.184113        0.202707 
        1.25174         0.18734        0.182003        0.200241 
        1.25789        0.185532        0.179919        0.198066 
        1.26402        0.182821        0.177871        0.195953 
        1.27014        0.181021        0.175861        0.193738 
        1.27628        0.179213        0.173875         0.19156 
        1.28244        0.176734        0.171917        0.189584 
        1.28858        0.175076        0.169992        0.187314 
        1.29471        0.173557          0.1681        0.185523 
        1.30084        0.171299        0.166239        0.183978 
        1.30697        0.169438        0.164403        0.181866 
        1.31312        0.167157        0.162593        0.179856 
        1.31925        0.165575        0.160816        0.178196 
        1.32537        0.164027        0.159067        0.176376 
        1.33151        0.162413        0.157338        0.174524 
        1.33765        0.160658        0.155636        0.172719 
        1.34378        0.158682        0.153962        0.170966 
        1.34992        0.157076        0.152313        0.169262 
        1.35606        0.155492        0.150683        0.167273 
         1.3622        0.153884        0.149081        0.165661 
        1.36833        0.152149        0.147506        0.164173 
        1.37445        0.150262        0.145954        0.162611 
        1.38059        0.148894         0.14442        0.160841 
        1.38675        0.147876        0.142904        0.159151 
        1.39288        0.146176        0.141416        0.157539 
        1.39901        0.144606        0.139951        0.156087 
        1.40515        0.143382        0.138502        0.154475 
         1.4113        0.141561        0.137075        0.153128 
        1.41742        0.140173        0.135673        0.151965 
        1.42355        0.139046        0.134288        0.149864 
         1.4297          0.1374        0.132919        0.148877 
        1.43585        0.136159        0.131569         0.14731 
        1.44198        0.134944        0.130243        0.145442 
        1.44809        0.133413        0.128938        0.144654 
        1.45423        0.132249        0.127647        0.142758 
        1.46036         0.13084        0.126375        0.141588 
        1.46649        0.129874         0.12512        0.140575 
        1.47263        0.128484        0.123881        0.139098 
        1.47877         0.12688         0.12266        0.137805 
        1.48491        0.125952        0.121453        0.136698 
        1.49104        0.124417        0.120265        0.135048 
        1.49718        0.123237        0.119092        0.134206 
        1.50333        0.122415        0.117933        0.132556 
        1.50947        0.121049        0.116791        0.131269 
         1.5156        0.119866        0.115667        0.130386 
        1.52172        0.118848        0.114557        0.129013 
        1.52787        0.117697         0.11346        0.127809 
          1.534        0.116425        0.112378        0.126838 
        1.54013        0.115403        0.111312        0.125664 
        1.54627        0.114522        0.110258        0.124438 
        1.55241        0.113211        0.109217        0.123322 
        1.55855        0.112115        0.108191        0.122223 
        1.56467        0.111506        0.107181        0.121259 
         1.5708        0.110283        0.106181        0.120028 
        1.57695        0.109233        0.105193        0.118854 
        1.58308        0.108245        0.104219        0.118023 
        1.58922        0.107296        0.103257        0.117049 
        1.59535        0.106313        0.102307         0.11593 
         1.6015        0.105237        0.101369        0.114784 
        1.60764        0.104456        0.100442        0.113946 
        1.61376        0.103336       0.0995298        0.113243 
        1.61989        0.102532       0.0986281        0.112167 
        1.62604         0.10172       0.0977355        0.111136 
        1.63218         0.10078       0.0968546        0.110237 
        1.63831       0.0998912       0.0959866        0.109303 
        1.64444       0.0990446       0.0951289        0.108265 
        1.65059       0.0982328       0.0942796        0.107345 
        1.65673       0.0973493       0.0934417        0.106516 
        1.66285        0.096616       0.0926163        0.105646 
        1.66898       0.0957231       0.0918006        0.104687 
        1.67512        0.094765       0.0909932        0.103808 
        1.68127       0.0938958       0.0901947        0.103003 
         1.6874       0.0932759       0.0894076        0.102239 
        1.69353       0.0922671       0.0886304        0.101429 
        1.69967       0.0917789       0.0878606        0.100438 
        1.70581       0.0906754       0.0871003       0.0995891 
        1.71193       0.0900312       0.0863518       0.0988733 
        1.71806       0.0891658       0.0856106       0.0980163 
        1.72421       0.0886877       0.0848767       0.0973354 
        1.73035       0.0877739       0.0841522       0.0965378 
        1.73649       0.0871448       0.0834363       0.0955563 
        1.74262       0.0863757       0.0827293       0.0948238 
        1.74876       0.0856292       0.0820301       0.0942385 
        1.75489       0.0850639       0.0813404       0.0935227 
        1.76101       0.0842324       0.0806588        0.092672 
        1.76715       0.0835089       0.0799842       0.0920273 
        1.77329       0.0827106       0.0793164       0.0913786 
        1.77943       0.0821334        0.078656       0.0906081 
        1.78557        0.081612       0.0780041       0.0897969 
        1.79171       0.0809299       0.0773595       0.0890166 
        1.79785       0.0802928        0.076722       0.0883691 
        1.80399       0.0795954       0.0760919       0.0878094 
        1.81012       0.0790285       0.0754697       0.0869383 
        1.81625       0.0783198       0.0748548       0.0862106 
        1.82239       0.0776781       0.0742457       0.0857926 
        1.82853       0.0770659       0.0736438       0.0852092 
        1.83466       0.0764821       0.0730491       0.0844647 
        1.84078       0.0758688       0.0724616       0.0837536 
        1.84692       0.0751858       0.0718796       0.0832233 
        1.85306       0.0747536       0.0713033       0.0825083 
         1.8592       0.0740162       0.0707342       0.0817452 
        1.86533       0.0735427       0.0701717       0.0812442 
        1.87147       0.0729379       0.0696146        0.080693 
