# k  (h/Mpc)    Pcb(k)  (Mpc/h)^3    Pcb_linear(k) (Mpc/h)^3    Pcb_NL(k) (Mpc/h)^3   ShotnoiseSubtracted = false
     0.00783031         2108.07         2129.49          2120.2 
       0.013688         2668.25         2666.48         2654.23 
       0.019231         2738.35         2736.57         2722.26 
      0.0249154         2541.33         2560.89         2550.87 
      0.0312784         2232.09         2236.72         2232.31 
      0.0375637         1911.59         1906.48         1903.76 
      0.0433917         1644.94         1649.83         1648.19 
      0.0492413         1458.49         1457.07         1455.97 
      0.0555754          1305.4         1313.74         1312.09 
      0.0619321         1223.18         1215.96         1213.95 
       0.067871         1137.49         1143.27         1140.71 
      0.0738098         1064.05         1070.83         1066.53 
      0.0800417         974.621         984.848         981.187 
      0.0862327         883.951         888.954         887.606 
      0.0921407         793.962         794.381         794.056 
      0.0982031         700.968         703.545         705.814 
       0.104506         629.863         623.986         628.157 
       0.110769         569.392          563.89         566.901 
       0.116806         525.151         523.112         525.694 
       0.122832          499.87         495.258         497.947 
       0.129052          474.22         474.164         476.304 
       0.135211         454.556          455.03         457.097 
       0.141259         435.718         433.659         436.332 
       0.147318         411.736         407.856         412.044 
       0.153489         379.881         377.737         380.938 
       0.159709         350.204         346.033         350.716 
       0.165845         324.727         316.515         323.497 
       0.171974         297.191         291.232         297.932 
       0.178125         278.504         271.264         279.197 
       0.184229         264.751         256.664         264.315 
        0.19034         250.032         246.083         253.194 
       0.196428         244.323         237.834          243.68 
       0.202534         238.385         230.084         236.085 
       0.208729         227.764         221.354         227.182 
       0.214876         215.864         211.173           218.6 
       0.220989         207.259         199.684         207.727 
       0.227147         193.159         187.478         195.699 
        0.23329          182.17         175.647         185.004 
       0.239377          173.31         165.113         174.859 
       0.245482          162.46         156.234         165.144 
       0.251667         157.634         149.049         158.522 
       0.257832           151.9         143.411         152.493 
       0.263955         146.782         138.786         147.415 
       0.270079         142.271         134.545         142.952 
        0.27624         139.146         130.167         138.212 
       0.282372         134.015          125.41         133.904 
        0.28843         128.266         120.286         128.961 
       0.294538         122.734         114.854         123.891 
       0.300721         118.939         109.387         118.956 
        0.30691         112.931         104.239         113.986 
       0.313033         108.772         99.6933         109.147 
       0.319153         103.437         95.7709         105.418 
       0.325316         101.631         92.4127         102.214 
        0.33145          97.985         89.5108         98.7834 
       0.337538         95.7693         86.8874         95.8912 
       0.343633         92.6816         84.3329         93.4665 
       0.349808         90.0736         81.6998         91.0697 
       0.355968         87.5697         78.9665         88.8774 
       0.362074         84.6542         76.1819         85.8939 
       0.368217         81.9302         73.3744          82.632 
       0.374374         79.1898         70.6503         80.2226 
       0.380519          76.963         68.1087         77.4947 
       0.386598         74.6996         65.8102         75.2558 
       0.392688         73.0399         63.7389         73.2262 
        0.39888         70.8954         61.8348         71.0803 
       0.405048         69.2373         60.0853         69.2176 
       0.411186         67.6266         58.4332         67.9212 
       0.417313         65.5003         56.8163         65.9057 
       0.423458         63.8581         55.1951         64.4165 
       0.429607         62.0925         53.5712         62.6796 
       0.435692          60.143         51.9702         61.1897 
       0.441815          59.103         50.3914          59.921 
       0.447964         57.9789         48.8703         58.1401 
       0.454126         55.5626         47.4292         56.5105 
       0.460267          54.577         46.0848         55.3865 
       0.466387         53.0458         44.8377         53.8885 
        0.47254         52.2014         43.6621         52.7997 
       0.478662         51.2617         42.5488         51.5833 
       0.484765         49.7978         41.4785         50.3227 
       0.490885         48.6901         40.4319         49.5552 
       0.497035          47.973         39.3964          48.609 
       0.503198         46.7017         38.3727         47.2937 
       0.509342         45.4851         37.3739         46.4029 
       0.515458         44.5292         36.4094         45.6825 
       0.521598         43.7585         35.4765         44.3239 
       0.527764         42.8421         34.5792         43.1997 
       0.533884         42.0659         33.7308         42.3717 
           0.54         41.1526         32.9249         41.5499 
       0.546137         40.4946         32.1512         40.8967 
       0.552299         39.8182         31.4025           39.87 
       0.558452         38.6062         30.6769         39.0797 
       0.564573         38.0163         29.9739         38.5709 
       0.570708         37.4187         29.2867         37.8289 
       0.576825         36.4903          28.618         37.0972 
       0.582926         35.7971         27.9672         36.4384 
       0.589034         34.8424         27.3336         35.8891 
       0.595184         34.3864         26.7163         35.0333 
       0.601379         33.7659         26.1173         34.5818 
       0.607522         33.0887          25.546         33.7918 
       0.613639         32.7833         24.9974         33.2241 
       0.619772         31.9294         24.4652         32.7002 
       0.625918         31.7283         23.9478         32.2126 
       0.632068         31.2042         23.4444         31.5525 
       0.638161         30.5379          22.959         31.0402 
         0.6443         29.9374          22.483         30.4579 
       0.650464         29.3959         22.0179         30.0549 
       0.656582         29.1913         21.5686         29.5814 
       0.662703         28.6151         21.1311         29.0197 
       0.668861         28.0835         20.7031         28.6718 
       0.675024         27.5834         20.2869         28.0825 
       0.681124         27.1027          19.887         27.6473 
       0.687237         26.6273          19.498         27.1703 
       0.693381         26.3859         19.1186         26.7387 
       0.699536         25.7217         18.7492         26.4242 
       0.705665         25.6214         18.3916         26.0954 
       0.711789         25.0349         18.0436         25.5627 
       0.717957         24.6982         17.7019         25.2346 
        0.72409         24.3248         17.3705         24.9193 
       0.730186         23.9762         17.0491         24.5015 
       0.736317         23.7079         16.7339         24.1319 
       0.742472         23.2873         16.4254         23.8847 
       0.748622         23.0358          16.125         23.4666 
        0.75476         22.6034          15.833         23.1447 
       0.760888         22.2897         15.5489         22.8615 
       0.767043         22.0113          15.271         22.5833 
       0.773185            21.6         15.0008         22.2546 
       0.779291         21.4791         14.7388         21.9952 
       0.785407         21.2123         14.4828         21.6592 
       0.791564         20.8083         14.2314         21.3838 
       0.797719         20.3721          13.986          21.096 
       0.803834         20.3234          13.748         20.7791 
       0.809972         20.1149         13.5146         20.5834 
       0.816124         19.6277         13.2861         20.2694 
       0.822261         19.4646         13.0635         19.9874 
       0.828378         19.2566         12.8466         19.7329 
       0.834502         19.0489         12.6345         19.5632 
       0.840667         18.7796         12.4258         19.2613 
       0.846816         18.4371         12.2225         19.0486 
       0.852925         18.2638          12.025          18.924 
       0.859047         18.0506         11.8316         18.6085 
       0.865192         17.8623         11.6418          18.376 
       0.871341         17.7089         11.4561          18.209 
       0.877463         17.3802         11.2753         17.9688 
       0.883569         17.1523         11.0989         17.7747 
       0.889708         16.8947         10.9254         17.5469 
       0.895864         16.7678         10.7552         17.3237 
       0.902008           16.63          10.589         17.1615 
       0.908149         16.4357         10.4265         16.9757 
       0.914301         16.3056         10.2671         16.8514 
       0.920448         15.9774         10.1112         16.5793 
       0.926574         15.8443         9.95914         16.3957 
       0.932687         15.6633         9.81052         16.1653 
       0.938823         15.4543         9.66441         16.0252 
       0.944975         15.2716         9.52097         15.8615 
       0.951105         15.1372         9.38096         15.6327 
       0.957225         14.9906         9.24403         15.5456 
       0.963368         14.8303         9.10939         15.3419 
       0.969511         14.6972         8.97744         15.1965 
       0.975621         14.5528         8.84883         15.0245 
       0.981748         14.3548         8.72243         14.8946 
       0.987916          14.243         8.59771         14.7111 
        0.99406         14.0506         8.47592         14.5755 
        1.00019         13.8401         8.35674         14.4447 
        1.00632          13.805         8.23998          14.303 
        1.01246         13.6579         8.12529         14.2125 
        1.01859         13.4397         8.01299         14.0316 
        1.02471         13.3746         7.90296         13.8502 
        1.03085         13.2391         7.79463         13.7384 
        1.03698         13.0194         7.68857         13.6183 
        1.04314         12.9467         7.58405         13.4621 
        1.04929         12.7747         7.48172         13.3594 
        1.05541         12.6314          7.3817          13.258 
        1.06154         12.5414         7.28328         13.0958 
        1.06769         12.4683          7.1865          12.968 
        1.07382         12.2995         7.09181          12.868 
        1.07993         12.2051         6.99905         12.7448 
        1.08607         12.0739         6.90758         12.6237 
        1.09222         11.9718         6.81765         12.5192 
        1.09836          11.824         6.72944          12.376 
        1.10449         11.7393         6.64289         12.2664 
        1.11063          11.605         6.55779          12.178 
        1.11677          11.547         6.47421         12.0477 
         1.1229         11.4632         6.39224         11.9621 
        1.12903         11.3155         6.31162         11.8863 
        1.13518         11.1797         6.23234         11.7588 
        1.14131         11.1071         6.15446         11.6483 
        1.14745         11.0065         6.07797         11.5367 
        1.15359         10.9284         6.00276         11.4448 
        1.15973         10.8265          5.9288         11.3445 
        1.16584          10.662         5.85643         11.2807 
        1.17197         10.6111         5.78516         11.1944 
        1.17811         10.5372         5.71486         11.0586 
        1.18424         10.4352         5.64595         10.9866 
        1.19038         10.3841         5.57797         10.8913 
        1.19652         10.2684         5.51114         10.7947 
        1.20267         10.1568         5.44542         10.7067 
        1.20881         10.1262         5.38078         10.6518 
        1.21495         10.0397          5.3173         10.5525 
        1.22108          9.9127         5.25486          10.472 
         1.2272         9.83915         5.19357         10.3656 
        1.23334         9.73895         5.13313         10.3075 
        1.23949         9.65619          5.0735          10.224 
        1.24562         9.60778         5.01499         10.1289 
        1.25174         9.53697          4.9575         10.0623 
        1.25789         9.45732         4.90074         9.97537 
        1.26402         9.41105         4.84497         9.88971 
        1.27014         9.31965          4.7902         9.82554 
        1.27628         9.19927         4.73612         9.74445 
        1.28244         9.12623         4.68278         9.69262 
        1.28858         9.11486         4.63033          9.6045 
        1.29471         9.00834         4.57881         9.53809 
        1.30084         8.91829         4.52812          9.4962 
        1.30697         8.89616         4.47812         9.39795 
        1.31312          8.7619         4.42881         9.33022 
        1.31925         8.70314          4.3804         9.28874 
        1.32537         8.65308         4.33276         9.22273 
        1.33151         8.60469         4.28567         9.14185 
        1.33765         8.52274         4.23931         9.06478 
        1.34378         8.45201         4.19372         9.00969 
        1.34992         8.38853         4.14878          8.9511 
        1.35606         8.33609          4.1044         8.87517 
         1.3622         8.28338         4.06075         8.80832 
        1.36833         8.20087         4.01784         8.78175 
        1.37445         8.15493         3.97558         8.70291 
        1.38059         8.11677         3.93379         8.62623 
        1.38675         8.03251         3.89251         8.58944 
        1.39288         7.99231         3.85198         8.52703 
        1.39901         7.90503         3.81206         8.47061 
        1.40515         7.87077          3.7726         8.41362 
         1.4113         7.81118         3.73373         8.35656 
        1.41742         7.75261         3.69555         8.30187 
        1.42355         7.68665         3.65783         8.24158 
         1.4297         7.63699         3.62053         8.19252 
        1.43585         7.60539         3.58376         8.14894 
        1.44198         7.56208         3.54765         8.08213 
        1.44809         7.49289          3.5121         8.03815 
        1.45423         7.43011         3.47691          7.9866 
        1.46036         7.38258         3.44227         7.93132 
        1.46649         7.33936         3.40809         7.88402 
        1.47263         7.27024         3.37435         7.84066 
        1.47877         7.22619         3.34108         7.78569 
        1.48491         7.18431          3.3082         7.73039 
        1.49104         7.13506         3.27584         7.69034 
        1.49718         7.09264         3.24389           7.642 
        1.50333         7.04643         3.21232         7.59431 
        1.50947          6.9891         3.18123         7.55222 
         1.5156         6.95278          3.1506         7.50851 
        1.52172         6.91276         3.12038          7.4575 
        1.52787           6.861         3.09049         7.39881 
          1.534         6.81229         3.06103         7.35974 
        1.54013         6.77638         3.03198         7.31321 
        1.54627         6.71482         3.00326          7.2696 
        1.55241         6.67929         2.97491         7.23508 
        1.55855         6.65064         2.94696          7.1845 
        1.56467         6.59385         2.91946         7.14663 
         1.5708         6.57082         2.89222         7.11711 
        1.57695         6.50805          2.8653         7.06917 
        1.58308         6.46198         2.83878          7.0255 
        1.58922         6.44195         2.81257          6.9976 
        1.59535            6.41         2.78671         6.95472 
         1.6015         6.35184         2.76114         6.90606 
        1.60764         6.30372          2.7359         6.86653 
        1.61376         6.28309         2.71105         6.83463 
        1.61989         6.24051         2.68649         6.80025 
        1.62604          6.1981         2.66218         6.75843 
        1.63218         6.17828         2.63818         6.72134 
        1.63831         6.13907         2.61454         6.68859 
        1.64444         6.09961         2.59118         6.64525 
        1.65059         6.03444         2.56804         6.60535 
        1.65673         6.02973         2.54522         6.57342 
        1.66285         5.96492         2.52274         6.54136 
        1.66898         5.93841         2.50052         6.50369 
        1.67512         5.91375         2.47852         6.46948 
        1.68127         5.87116         2.45678         6.43172 
         1.6874         5.84743         2.43534         6.39846 
        1.69353         5.80199         2.41417         6.37486 
        1.69967         5.77107          2.3932         6.33153 
        1.70581         5.74065         2.37249         6.29608 
        1.71193         5.70162          2.3521         6.27263 
        1.71806         5.68087         2.33191         6.23758 
        1.72421         5.63762         2.31192         6.20525 
        1.73035         5.62126         2.29219         6.17084 
        1.73649         5.58497         2.27269         6.13481 
        1.74262         5.54183         2.25343         6.11028 
        1.74876         5.52113         2.23438         6.07973 
        1.75489         5.49701          2.2156          6.0408 
        1.76101         5.44756         2.19703         6.00479 
        1.76715         5.43077         2.17866         5.98326 
        1.77329         5.39705         2.16047         5.95539 
        1.77943         5.35543         2.14248         5.92113 
        1.78557         5.34311         2.12472          5.8913 
        1.79171         5.30919         2.10716         5.85908 
        1.79785         5.27656          2.0898         5.82758 
        1.80399         5.24076         2.07264         5.80318 
        1.81012         5.22123         2.05569         5.78149 
        1.81625          5.1875         2.03894         5.75566 
        1.82239         5.16738         2.02235         5.72618 
        1.82853         5.13261         2.00595         5.69893 
        1.83466         5.10971         1.98975         5.67536 
        1.84078         5.08481         1.97375         5.64898 
        1.84692         5.06919          1.9579          5.6125 
        1.85306         5.02501          1.9422         5.58308 
         1.8592          4.9959          1.9267         5.56288 
        1.86533         4.97279         1.91138         5.53796 
        1.87147         4.95158          1.8962         5.50694 
