# k  (h/Mpc)    P(k)  (Mpc/h)^3    P_linear(k)  (Mpc/h)^3     P_NL(k)  ShotnoiseSubtracted = false
     0.00783031         13156.8         13338.2         13274.2 
       0.013688         16817.9         16674.8         16566.1 
       0.019231         17131.4         17104.6         16961.4 
      0.0249154         15679.3         16002.7         15855.6 
      0.0312784         13818.9         13974.9           13830 
      0.0375637         11901.5         11910.5         11784.3 
      0.0433917         10129.4         10306.6           10175 
      0.0492413         9042.42          9102.1         8981.14 
      0.0555754         7973.36         8206.47         8098.61 
      0.0619321         7612.77         7595.52         7489.24 
       0.067871         6953.72         7141.36         7041.91 
      0.0738098         6505.43         6688.76         6533.66 
      0.0800417         5912.95         6151.64         6014.74 
      0.0862327         5403.84         5552.62         5486.74 
      0.0921407         4921.21         4961.86         4918.01 
      0.0982031         4349.05         4394.45         4430.12 
       0.104506         3997.83         3897.49         3995.32 
       0.110769         3630.86         3522.11         3591.49 
       0.116806         3372.12          3267.4         3330.26 
       0.122832         3203.99         3093.41         3161.05 
       0.129052         2995.44         2961.65         3019.37 
       0.135211          2873.5         2842.13         2892.84 
       0.141259         2776.38         2708.64         2783.37 
       0.147318         2634.85         2547.47         2655.17 
       0.153489          2422.9         2359.35         2444.58 
       0.159709         2279.34         2161.32         2290.84 
       0.165845         2164.52         1976.95         2166.83 
       0.171974         2019.24         1819.02         2014.17 
       0.178125         1906.53         1694.31         1924.35 
       0.184229         1816.26         1603.11         1816.96 
        0.19034         1712.51         1537.02         1741.73 
       0.196428         1686.48          1485.5         1671.62 
       0.202534         1633.73         1437.09          1627.3 
       0.208729         1564.52         1382.57         1556.92 
       0.214876         1499.31         1318.97            1527 
       0.220989         1449.52         1247.22         1476.54 
       0.227147         1380.71         1170.97          1417.6 
        0.23329         1321.35         1097.08         1366.57 
       0.239377         1293.32         1031.28         1302.77 
       0.245482         1208.28         975.819         1236.32 
       0.251667         1198.64         930.946         1201.15 
       0.257832         1151.91         895.735         1157.41 
       0.263955         1115.81         866.844         1123.33 
       0.270079         1078.11          840.36          1095.2 
        0.27624          1067.7         813.015         1065.21 
       0.282372         1023.25         783.297         1044.66 
        0.28843         1011.29         751.297         1020.21 
       0.294538          960.59         717.368         991.394 
       0.300721         955.187          683.22         960.357 
        0.30691         914.185         651.068         940.846 
       0.313033         896.063         622.676         906.518 
       0.319153         876.574         598.173         878.984 
       0.325316         848.677           577.2         861.181 
        0.33145         828.461         559.076         830.579 
       0.337538         815.024         542.689         816.033 
       0.343633         793.969         526.734         808.636 
       0.349808         767.195         510.292         795.633 
       0.355968         762.176         493.215         782.146 
       0.362074         752.316         475.824         766.024 
       0.368217         729.939         458.289         744.395 
       0.374374         700.094         441.272         728.641 
       0.380519         699.249           425.4         711.187 
       0.386598         680.588         411.043         701.951 
       0.392688         678.186         398.106         682.422 
        0.39888         657.904         386.213         671.812 
       0.405048         647.487         375.286         661.832 
       0.411186         637.694         364.968         647.408 
       0.417313         624.887         354.868         637.532 
       0.423458         613.835         344.742         628.276 
       0.429607         604.299         334.601         616.608 
       0.435692         590.865         324.599         603.684 
       0.441815         586.037         314.739         599.553 
       0.447964          573.26         305.238         589.649 
       0.454126         564.135         296.238         573.166 
       0.460267         552.534         287.838         570.832 
       0.466387         546.527         280.052          560.12 
        0.47254         538.374         272.708         552.318 
       0.478662          535.76         265.755         542.787 
       0.484765         518.646         259.069         534.796 
       0.490885         514.753         252.533         526.356 
       0.497035         504.265         246.065         521.007 
       0.503198         499.484         239.671         514.269 
       0.509342         495.053         233.433         506.663 
       0.515458         490.737         227.408          502.64 
       0.521598          478.75         221.582         495.431 
       0.527764         470.017         215.977         489.949 
       0.533884         468.246         210.678         483.536 
           0.54         462.317         205.645         476.375 
       0.546137         459.774         200.813          470.68 
       0.552299         451.368         196.136         464.143 
       0.558452         448.761         191.604         459.983 
       0.564573         442.241         187.213         456.374 
       0.570708         436.139         182.921         451.729 
       0.576825         425.516         178.745          443.87 
       0.582926         425.144          174.68         439.904 
       0.589034         421.128         170.723         433.624 
       0.595184         417.299         166.867         428.535 
       0.601379         411.366         163.125         424.419 
       0.607522         405.637         159.557         418.802 
       0.613639         404.444          156.13         417.193 
       0.619772         395.039         152.807         415.589 
       0.625918         393.778         149.575         408.657 
       0.632068         387.587         146.431         405.022 
       0.638161         386.129         143.399         400.648 
         0.6443         379.301         140.426         397.316 
       0.650464         376.471         137.521          390.34 
       0.656582          374.25         134.715          387.82 
       0.662703         372.566         131.982         385.769 
       0.668861         365.916         129.309         382.925 
       0.675024         362.404         126.709         379.513 
       0.681124         359.889         124.212         373.339 
       0.687237         356.497         121.782         370.119 
       0.693381         351.474         119.412         366.868 
       0.699536         347.386         117.105         364.389 
       0.705665         345.395         114.871         360.084 
       0.711789          343.15         112.698         357.916 
       0.717957          340.31         110.564         356.254 
        0.72409          337.43         108.494         352.581 
       0.730186         333.231         106.487         349.209 
       0.736317         330.213         104.518         345.961 
       0.742472         328.463         102.591         342.699 
       0.748622         325.227         100.715         339.757 
        0.75476         321.606         98.8908         339.949 
       0.760888          318.02         97.1167         335.101 
       0.767043         318.577          95.381         332.452 
       0.773185         314.282          93.693         330.053 
       0.779291         309.728         92.0566         326.794 
       0.785407         308.782         90.4578         324.901 
       0.791564         304.927         88.8873         322.523 
       0.797719         302.487          87.355          319.68 
       0.803834         299.885         85.8684         318.266 
       0.809972         298.821         84.4107         315.823 
       0.816124         298.371         82.9834         311.917 
       0.822261         294.006         81.5929         310.537 
       0.828378         292.027         80.2384         308.005 
       0.834502         289.894         78.9135         306.346 
       0.840667         286.713         77.6101         303.542 
       0.846816         285.194         76.3401         301.815 
       0.852925         283.408         75.1068         299.823 
       0.859047          281.39         73.8984          297.65 
       0.865192         278.073          72.713         295.062 
       0.871341         276.051          71.553         293.382 
       0.877463         274.582         70.4239         291.589 
       0.883569         273.165         69.3222         290.319 
       0.889708         270.385         68.2387         287.357 
       0.895864         267.612         67.1757         285.708 
       0.902008         266.354         66.1378          283.66 
       0.908149         264.799         65.1225         281.287 
       0.914301         261.539          64.127         279.258 
       0.920448             260         63.1534         277.485 
       0.926574         257.591         62.2035         275.556 
       0.932687         257.717         61.2752         273.811 
       0.938823         254.448         60.3627         273.013 
       0.944975         253.484         59.4667         270.857 
       0.951105         251.614         58.5923         268.856 
       0.957225         249.699          57.737         267.202 
       0.963368         246.487          56.896         265.559 
       0.969511         245.328         56.0719         263.622 
       0.975621         243.282         55.2686         262.349 
       0.981748         243.076         54.4791         260.886 
       0.987916         240.921         53.7002         259.404 
        0.99406         237.736         52.9395         257.678 
        1.00019         237.627         52.1951         255.459 
        1.00632         235.778         51.4658         253.891 
        1.01246          233.83         50.7495         251.884 
        1.01859         233.946         50.0481         250.612 
        1.02471         230.408         49.3608         249.638 
        1.03085         228.687         48.6842         248.481 
        1.03698         227.891         48.0218         247.492 
        1.04314         225.592         47.3689         245.419 
        1.04929         224.221         46.7298         243.582 
        1.05541         224.279         46.1051         242.241 
        1.06154          221.07         45.4904         240.948 
        1.06769         220.646         44.8859         239.617 
        1.07382         218.964         44.2945         238.155 
        1.07993         217.152         43.7152         236.972 
        1.08607         216.612         43.1438         235.238 
        1.09222          214.97         42.5821         234.022 
        1.09836         213.211         42.0312         233.105 
        1.10449         211.015         41.4906         231.856 
        1.11063         209.247         40.9591         230.351 
        1.11677         208.902          40.437         228.696 
         1.1229         207.325         39.9251          227.69 
        1.12903         206.159         39.4216         226.632 
        1.13518          204.82         38.9263         225.131 
        1.14131         202.991         38.4399         223.792 
        1.14745         202.799         37.9622         222.609 
        1.15359         201.009         37.4924         221.469 
        1.15973          199.68         37.0305         220.263 
        1.16584         197.987         36.5785         218.682 
        1.17197         197.823         36.1333         218.137 
        1.17811          195.65         35.6943         216.873 
        1.18424         194.697         35.2638         215.488 
        1.19038         194.099         34.8393         214.869 
        1.19652         192.486         34.4219         213.523 
        1.20267         191.872         34.0114         212.051 
        1.20881         190.017         33.6076         211.152 
        1.21495         189.093         33.2112         209.924 
        1.22108         187.915         32.8211         208.662 
         1.2272         186.376         32.4384         207.125 
        1.23334         185.688         32.0608         206.501 
        1.23949         184.309         31.6884         205.764 
        1.24562         183.286          31.323         204.217 
        1.25174         181.746         30.9639         203.367 
        1.25789         180.554         30.6093         202.139 
        1.26402         179.231          30.261         201.435 
        1.27014         178.022          29.919         200.348 
        1.27628         177.272         29.5812         199.836 
        1.28244         177.036          29.248         198.674 
        1.28858         175.096         28.9204         197.405 
        1.29471         173.643         28.5986         195.944 
        1.30084         173.076          28.282         195.117 
        1.30697         171.701         27.9697         194.379 
        1.31312         170.486         27.6617         193.035 
        1.31925         169.845         27.3594         192.134 
        1.32537         168.945         27.0619         191.391 
        1.33151         167.232         26.7677         190.364 
        1.33765         166.472         26.4781         189.374 
        1.34378           165.7         26.1934         188.654 
        1.34992          164.89         25.9127         187.301 
        1.35606         164.572         25.6355         186.252 
         1.3622          162.75         25.3629         185.627 
        1.36833          161.43         25.0949          184.73 
        1.37445         160.659         24.8309         183.416 
        1.38059         159.563         24.5699         182.674 
        1.38675         158.907         24.3121         181.981 
        1.39288         157.916          24.059         180.321 
        1.39901         157.736         23.8096         179.928 
        1.40515         155.909         23.5632           179.3 
         1.4113         155.014         23.3203         178.271 
        1.41742         154.075         23.0819         177.467 
        1.42355          153.21         22.8463         176.547 
         1.4297         152.227         22.6133         175.735 
        1.43585         151.255         22.3837         174.826 
        1.44198         150.482         22.1581         174.139 
        1.44809         149.829         21.9361         173.296 
        1.45423         148.832         21.7163         172.064 
        1.46036         147.843         21.4999         171.346 
        1.46649         146.739         21.2865         170.873 
        1.47263         145.908         21.0757         170.128 
        1.47877         145.247         20.8679         168.974 
        1.48491         143.705         20.6626          168.07 
        1.49104         143.621         20.4605         167.729 
        1.49718         142.116         20.2609         166.658 
        1.50333         141.613         20.0637          165.79 
        1.50947         140.987         19.8695         165.246 
         1.5156         139.847         19.6782         164.389 
        1.52172         139.058         19.4894         163.252 
        1.52787         138.013         19.3028         162.763 
          1.534         137.528         19.1188         162.072 
        1.54013         136.616         18.9373         161.285 
        1.54627         135.899          18.758         160.678 
        1.55241         134.841         18.5809         159.904 
        1.55855         134.068         18.4063         158.954 
        1.56467         133.425         18.2345         158.268 
         1.5708         132.492         18.0644         157.615 
        1.57695         131.833         17.8962         156.882 
        1.58308          131.21         17.7306         156.184 
        1.58922         130.559         17.5669         155.437 
        1.59535         129.466         17.4054         154.803 
         1.6015         128.986         17.2457         153.991 
        1.60764         128.157         17.0881          153.17 
        1.61376         127.389         16.9329         152.664 
        1.61989         126.531         16.7794         152.057 
        1.62604         125.813         16.6276         151.127 
        1.63218         125.306         16.4777         150.443 
        1.63831         124.262           16.33         149.952 
        1.64444         123.815         16.1841         149.097 
        1.65059         123.139         16.0396         148.595 
        1.65673         121.915         15.8971         147.846 
        1.66285         121.749         15.7567         147.065 
        1.66898         120.937         15.6179          146.57 
        1.67512         120.497         15.4805         145.884 
        1.68127         119.362         15.3447         145.314 
         1.6874         118.472         15.2108         144.793 
        1.69353         118.194         15.0785         144.034 
        1.69967         117.506         14.9476         143.304 
        1.70581         116.724         14.8182         142.741 
        1.71193          116.11         14.6909         142.136 
        1.71806         115.491         14.5648         141.254 
        1.72421         114.718         14.4399         140.729 
        1.73035         114.506         14.3167         140.226 
        1.73649         113.614         14.1949         139.524 
        1.74262         112.748         14.0746         138.947 
        1.74876         112.374         13.9556         138.387 
        1.75489         111.446         13.8383         137.765 
        1.76101         110.819         13.7224         137.141 
        1.76715         110.157         13.6076         136.611 
        1.77329         109.916          13.494         135.901 
        1.77943         108.885         13.3816         135.178 
        1.78557         108.392         13.2707         134.694 
        1.79171         107.655          13.161         134.192 
        1.79785         107.114         13.0526         133.604 
        1.80399         106.395         12.9454         132.994 
        1.81012         105.912         12.8395         132.391 
        1.81625         105.288         12.7349          131.85 
        1.82239         104.935         12.6313         131.309 
        1.82853         104.245         12.5289         130.659 
        1.83466         103.433         12.4277         130.011 
        1.84078         103.174         12.3278         129.501 
        1.84692         102.264         12.2288         129.135 
        1.85306         101.923         12.1307         128.489 
         1.8592         101.205         12.0339         127.793 
        1.86533         100.402         11.9382         127.446 
        1.87147          99.953         11.8434          127.02 
        1.87761         99.4433         11.7496         126.421 
