# k  (h/Mpc)    P(k)  (Mpc/h)^3    P_linear(k)  (Mpc/h)^3     P_NL(k)  ShotnoiseSubtracted = false
     0.00783031         9572.59         9695.48         9650.92 
       0.013688         12209.4         12126.7         12055.5 
       0.019231         12461.6         12441.1         12349.7 
      0.0249154         11446.3         11640.4         11553.3 
      0.0312784         10081.9         10165.7         10087.9 
      0.0375637         8670.72         8664.28         8597.73 
      0.0433917         7400.53          7497.6         7429.86 
      0.0492413         6595.25         6621.45          6559.9 
      0.0555754         5838.77         5969.96         5914.15 
      0.0619321         5550.95         5525.54         5469.91 
       0.067871         5093.22         5195.17         5142.36 
      0.0738098         4764.24         4865.93          4782.9 
      0.0800417         4338.96          4475.2         4402.02 
      0.0862327         3958.02         4039.43         4005.54 
      0.0921407         3590.58         3609.67         3587.99 
      0.0982031         3169.77          3196.9         3219.64 
       0.104506         2898.17         2835.37         2892.43 
       0.110769          2628.1         2562.29         2601.87 
       0.116806         2433.13         2376.99         2412.78 
       0.122832          2315.2         2250.42         2289.23 
       0.129052         2171.48         2154.57         2187.16 
       0.135211         2083.54         2067.62         2097.32 
       0.141259         2009.35         1970.51            2013 
       0.147318         1904.32         1853.26         1916.42 
       0.153489         1751.84          1716.4          1764.9 
       0.159709         1640.86         1572.34            1646 
       0.165845            1548         1438.21         1547.79 
       0.171974         1436.12         1323.32         1433.77 
       0.178125         1353.93         1232.59         1363.85 
       0.184229         1290.91         1166.25         1289.19 
        0.19034         1211.58         1118.17         1235.02 
       0.196428         1194.54         1080.69          1183.9 
       0.202534         1161.37         1045.47         1151.28 
       0.208729         1110.25         1005.81         1103.23 
       0.214876         1057.94         959.542         1078.93 
       0.220989         1022.85         907.339          1038.5 
       0.227147         967.878         851.873         991.139 
        0.23329          923.75         798.116         952.425 
       0.239377         898.813         750.251         906.644 
       0.245482         836.982         709.901         858.113 
       0.251667         827.499         677.256         832.382 
       0.257832         796.971          651.64         801.199 
       0.263955         771.853         630.622         776.139 
       0.270079         745.602         611.355         755.718 
        0.27624         737.814         591.462         733.373 
       0.282372         707.606         569.843          715.99 
        0.28843         691.997         546.563         695.792 
       0.294538         657.755          521.88         675.945 
       0.300721         652.933         497.038         655.043 
        0.30691         622.339         473.647         638.036 
       0.313033         609.162         452.992         613.532 
       0.319153         590.899         435.166         594.912 
       0.325316          573.38         419.908         581.443 
        0.33145         557.489         406.724         560.486 
       0.337538         549.634         394.803         548.425 
       0.343633         532.871         383.195         542.874 
       0.349808         515.467         371.234         532.938 
       0.355968         510.756         358.811          523.11 
       0.362074         501.139         346.159         510.613 
       0.368217         487.078         333.402         494.609 
       0.374374         467.183         321.022         483.184 
       0.380519         463.464         309.475         470.634 
       0.386598         451.853         299.031         463.448 
       0.392688         448.767          289.62         450.055 
        0.39888         435.877         280.967         441.893 
       0.405048         426.947         273.018         436.001 
       0.411186         418.932         265.511          424.79 
       0.417313         411.321         258.164         416.108 
       0.423458         403.583         250.797         409.854 
       0.429607         395.564          243.42          401.87 
       0.435692         386.144         236.143         393.328 
       0.441815         382.969          228.97         389.579 
       0.447964         374.783         222.059         382.015 
       0.454126         363.803         215.511         371.427 
       0.460267         358.511           209.4         368.857 
       0.466387         354.525         203.736         361.454 
        0.47254         347.014         198.393         356.048 
       0.478662         345.888         193.335         349.276 
       0.484765         334.902         188.471         342.169 
       0.490885         331.185         183.716         337.768 
       0.497035         325.288         179.011         333.776 
       0.503198           319.4         174.359         328.751 
       0.509342         316.699         169.821         324.556 
       0.515458         312.885         165.438         321.319 
       0.521598         306.545         161.199         315.006 
       0.527764         301.364         157.122         310.846 
       0.533884         298.608         153.267          306.71 
           0.54         294.463         149.605         301.814 
       0.546137         292.901          146.09         298.367 
       0.552299          286.91         142.688         293.584 
       0.558452          284.43         139.391         290.179 
       0.564573         279.983         136.196         287.726 
       0.570708         274.897         133.074          284.65 
       0.576825         270.634         130.036         279.038 
       0.582926         267.934         127.078         276.018 
       0.589034         265.085           124.2         272.872 
       0.595184         262.275         121.394         268.197 
       0.601379         259.434         118.673         266.293 
       0.607522         254.742         116.077          262.76 
       0.613639         253.286         113.584         260.582 
       0.619772           247.6         111.166         258.347 
       0.625918         246.262         108.815         254.712 
       0.632068          242.63         106.527         251.027 
       0.638161         241.492         104.322         249.629 
         0.6443         237.523         102.159         246.854 
       0.650464         235.077         100.046          242.34 
       0.656582          233.46          98.004         240.437 
       0.662703         231.492         96.0161         238.772 
       0.668861         227.426         94.0715         236.197 
       0.675024         224.686         92.1803         233.588 
       0.681124         223.789         90.3631         230.634 
       0.687237         220.713         88.5957         228.323 
       0.693381         217.427         86.8716         225.898 
       0.699536         215.783         85.1934         224.028 
       0.705665         214.562         83.5681          222.36 
       0.711789         211.498         81.9869         220.017 
       0.717957          210.48         80.4344           218.1 
        0.72409         207.948         78.9285         216.589 
       0.730186         205.219         77.4684         214.577 
       0.736317         203.277         76.0361         211.975 
       0.742472         202.144         74.6343         209.976 
       0.748622         200.493         73.2694         207.798 
        0.75476         198.771         71.9424         206.802 
       0.760888         196.025         70.6518         203.966 
       0.767043         195.629         69.3891         202.778 
       0.773185         193.316          68.161         201.348 
       0.779291          189.88         66.9706         199.074 
       0.785407         189.381         65.8074         197.258 
       0.791564         187.473          64.665         195.906 
       0.797719         185.088         63.5502         194.778 
       0.803834         184.085         62.4687         192.977 
       0.809972         182.471         61.4082         191.362 
       0.816124         182.341         60.3699          189.78 
       0.822261         179.775         59.3583         188.241 
       0.828378         178.149         58.3729         186.299 
       0.834502         177.988         57.4091          185.07 
       0.840667         175.028         56.4609         183.774 
       0.846816         173.731         55.5369         182.424 
       0.852925         172.934         54.6397         180.992 
       0.859047         170.989         53.7606         179.689 
       0.865192         169.572         52.8982         178.202 
       0.871341         168.018         52.0544         176.675 
       0.877463          166.78         51.2329         175.726 
       0.883569         165.869         50.4315         174.759 
       0.889708         164.405         49.6432         173.127 
       0.895864         162.429         48.8699         172.222 
       0.902008         161.768         48.1148         170.576 
       0.908149         161.023         47.3762         169.111 
       0.914301         159.124          46.652          168.17 
       0.920448         157.933         45.9437         166.865 
       0.926574          157.09         45.2526         165.434 
       0.932687         156.547         44.5773         164.386 
       0.938823         154.437         43.9134         163.566 
       0.944975         153.074         43.2616         162.623 
       0.951105         152.416         42.6255          161.25 
       0.957225         150.737         42.0033         160.059 
       0.963368         149.193         41.3915         158.635 
       0.969511         148.813         40.7919         157.638 
       0.975621           147.9         40.2076          157.52 
       0.981748         147.308         39.6332         156.229 
       0.987916         145.487         39.0665          155.21 
        0.99406         144.527         38.5131         154.101 
        1.00019         144.171         37.9716         152.895 
        1.00632         142.746         37.4411         151.655 
        1.01246         141.863           36.92          150.42 
        1.01859         140.738         36.4097         150.118 
        1.02471         139.732         35.9097         149.565 
        1.03085         138.436         35.4175         148.393 
        1.03698         137.715         34.9355         147.417 
        1.04314          136.55         34.4606         146.455 
        1.04929         135.611         33.9957         145.641 
        1.05541         134.949         33.5412         144.854 
        1.06154         134.023          33.094         144.016 
        1.06769         133.853         32.6542         143.269 
        1.07382         132.725          32.224          142.36 
        1.07993         131.551         31.8025         141.407 
        1.08607         130.714         31.3868         140.745 
        1.09222         130.172         30.9782         140.068 
        1.09836         129.021         30.5774         139.121 
        1.10449         127.952         30.1842         138.283 
        1.11063         127.093         29.7975         137.155 
        1.11677         126.692         29.4177         136.447 
         1.1229         125.383         29.0452         135.804 
        1.12903         124.655         28.6789         134.995 
        1.13518         124.554         28.3187         134.253 
        1.14131          123.19         27.9648         133.271 
        1.14745          122.63         27.6172         132.729 
        1.15359         121.736         27.2755          131.88 
        1.15973         121.327         26.9395         131.386 
        1.16584         120.118         26.6106         130.179 
        1.17197          119.55         26.2868         129.758 
        1.17811          118.77         25.9674         129.253 
        1.18424         118.182         25.6542         128.342 
        1.19038         117.724         25.3453         127.786 
        1.19652         116.838         25.0417         127.143 
        1.20267         116.022          24.743         126.368 
        1.20881          115.12         24.4493         125.764 
        1.21495         114.571         24.1609         124.873 
        1.22108         113.948         23.8772         124.573 
         1.2272         112.978         23.5987         123.564 
        1.23334         112.469          23.324         123.278 
        1.23949         111.402         23.0531         122.354 
        1.24562         110.994         22.7873         121.536 
        1.25174             110          22.526         121.074 
        1.25789         109.605         22.2681         120.465 
        1.26402         109.064         22.0147         119.822 
        1.27014         108.301         21.7659         119.667 
        1.27628          107.74         21.5201         119.206 
        1.28244          107.09         21.2777         118.046 
        1.28858         106.701         21.0394         117.395 
        1.29471         105.611         20.8053         116.966 
        1.30084         105.184          20.575         116.242 
        1.30697         104.511         20.3478         115.806 
        1.31312         104.155         20.1237         115.083 
        1.31925         103.201         19.9038         114.534 
        1.32537           102.8         19.6873         114.154 
        1.33151          101.84         19.4733         113.439 
        1.33765         101.451         19.2627          112.97 
        1.34378         100.792         19.0555         112.404 
        1.34992         100.632         18.8513         111.765 
        1.35606         99.8753         18.6497          111.16 
         1.3622         98.9807         18.4514         110.705 
        1.36833         98.6947         18.2564         110.042 
        1.37445         97.9945         18.0643         109.537 
        1.38059         97.5258         17.8745         109.017 
        1.38675         96.7874         17.6869         108.363 
        1.39288         96.3865         17.5027         107.834 
        1.39901         96.0226         17.3213         107.512 
        1.40515         95.3425         17.1421         107.131 
         1.4113         94.5508         16.9654         106.646 
        1.41742         94.4626         16.7919         106.122 
        1.42355         93.6502         16.6205         105.566 
         1.4297         93.1674          16.451         105.065 
        1.43585          92.428          16.284         104.406 
        1.44198         92.1729         16.1199         104.015 
        1.44809         91.5302         15.9584         103.562 
        1.45423         90.9225         15.7985         102.977 
        1.46036          90.726         15.6411         102.537 
        1.46649           90.07         15.4858         102.219 
        1.47263         89.5361         15.3324         101.776 
        1.47877         89.2841         15.1813         101.029 
        1.48491         88.4632         15.0319         100.752 
        1.49104         88.1742         14.8849         100.465 
        1.49718         87.5366         14.7397         99.6658 
        1.50333         87.0667         14.5962         99.2159 
        1.50947         86.6148          14.455         98.8379 
         1.5156         86.1975         14.3158         98.3952 
        1.52172         85.5813         14.1784          98.025 
        1.52787         85.3653         14.0426         97.4937 
          1.534         84.7584         13.9088         97.1098 
        1.54013         84.1658         13.7768         96.6708 
        1.54627         83.8585         13.6463         96.2237 
        1.55241         83.3004         13.5175         95.8515 
        1.55855         83.0463         13.3905         95.3507 
        1.56467         82.4791         13.2655         94.9233 
         1.5708         82.0164         13.1418         94.5516 
        1.57695         81.8115         13.0194          94.141 
        1.58308         80.9271         12.8989         93.6935 
        1.58922         80.8264         12.7798         93.2385 
        1.59535         80.4486         12.6623         92.8643 
         1.6015         79.8302         12.5461         92.4084 
        1.60764         79.4645         12.4315         92.0409 
        1.61376         79.1073         12.3185         91.8568 
        1.61989          78.611         12.2069         91.4368 
        1.62604         78.3263         12.0965         90.8083 
        1.63218         77.9006         11.9874          90.393 
        1.63831         77.2465           11.88         90.2158 
        1.64444         76.9883         11.7738         89.7545 
        1.65059         76.4467         11.6687         89.2154 
        1.65673         75.9539          11.565         88.9067 
        1.66285         75.7156         11.4629         88.6393 
        1.66898         75.2696         11.3619         88.1987 
        1.67512         74.8045          11.262         87.8323 
        1.68127         74.4464         11.1632          87.394 
         1.6874         74.0792         11.0657         86.9868 
        1.69353         73.6788         10.9695         86.7599 
        1.69967          73.182         10.8743         86.3685 
        1.70581         73.0006         10.7802          85.914 
        1.71193         72.7222         10.6875         85.5738 
        1.71806         72.0261         10.5958         85.3695 
        1.72421         71.7704          10.505         84.9901 
        1.73035          71.417         10.4153         84.4961 
        1.73649         71.0243         10.3267         84.0894 
        1.74262         70.6965         10.2392         83.8783 
        1.74876           70.35         10.1526         83.5299 
        1.75489         69.7918         10.0673         83.0868 
        1.76101         69.6174         9.98293         82.7042 
        1.76715         69.1377         9.89943         82.3736 
        1.77329         68.8323         9.81678         82.0938 
        1.77943         68.3421         9.73504         81.7715 
        1.78557         68.1688         9.65436         81.3658 
        1.79171         67.7282         9.57458         81.0413 
        1.79785         67.4374         9.49568         80.7753 
        1.80399         67.1251         9.41769         80.4533 
        1.81012         66.8432         9.34068         80.0692 
        1.81625         66.2864         9.26457         79.7013 
        1.82239         66.0365         9.18919         79.4069 
        1.82853         65.7155         9.11469         79.1539 
        1.83466         65.3565         9.04109         78.8075 
        1.84078         65.0283         8.96837         78.4536 
        1.84692          64.558         8.89634         78.2792 
        1.85306         64.2888         8.82501         77.9408 
         1.8592          63.828         8.75458         77.5156 
        1.86533         63.6225         8.68496         77.2266 
        1.87147         63.1783         8.61601         76.7797 
        1.87761         62.9272         8.54778         76.4358 
