# k  (h/Mpc)    Pcb(k)  (Mpc/h)^3    Pcb_linear(k) (Mpc/h)^3    Pcb_NL(k) (Mpc/h)^3   ShotnoiseSubtracted = false
     0.00783031         15459.7         15680.9         15603.8 
       0.013688         19783.8         19597.6         19462.2 
       0.019231         20130.3           20101         19920.3 
      0.0249154         18387.3         18805.3         18613.3 
      0.0312784         16210.2           16422         16225.4 
      0.0375637           13972           13996         13823.5 
      0.0433917         11873.2         12111.1           11930 
      0.0492413           10609         10695.6         10528.5 
      0.0555754         9333.91         9643.17         9495.09 
      0.0619321         8931.57         8925.23         8780.08 
       0.067871         8138.54         8391.54         8256.37 
      0.0738098         7614.76          7859.7         7649.47 
      0.0800417         6913.86         7228.54         7043.15 
      0.0862327         6324.96         6524.64         6434.11 
      0.0921407         5772.45         5830.46         5769.75 
      0.0982031         5105.53         5163.72         5208.52 
       0.104506         4706.18         4579.76         4707.65 
       0.110769         4278.37         4138.67         4231.18 
       0.116806         3981.37         3839.36         3923.28 
       0.122832         3779.48         3634.92         3724.58 
       0.129052         3528.05         3480.09          3557.5 
       0.135211         3383.07         3339.65         3406.41 
       0.141259         3272.23         3182.79         3282.34 
       0.147318         3108.26         2993.41         3133.93 
       0.153489         2858.21         2772.35         2885.79 
       0.159709         2694.15         2539.65         2711.31 
       0.165845         2568.17         2323.01         2572.03 
       0.171974         2402.21         2137.44         2395.85 
       0.178125         2270.49         1990.89         2293.75 
       0.184229         2160.71         1883.73          2164.6 
        0.19034         2045.44         1806.07         2075.86 
       0.196428         2011.56         1745.53         1994.52 
       0.202534         1944.25         1688.65         1942.66 
       0.208729         1864.38         1624.58          1857.8 
       0.214876         1792.91         1549.86          1823.6 
       0.220989         1732.87         1465.54         1767.71 
       0.227147         1656.38         1375.95         1702.74 
        0.23329         1587.16         1289.12         1643.25 
       0.239377            1558         1211.81         1567.86 
       0.245482         1459.03         1146.64         1490.27 
       0.251667         1449.17         1093.91         1448.54 
       0.257832         1391.88         1052.53         1397.09 
       0.263955         1347.82         1018.58         1357.72 
       0.270079         1303.15         987.459         1324.35 
        0.27624         1289.87         955.329         1289.41 
       0.282372         1236.57         920.411         1268.42 
        0.28843         1228.39         882.806         1242.17 
       0.294538         1167.89         842.941         1206.71 
       0.300721         1160.53         802.816         1168.82 
        0.30691         1114.26         765.035         1147.96 
       0.313033         1092.01         731.672         1107.28 
       0.319153         1072.84         702.884         1073.53 
       0.325316         1037.96         678.237         1053.44 
        0.33145         1015.19          656.94          1016.6 
       0.337538         996.945         637.686         1000.67 
       0.343633         974.601         618.938         991.415 
       0.349808         942.274         599.613         976.869 
       0.355968         935.775         579.552         960.683 
       0.362074         926.072         559.115          942.62 
       0.368217         897.355         538.511          918.16 
       0.374374         863.114         518.518         899.297 
       0.380519           864.1         499.864         879.065 
       0.386598          839.97         482.995         867.305 
       0.392688         837.115         467.793         845.499 
        0.39888         812.468         453.818         832.044 
       0.405048         801.977         440.979         818.749 
       0.411186         790.599         428.854         803.609 
       0.417313         774.167         416.987         793.351 
       0.423458         760.645         405.088         780.769 
       0.429607         750.557          393.17         767.708 
       0.435692         734.702          381.42          751.46 
       0.441815         728.466         369.833         747.681 
       0.447964         712.932         358.669         736.816 
       0.454126         705.738         348.092         715.655 
       0.460267         688.899         338.226         713.556 
       0.466387          681.08         329.073         700.588 
        0.47254         675.052         320.445         690.713 
       0.478662         669.175         312.274         680.071 
       0.484765         649.082         304.419         671.994 
       0.490885         645.043         296.738         660.299 
       0.497035         631.413         289.138         654.251 
       0.503198         627.269         281.625         646.674 
       0.509342         620.978         274.294          635.92 
       0.515458         616.795         267.216         631.383 
       0.521598         601.278         260.369         624.232 
       0.527764         590.533         253.783         617.752 
       0.533884         588.748         247.557         609.961 
           0.54         582.385         241.642         601.865 
       0.546137         577.888         235.964         594.816 
       0.552299         569.123         230.469         586.563 
       0.558452         565.149         225.144         581.892 
       0.564573         557.611         219.984         577.112 
       0.570708         551.237         214.941         570.543 
       0.576825         536.431         210.033         562.024 
       0.582926         538.181         205.257         557.808 
       0.589034         532.653         200.607         549.417 
       0.595184         528.037         196.076         543.761 
       0.601379         520.123          191.68          538.65 
       0.607522         513.177         187.487         530.934 
       0.613639         512.748          183.46         529.664 
       0.619772         501.535         179.555         527.914 
       0.625918         499.104         175.758         519.795 
       0.632068          491.92         172.063         516.526 
       0.638161         490.071           168.5         509.229 
         0.6443         481.471         165.007         505.331 
       0.650464         479.057         161.594         497.437 
       0.656582         475.352         158.296         494.775 
       0.662703         473.539         155.085         491.416 
       0.668861         465.448         151.944         488.842 
       0.675024         461.531         148.889         485.109 
       0.681124         458.147         145.954         477.318 
       0.687237         454.226           143.1         473.069 
       0.693381          448.05         140.315         468.898 
       0.699536         441.531         137.604          465.78 
       0.705665         440.585         134.979         460.073 
       0.711789          438.08         132.425         457.063 
       0.717957         433.986         129.917         456.097 
        0.72409         431.417         127.485          450.97 
       0.730186         425.107         125.127         446.513 
       0.736317         422.257         122.813          443.13 
       0.742472         419.884         120.549         439.559 
       0.748622         415.426         118.345          435.52 
        0.75476         409.687         116.201         436.212 
       0.760888         405.654         114.117         430.272 
       0.767043         406.356         112.077         425.695 
       0.773185         401.707         110.094         423.153 
       0.779291         396.909         108.171           419.4 
       0.785407         394.758         106.292         416.994 
       0.791564         389.967         104.447         414.828 
       0.797719          387.75         102.646         410.722 
       0.803834         383.595         100.899         408.731 
       0.809972         382.797         99.1864         406.031 
       0.816124         381.702         97.5093         400.853 
       0.822261         376.217         95.8754         399.218 
       0.828378         374.284         94.2838         396.144 
       0.834502         370.091          92.727         394.659 
       0.840667         367.185         91.1955         391.101 
       0.846816         365.504         89.7031         388.386 
       0.852925         362.901         88.2539         386.159 
       0.859047         360.923          86.834         382.738 
       0.865192         356.462         85.4411         379.776 
       0.871341         353.659         84.0781         377.885 
       0.877463         352.985         82.7513         375.595 
       0.883569         349.987         81.4568         374.032 
       0.889708         347.098         80.1836         370.173 
       0.895864         345.044         78.9346         368.259 
       0.902008          342.24         77.7149         365.596 
       0.908149         338.922          76.522         362.507 
       0.914301         336.248         75.3522         359.659 
       0.920448         334.315         74.2081          358.39 
       0.926574         329.926         73.0919         355.691 
       0.932687         330.037         72.0012         353.187 
       0.938823         326.226         70.9289         352.516 
       0.944975          326.15         69.8761         349.426 
       0.951105         322.544         68.8486         346.861 
       0.957225         320.452         67.8436          345.13 
       0.963368         316.637         66.8555         343.084 
       0.969511         315.453         65.8871         340.957 
       0.975621         313.269         64.9432         338.666 
       0.981748         311.913         64.0155         336.806 
       0.987916         310.024         63.1002         335.239 
        0.99406         305.132         62.2063         332.943 
        1.00019         304.236         61.3317         329.951 
        1.00632         302.726         60.4747         327.996 
        1.01246         300.107          59.633         325.654 
        1.01859         300.505         58.8088          323.76 
        1.02471          295.74         58.0013         322.438 
        1.03085         294.158         57.2062         321.194 
        1.03698         293.164         56.4278         319.863 
        1.04314         290.244         55.6607         317.449 
        1.04929         288.002         54.9097         314.784 
        1.05541         288.447         54.1757         312.979 
        1.06154         283.491         53.4533         311.497 
        1.06769          282.92          52.743         309.425 
        1.07382         280.823         52.0481          307.77 
        1.07993         278.971         51.3673         306.259 
        1.08607         278.182         50.6959         303.908 
        1.09222         275.406          50.036         302.372 
        1.09836         273.484         49.3885          301.27 
        1.10449         271.072         48.7534         299.578 
        1.11063         268.507         48.1288         297.249 
        1.11677         268.251         47.5154         295.701 
         1.1229         266.238         46.9138         294.083 
        1.12903          264.56         46.3221         292.662 
        1.13518         262.458         45.7402         290.698 
        1.14131         260.697         45.1687         289.151 
        1.14745         259.816         44.6073         287.222 
        1.15359         257.809         44.0553         286.353 
        1.15973         255.867         43.5126         284.602 
        1.16584         254.076         42.9814         283.318 
        1.17197          254.08         42.4583          282.02 
        1.17811         250.738         41.9424         280.096 
        1.18424         249.292         41.4366          278.69 
        1.19038         248.479         40.9377         277.807 
        1.19652         246.256         40.4473         275.678 
        1.20267         245.657         39.9649         274.278 
        1.20881         243.604         39.4905         272.877 
        1.21495          241.92         39.0246         271.205 
        1.22108           240.5         38.5664         269.529 
         1.2272         238.915         38.1166         268.179 
        1.23334         237.661         37.6729         266.819 
        1.23949         235.812         37.2353         265.618 
        1.24562         234.816         36.8059         263.951 
        1.25174         233.196          36.384          262.69 
        1.25789         231.383         35.9674         261.178 
        1.26402         229.352         35.5581         260.474 
        1.27014          228.07         35.1561         258.566 
        1.27628         226.812         34.7593         258.034 
        1.28244         226.496         34.3678         256.821 
        1.28858         224.103         33.9828         255.175 
        1.29471          222.61         33.6047         253.206 
        1.30084         221.288         33.2326         252.015 
        1.30697         219.891         32.8657         251.096 
        1.31312         217.773         32.5038         249.619 
        1.31925         217.088         32.1485         248.422 
        1.32537         216.254         31.7989         246.892 
        1.33151         214.125         31.4533          245.81 
        1.33765         212.663          31.113         244.807 
        1.34378         211.974         30.7785         243.476 
        1.34992         210.705         30.4486         241.999 
        1.35606         210.418         30.1229         240.567 
         1.3622         208.071         29.8026         239.837 
        1.36833         206.353         29.4877         238.881 
        1.37445         205.566         29.1775         236.856 
        1.38059         203.759         28.8708          236.21 
        1.38675         202.987         28.5678         235.383 
        1.39288         201.727         28.2704         233.475 
        1.39901         201.063         27.9773         232.378 
        1.40515         199.136         27.6878         231.179 
         1.4113         198.129         27.4025         229.947 
        1.41742         196.632         27.1223         229.059 
        1.42355         195.785         26.8455         227.695 
         1.4297             194         26.5717         226.517 
        1.43585         193.102         26.3019         226.028 
        1.44198         192.088         26.0368         224.694 
        1.44809         191.065         25.7759         223.698 
        1.45423         189.987         25.5177         221.983 
        1.46036         188.692         25.2634         221.163 
        1.46649         187.217         25.0126         220.422 
        1.47263         186.182         24.7649         219.072 
        1.47877         184.981         24.5207         217.741 
        1.48491         183.313         24.2795         216.528 
        1.49104         182.872          24.042         215.861 
        1.49718         181.164         23.8075         215.171 
        1.50333         180.486         23.5758          213.94 
        1.50947         179.365         23.3476         212.941 
         1.5156         177.886         23.1228         211.905 
        1.52172         177.236          22.901         210.528 
        1.52787         175.569         22.6816         209.825 
          1.534         175.223         22.4654         208.853 
        1.54013         173.871         22.2522         207.836 
        1.54627         172.736         22.0415         207.054 
        1.55241          171.57         21.8334         206.104 
        1.55855         170.587         21.6283         204.971 
        1.56467         169.361         21.4264         203.859 
         1.5708         168.641         21.2265         202.895 
        1.57695           167.7         21.0289         201.976 
        1.58308         166.719         20.8343         200.953 
        1.58922         165.527          20.642         199.976 
        1.59535          164.24         20.4522         199.279 
         1.6015         163.626         20.2645         198.441 
        1.60764         162.525         20.0793         197.349 
        1.61376         161.553         19.8969         196.378 
        1.61989         160.636         19.7166         195.484 
        1.62604         159.545         19.5382         194.407 
        1.63218         158.718         19.3621         193.539 
        1.63831         157.497         19.1885          192.87 
        1.64444         156.814         19.0171         191.914 
        1.65059         155.755         18.8473         191.081 
        1.65673         154.592         18.6798         190.175 
        1.66285         153.895         18.5148         189.207 
        1.66898         152.831         18.3517         188.327 
        1.67512         152.481         18.1903         187.548 
        1.68127         150.852         18.0307         186.716 
         1.6874         150.073         17.8734          185.86 
        1.69353         149.253          17.718         185.062 
        1.69967         148.115         17.5641         184.185 
        1.70581         147.534         17.4121         183.432 
        1.71193         146.438         17.2625         182.642 
        1.71806         145.784         17.1143         181.514 
        1.72421         144.838         16.9676         180.764 
        1.73035         144.303         16.8227         180.046 
        1.73649         143.371         16.6796         179.137 
        1.74262         142.305         16.5383         178.395 
        1.74876         141.377         16.3985          177.61 
        1.75489         140.623         16.2606         176.828 
        1.76101         139.501         16.1244         176.151 
        1.76715         139.105         15.9895         175.468 
        1.77329         138.315          15.856         174.641 
        1.77943         137.406          15.724         173.745 
        1.78557         136.713         15.5937         172.929 
        1.79171         135.856         15.4648         172.219 
        1.79785         134.972         15.3374         171.462 
        1.80399         134.121         15.2114         170.616 
        1.81012         133.352          15.087         170.093 
        1.81625         132.776         14.9641         169.391 
        1.82239         131.846         14.8424         168.397 
        1.82853         131.222          14.722         167.652 
        1.83466         130.196         14.6031          166.86 
        1.84078         129.717         14.4857         166.094 
        1.84692         128.478         14.3693         165.678 
        1.85306          128.26         14.2541         164.807 
         1.8592         127.317         14.1404         163.835 
        1.86533         126.488         14.0279         163.493 
        1.87147         125.566         13.9166         163.002 
