# k  (h/Mpc)    P(k)  (Mpc/h)^3    P_linear(k)  (Mpc/h)^3     P_NL(k)  ShotnoiseSubtracted = false
     0.00783031         10005.6         10135.2         10088.4 
       0.013688         12765.3           12676         12600.6 
       0.019231         13025.8         13004.3         12907.2 
      0.0249154           11959         12167.3         12073.7 
      0.0312784         10534.4         10625.9           10541 
      0.0375637         9061.58         9056.42         8983.62 
      0.0433917         7731.33         7836.92         7762.52 
      0.0492413         6891.55         6921.11         6853.38 
      0.0555754         6097.98         6240.13         6178.88 
      0.0619321         5800.68         5775.59         5714.65 
       0.067871         5319.25         5430.27         5372.56 
      0.0738098         4975.74         5086.13         4995.51 
      0.0800417         4530.41         4677.72         4597.82 
      0.0862327         4133.67         4222.23            4185 
      0.0921407         3751.75         3773.02         3749.02 
      0.0982031          3312.4         3341.56         3365.78 
       0.104506         3030.74         2963.68         3025.19 
       0.110769         2748.82         2678.24         2720.98 
       0.116806         2545.83         2484.55         2523.21 
       0.122832         2422.04         2352.25         2394.15 
       0.129052         2270.68         2252.06         2287.31 
       0.135211         2178.73         2161.18         2193.15 
       0.141259         2101.64         2059.68         2105.61 
       0.147318         1992.09         1937.12         2005.17 
       0.153489         1832.46         1794.07         1846.49 
       0.159709         1717.43         1643.49         1723.16 
       0.165845         1621.56         1503.29         1621.63 
       0.171974         1505.48          1383.2         1502.78 
       0.178125         1419.57         1288.37         1430.36 
       0.184229         1353.45         1219.02         1351.86 
        0.19034         1270.76         1168.77         1295.16 
       0.196428         1252.86         1129.59         1241.65 
       0.202534         1217.55         1092.78         1207.61 
       0.208729         1164.17         1051.32         1156.94 
       0.214876         1110.03         1002.96         1131.98 
       0.220989         1073.27         948.397         1090.21 
       0.227147         1016.46         890.422         1041.27 
        0.23329         970.489         834.231         1001.09 
       0.239377         945.048         784.201         953.151 
       0.245482         880.311         742.024         902.413 
       0.251667         870.787         707.902         875.587 
       0.257832         838.392         681.127          842.87 
       0.263955         812.052         659.159         816.674 
       0.270079         784.404          639.02         795.338 
        0.27624         776.388         618.226          772.06 
       0.282372         744.469         595.629         754.127 
        0.28843         729.064         571.295         733.282 
       0.294538         692.809         545.495         712.466 
       0.300721         688.035         519.529         690.433 
        0.30691         656.073          495.08         673.039 
       0.313033         642.381         473.491          647.35 
       0.319153          623.83         454.858         627.712 
       0.325316         605.118          438.91         613.671 
        0.33145         588.642         425.129          591.57 
       0.337538         580.261         412.668         579.161 
       0.343633         562.809         400.535         573.462 
       0.349808         544.297         388.033         563.119 
       0.355968         539.651         375.047          552.87 
       0.362074         529.919         361.823         539.887 
       0.368217         514.977         348.489         523.135 
       0.374374         493.742         335.549           511.2 
       0.380519         490.326          323.48         498.048 
       0.386598         477.981         312.562         490.703 
       0.392688         475.026         302.725         476.458 
        0.39888         461.256         293.681         468.095 
       0.405048         452.027         285.373         461.813 
       0.411186         443.782         277.526         450.053 
       0.417313         435.636         269.846         441.163 
       0.423458         427.526         262.146         434.641 
       0.429607          419.26         254.435         426.162 
       0.435692         409.412         246.829         417.132 
       0.441815         406.054         239.331         413.286 
       0.447964         397.303         232.107         405.416 
       0.454126         386.355         225.263         394.204 
       0.460267         380.506         218.876          391.64 
       0.466387         376.291         212.955         383.847 
        0.47254         368.495         207.371         378.208 
       0.478662         367.378         202.084         371.035 
       0.484765         355.621             197         363.733 
       0.490885          351.85         192.029         358.953 
       0.497035         345.443         187.111         354.781 
       0.503198         339.593         182.249         349.522 
       0.509342         336.796         177.506         345.047 
       0.515458         332.869         172.924         341.681 
       0.521598         325.897         168.494         335.164 
       0.527764         320.299         164.232         330.881 
       0.533884         317.658         160.203         326.481 
           0.54         313.287         156.375          321.28 
       0.546137          311.69         152.701         317.586 
       0.552299         305.299         149.145         312.646 
       0.558452         302.893         145.698         309.136 
       0.564573         298.189         142.359         306.559 
       0.570708          292.86         139.096         303.368 
       0.576825         288.033          135.92         297.425 
       0.582926          285.47         132.829         294.276 
       0.589034         282.525          129.82         290.809 
       0.595184         279.585         126.888         286.016 
       0.601379         276.464         124.043         283.863 
       0.607522         271.648         121.329         280.184 
       0.613639         270.123         118.724         278.006 
       0.619772         264.003         116.196         275.854 
       0.625918         262.767         113.739         271.815 
       0.632068         258.779         111.348         268.037 
       0.638161         257.634         109.042         266.443 
         0.6443          253.34         106.782         263.584 
       0.650464         250.773         104.573         258.773 
       0.656582         249.177         102.439         256.747 
       0.662703         247.265         100.361         255.145 
       0.668861         242.851         98.3283         252.449 
       0.675024          239.96         96.3515         249.752 
       0.681124         238.971         94.4521         246.413 
       0.687237         235.878         92.6047         244.038 
       0.693381         232.343         90.8026         241.514 
       0.699536         230.505         89.0484         239.583 
       0.705665         229.045         87.3497         237.633 
       0.711789         226.138         85.6969         235.361 
       0.717957         224.938         84.0741         233.398 
        0.72409          222.33            82.5         231.671 
       0.730186         219.533         80.9739         229.522 
       0.736317         217.342         79.4768         226.814 
       0.742472         216.158         78.0116         224.648 
       0.748622         214.392         76.5849         222.401 
        0.75476         212.542         75.1979          221.53 
       0.760888         209.651         73.8488         218.462 
       0.767043         209.383          72.529         217.169 
       0.773185         206.824         71.2454         215.586 
       0.779291         203.126         70.0011          213.16 
       0.785407         202.648         68.7853         211.347 
       0.791564         200.556         67.5911         209.858 
       0.797719         198.116         66.4259         208.607 
       0.803834         196.992         65.2954         206.851 
       0.809972          195.41          64.187         205.111 
       0.816124         195.286         63.1017         203.314 
       0.822261         192.498         62.0443         201.769 
       0.828378         190.798         61.0143         199.771 
       0.834502         190.571         60.0069         198.439 
       0.840667         187.446         59.0158          196.96 
       0.846816         186.124           58.05         195.637 
       0.852925         185.306         57.1122         194.109 
       0.859047         183.314         56.1933         192.738 
       0.865192         181.677         55.2919         191.116 
       0.871341          180.05         54.4099         189.551 
       0.877463         178.745         53.5513         188.532 
       0.883569         177.856         52.7135         187.528 
       0.889708         176.205         51.8896         185.724 
       0.895864         174.035         51.0813         184.733 
       0.902008         173.419         50.2921          183.07 
       0.908149         172.654           49.52         181.491 
       0.914301         170.544         48.7631         180.454 
       0.920448         169.282         48.0227         179.017 
       0.926574         168.381         47.3003         177.579 
       0.932687         167.879         46.5945         176.475 
       0.938823         165.668         45.9006         175.615 
       0.944975         164.246         45.2193         174.622 
       0.951105         163.535         44.5543         173.171 
       0.957225         161.782          43.904         171.867 
       0.963368         159.999         43.2645         170.407 
       0.969511         159.551         42.6378          169.29 
       0.975621         158.495          42.027         169.078 
       0.981748         158.034         41.4266         167.789 
       0.987916         156.088         40.8343         166.679 
        0.99406         154.975         40.2559         165.531 
        1.00019         154.712         39.6899         164.251 
        1.00632         153.144         39.1353         162.906 
        1.01246         152.186         38.5906         161.591 
        1.01859          151.18         38.0572         161.241 
        1.02471         149.895         37.5346         160.627 
        1.03085         148.493         37.0201         159.424 
        1.03698         147.762         36.5164         158.474 
        1.04314         146.523           36.02         157.367 
        1.04929          145.49          35.534          156.44 
        1.05541         144.905          35.059         155.595 
        1.06154         143.843         34.5915         154.684 
        1.06769         143.678         34.1319         153.924 
        1.07382         142.415         33.6821         152.924 
        1.07993         141.142         33.2416          151.92 
        1.08607         140.325         32.8071         151.208 
        1.09222         139.718           32.38         150.487 
        1.09836         138.479         31.9611         149.551 
        1.10449         137.247           31.55         148.652 
        1.11063         136.286         31.1458         147.474 
        1.11677         135.924         30.7489         146.654 
         1.1229         134.572         30.3596         145.942 
        1.12903         133.849         29.9767         145.126 
        1.13518         133.611         29.6001         144.313 
        1.14131         132.143         29.2302         143.271 
        1.14745         131.646         28.8669         142.699 
        1.15359         130.666         28.5098         141.802 
        1.15973         130.201         28.1585         141.177 
        1.16584         128.855         27.8147         139.899 
        1.17197         128.295         27.4763         139.492 
        1.17811         127.476         27.1424          138.94 
        1.18424         126.852         26.8151         137.911 
        1.19038         126.408         26.4922         137.389 
        1.19652         125.416         26.1749         136.724 
        1.20267         124.598         25.8627         135.841 
        1.20881         123.558         25.5557         135.199 
        1.21495         123.044         25.2542         134.283 
        1.22108         122.362         24.9576         133.916 
         1.2272         121.306         24.6666         132.791 
        1.23334         120.754         24.3795          132.51 
        1.23949         119.637         24.0963         131.611 
        1.24562         119.142         23.8184         130.654 
        1.25174         118.029         23.5453         130.183 
        1.25789         117.612         23.2757         129.505 
        1.26402         116.993         23.0109         128.803 
        1.27014         116.216         22.7508         128.609 
        1.27628         115.593         22.4939          128.15 
        1.28244             115         22.2406         126.958 
        1.28858         114.534         21.9915         126.245 
        1.29471         113.282         21.7468         125.743 
        1.30084         112.888          21.506         124.991 
        1.30697         112.141         21.2686         124.508 
        1.31312         111.784         21.0344         123.696 
        1.31925         110.735         20.8044         123.132 
        1.32537         110.279         20.5782          122.75 
        1.33151         109.243         20.3545         121.976 
        1.33765         108.893         20.1343         121.448 
        1.34378         108.167         19.9178         120.853 
        1.34992         107.987         19.7044         120.138 
        1.35606         107.174         19.4936         119.488 
         1.3622         106.241         19.2863         119.015 
        1.36833         105.838         19.0825         118.292 
        1.37445         105.123         18.8818         117.765 
        1.38059         104.665         18.6833          117.17 
        1.38675         103.859         18.4872         116.508 
        1.39288         103.473         18.2948         115.849 
        1.39901         103.037         18.1051          115.55 
        1.40515         102.274         17.9177         115.163 
         1.4113         101.432         17.7331         114.625 
        1.41742          101.28         17.5518         114.095 
        1.42355         100.463         17.3726         113.529 
         1.4297         99.9257         17.1955         112.954 
        1.43585         99.1109         17.0209         112.217 
        1.44198         98.8788         16.8493         111.799 
        1.44809          98.152         16.6805         111.336 
        1.45423         97.4974         16.5134           110.7 
        1.46036         97.2883         16.3488         110.209 
        1.46649         96.5654         16.1865         109.867 
        1.47263         96.0059         16.0262         109.413 
        1.47877         95.7157         15.8682         108.626 
        1.48491         94.7855         15.7121         108.285 
        1.49104          94.534         15.5584          108.01 
        1.49718         93.7941         15.4067         107.107 
        1.50333         93.3327         15.2567         106.617 
        1.50947         92.8668         15.1091         106.234 
         1.5156          92.356         14.9636         105.752 
        1.52172         91.7128           14.82         105.334 
        1.52787         91.4254         14.6781         104.778 
          1.534         90.7951         14.5382         104.359 
        1.54013          90.193         14.4002         103.906 
        1.54627         89.8525         14.2638         103.425 
        1.55241          89.227         14.1291         102.997 
        1.55855         88.9443         13.9964         102.484 
        1.56467         88.4149         13.8658         102.001 
         1.5708         87.8287         13.7364          101.61 
        1.57695         87.6398         13.6085         101.175 
        1.58308         86.7113         13.4826         100.656 
        1.58922         86.5883         13.3581          100.18 
        1.59535         86.1153         13.2353         99.7895 
         1.6015         85.5239         13.1139         99.2962 
        1.60764          85.085          12.994         98.8722 
        1.61376         84.7896          12.876         98.6643 
        1.61989         84.1807         12.7593         98.2506 
        1.62604         83.8845         12.6438         97.5567 
        1.63218         83.4105         12.5299         97.1007 
        1.63831          82.689         12.4176          96.909 
        1.64444         82.4359         12.3066          96.379 
        1.65059         81.8785         12.1968         95.8679 
        1.65673         81.2435         12.0884         95.5108 
        1.66285         81.0753         11.9816         95.1848 
        1.66898         80.5578         11.8761         94.7646 
        1.67512         80.0804         11.7716         94.3459 
        1.68127         79.6868         11.6683         93.8691 
         1.6874         79.2641         11.5665         93.4545 
        1.69353         78.8192         11.4659         93.1947 
        1.69967         78.3129         11.3663         92.7504 
        1.70581         78.0868          11.268         92.2751 
        1.71193         77.7851         11.1712         91.9212 
        1.71806         77.0847         11.0753         91.6486 
        1.72421         76.7508         10.9803         91.2438 
        1.73035         76.3719         10.8866         90.7338 
        1.73649         75.9647          10.794         90.2893 
        1.74262         75.5574         10.7025         90.0511 
        1.74876          75.223         10.6121         89.6745 
        1.75489         74.5977         10.5228         89.1929 
        1.76101         74.4161         10.4347         88.7769 
        1.76715         73.9011         10.3474         88.4455 
        1.77329         73.5799          10.261         88.1264 
        1.77943          73.049         10.1756         87.7621 
        1.78557         72.8672         10.0912         87.3655 
        1.79171         72.3604         10.0078         87.0259 
        1.79785         72.0423         9.92537         86.7208 
        1.80399         71.7168         9.84385         86.3673 
        1.81012         71.4155         9.76336         85.9323 
        1.81625         70.8441          9.6838         85.5399 
        1.82239         70.5782         9.60501          85.239 
        1.82853         70.2661         9.52714         84.9337 
        1.83466          69.817          9.4502         84.5563 
        1.84078         69.5362          9.3742         84.2022 
        1.84692         68.9882         9.29891         84.0017 
        1.85306         68.6617         9.22435         83.6235 
         1.8592         68.2207         9.15073         83.1757 
        1.86533         67.9591         9.07796         82.8743 
        1.87147         67.4601         9.00589         82.3844 
        1.87761          67.217         8.93458         82.0144 
