# k  (h/Mpc)    Pcb(k)  (Mpc/h)^3    Pcb_linear(k) (Mpc/h)^3    Pcb_NL(k) (Mpc/h)^3   ShotnoiseSubtracted = false
     0.00783031         843.932         851.858         848.074 
       0.013688         1065.38         1067.03         1062.34 
       0.019231         1095.09         1095.21         1089.88 
      0.0249154         1019.44         1024.96         1021.53 
      0.0312784         894.301         895.245         894.283 
      0.0375637         764.874         763.083         762.783 
      0.0433917         659.751         660.365         660.569 
      0.0492413         584.063         583.217         583.555 
      0.0555754         524.298         525.849         525.843 
      0.0619321         488.852         486.714         486.506 
       0.067871         456.424         457.621         457.112 
      0.0738098         427.027         428.625         427.746 
      0.0800417          391.75          394.21         393.474 
      0.0862327         354.666         355.827          355.56 
      0.0921407         317.829         317.972         317.994 
      0.0982031         280.881         281.613         282.134 
       0.104506         251.077         249.768         250.629 
       0.110769         226.863         225.713         226.367 
       0.116806          209.46          209.39         209.892 
       0.122832         199.053         198.241         198.713 
       0.129052         189.501         189.798         190.123 
       0.135211         181.609         182.139         182.424 
       0.141259         173.693         173.585         173.966 
       0.147318          163.91         163.256         163.919 
       0.153489         151.422         151.201         151.731 
       0.159709         139.061          138.51         139.315 
       0.165845         128.295         126.695         127.901 
       0.171974         117.356         116.574         117.724 
       0.178125         109.684         108.582         109.926 
       0.184229         104.089         102.737         104.029 
        0.19034         98.8499          98.502         99.6846 
       0.196428         96.1128         95.2002         96.1454 
       0.202534         93.5912         92.0979         93.0609 
       0.208729         89.5576         88.6038         89.5533 
       0.214876         85.0093         84.5284          85.756 
       0.220989          81.235         79.9297         81.2688 
       0.227147         75.7056         75.0437         76.4082 
        0.23329           71.13         70.3081         71.8715 
       0.239377         67.2185         66.0916          67.732 
       0.245482         63.3177         62.5373         64.0248 
       0.251667         60.9891         59.6616         61.2429 
       0.257832         58.6275         57.4048         58.9158 
       0.263955         56.7186         55.5533         56.9746 
       0.270079         55.0014         53.8558         55.2289 
        0.27624         53.5592         52.1035         53.4113 
       0.282372         51.5929         50.1991         51.6032 
        0.28843         49.3064         48.1481          49.593 
       0.294538         47.1514         45.9739         47.4712 
       0.300721         45.3229         43.7855         45.3737 
        0.30691         43.0276         41.7249         43.3399 
       0.313033           41.27         39.9053         41.4711 
       0.319153         39.2686         38.3353         39.9435 
       0.325316         38.4996          36.991         38.6233 
        0.33145         37.1576         35.8295           37.37 
       0.337538         36.1292         34.7794         36.2682 
       0.343633         34.9648         33.7569         35.2395 
       0.349808         33.9812         32.7029         34.2353 
       0.355968         32.9221         31.6088          33.275 
       0.362074         31.7615         30.4942         32.1004 
       0.368217         30.6634         29.3704         30.8769 
       0.374374         29.4909           28.28         29.8666 
       0.380519         28.6063         27.2626         28.8027 
       0.386598         27.7227         26.3426         27.9056 
       0.392688          27.004         25.5135         27.0727 
        0.39888         26.1547         24.7513         26.2846 
       0.405048         25.4959          24.051          25.516 
       0.411186         24.8498         23.3897         24.9576 
       0.417313         24.0471         22.7425         24.2469 
       0.423458         23.4274         22.0936          23.621 
       0.429607         22.7133         21.4435         22.9316 
       0.435692          22.043         20.8027         22.3262 
       0.441815         21.4748         20.1707         21.7551 
       0.447964         21.0051         19.5619         21.0929 
       0.454126         20.2221          18.985         20.4919 
       0.460267         19.7428         18.4469         19.9897 
       0.466387         19.1298         17.9477         19.4289 
        0.47254         18.7611         17.4771         18.9723 
       0.478662          18.362         17.0315         18.4993 
       0.484765         17.8338          16.603         18.0561 
       0.490885         17.4041         16.1841         17.7109 
       0.497035         17.1207         15.7696         17.3109 
       0.503198         16.6489         15.3599         16.8119 
       0.509342         16.2338         14.9601         16.4377 
       0.515458          15.803          14.574         16.1047 
       0.521598          15.464         14.2006         15.6356 
       0.527764         15.0714         13.8414         15.2522 
       0.533884         14.7899         13.5018         14.9094 
           0.54         14.4404         13.1792         14.5711 
       0.546137         14.1519         12.8695         14.2899 
       0.552299           13.86         12.5698         13.9173 
       0.558452         13.4443         12.2794         13.6318 
       0.564573         13.2387          11.998         13.4143 
       0.570708         12.9623         11.7229         13.1171 
       0.576825         12.6157         11.4552         12.8296 
       0.582926         12.3901         11.1948         12.5812 
       0.589034         12.0197         10.9411         12.3522 
       0.595184         11.8221          10.694         12.0111 
       0.601379           11.56         10.4543         11.8402 
       0.607522         11.3721         10.2256         11.5781 
       0.613639         11.2021          10.006         11.3407 
       0.619772         10.8969         9.79297         11.1527 
       0.625918         10.7686         9.58586         10.9154 
       0.632068         10.5859         9.38434         10.6902 
       0.638161         10.3156         9.19004         10.4897 
         0.6443         10.1017         8.99951         10.2775 
       0.650464         9.88013         8.81336         10.1277 
       0.656582         9.77977          8.6335         9.92978 
       0.662703         9.58747         8.45838          9.7349 
       0.668861           9.407         8.28707         9.58761 
       0.675024         9.20326         8.12047         9.38452 
       0.681124         9.03413         7.96038         9.21349 
       0.687237         8.88654         7.80469         9.02296 
       0.693381         8.74595         7.65281         8.85773 
       0.699536         8.50682         7.50497         8.71373 
       0.705665         8.39404          7.3618         8.61145 
       0.711789          8.2488          7.2225         8.44256 
       0.717957         8.09668         7.08573         8.27943 
        0.72409         7.95064         6.95307         8.15612 
       0.730186          7.8374         6.82445         8.00178 
       0.736317         7.74057         6.69827          7.8631 
       0.742472         7.60814         6.57479         7.77611 
       0.748622         7.46808         6.45455         7.63921 
        0.75476         7.29719         6.33765         7.49447 
       0.760888         7.20282         6.22395         7.38428 
       0.767043          7.1094         6.11271         7.27975 
       0.773185         6.95406         6.00453         7.17016 
       0.779291         6.88202         5.89966         7.05949 
       0.785407         6.76552          5.7972         6.93751 
       0.791564         6.65284         5.69655         6.83495 
       0.797719         6.54055         5.59835         6.71041 
       0.803834         6.47284         5.50308          6.6128 
       0.809972         6.38575         5.40966         6.54443 
       0.816124         6.24539         5.31819         6.42159 
       0.822261         6.14026         5.22907         6.32363 
       0.828378         6.06696         5.14226         6.23447 
       0.834502         6.00071         5.05736         6.13993 
       0.840667         5.87786         4.97383         6.05073 
       0.846816         5.77724         4.89243         5.97767 
       0.852925          5.7216         4.81339         5.89471 
       0.859047         5.63522         4.73595          5.8174 
       0.865192         5.56937         4.65998          5.7276 
       0.871341         5.49641         4.58564         5.65397 
       0.877463         5.41063         4.51328         5.56301 
       0.883569         5.31208         4.44268         5.49577 
       0.889708         5.22377         4.37324         5.42107 
       0.895864         5.16697         4.30512         5.33898 
       0.902008         5.09579          4.2386         5.27486 
       0.908149         5.03384         4.17353         5.19965 
       0.914301         4.94474         4.10973         5.13838 
       0.920448         4.87302         4.04733         5.05364 
       0.926574         4.80409         3.98646         5.00139 
       0.932687         4.75313         3.92697         4.90602 
       0.938823         4.68931         3.86848         4.87075 
       0.944975         4.62214         3.81106         4.79502 
       0.951105         4.56877         3.75502         4.72913 
       0.957225         4.53902         3.70021         4.68678 
       0.963368         4.46506         3.64632         4.61799 
       0.969511         4.40145          3.5935         4.56517 
       0.975621         4.33718         3.54202         4.49009 
       0.981748         4.29103         3.49142         4.43688 
       0.987916         4.23543          3.4415         4.39633 
        0.99406         4.16337         3.39275         4.34413 
        1.00019          4.1096         3.34505         4.29846 
        1.00632         4.07121         3.29831         4.23718 
        1.01246         4.02304          3.2524         4.19085 
        1.01859         3.96892         3.20745         4.13329 
        1.02471         3.92046         3.16341         4.07409 
        1.03085         3.87252         3.12004          4.0278 
        1.03698         3.81739         3.07759         3.98698 
        1.04314         3.77958         3.03575         3.93829 
        1.04929         3.72841         2.99479         3.89473 
        1.05541         3.68325         2.95476         3.85538 
        1.06154         3.64395         2.91536         3.81089 
        1.06769         3.61413         2.87662         3.77246 
        1.07382         3.55668         2.83872         3.72575 
        1.07993         3.50707         2.80159         3.67991 
        1.08607         3.48502         2.76497         3.64111 
        1.09222         3.43806         2.72898         3.59462 
        1.09836         3.40557         2.69367         3.55378 
        1.10449         3.36416         2.65903         3.51994 
        1.11063         3.32037         2.62496         3.47522 
        1.11677         3.28626         2.59151         3.44283 
         1.1229         3.24771         2.55869         3.41039 
        1.12903         3.20813         2.52643         3.37428 
        1.13518          3.1782         2.49469         3.33784 
        1.14131         3.12929         2.46352         3.29502 
        1.14745         3.08363          2.4329         3.25468 
        1.15359          3.0674         2.40279         3.23206 
        1.15973         3.02211         2.37319         3.19527 
        1.16584         2.99978         2.34422         3.16482 
        1.17197          2.9651         2.31569         3.12978 
        1.17811         2.93645         2.28755         3.09695 
        1.18424         2.91059         2.25997         3.06175 
        1.19038          2.8782         2.23276         3.03164 
        1.19652         2.84703         2.20601         3.00815 
        1.20267          2.8174          2.1797         2.96622 
        1.20881         2.78399         2.15383          2.9412 
        1.21495         2.76106         2.12842         2.91866 
        1.22108         2.73053         2.10342         2.88726 
         1.2272         2.70964         2.07889           2.851 
        1.23334         2.67015         2.05469         2.82943 
        1.23949         2.64153         2.03083         2.80909 
        1.24562         2.62461         2.00741         2.77984 
        1.25174         2.58893          1.9844         2.74465 
        1.25789         2.56795         1.96167          2.7178 
        1.26402          2.5364         1.93935         2.68861 
        1.27014         2.51115         1.91743         2.67034 
        1.27628         2.49534         1.89578         2.64712 
        1.28244         2.45938         1.87443         2.61747 
        1.28858         2.44335         1.85344         2.59147 
        1.29471         2.41438         1.83281         2.56666 
        1.30084         2.38834         1.81252         2.55006 
        1.30697         2.37655         1.79251         2.52359 
        1.31312          2.3327         1.77277         2.49937 
        1.31925         2.32184         1.75339         2.48231 
        1.32537         2.29826         1.73433         2.45851 
        1.33151         2.28382         1.71547         2.43534 
        1.33765         2.25171         1.69692         2.41267 
        1.34378         2.23135         1.67867         2.39436 
        1.34992         2.21992         1.66068         2.37139 
        1.35606         2.18563         1.64292         2.34351 
         1.3622         2.17443         1.62544         2.32524 
        1.36833           2.152         1.60827         2.31307 
        1.37445         2.12956         1.59135         2.29088 
        1.38059         2.11611         1.57462          2.2697 
        1.38675         2.10208          1.5581          2.2447 
        1.39288         2.07434         1.54188         2.23161 
        1.39901         2.05258          1.5259         2.21241 
        1.40515         2.03654          1.5101         2.19046 
         1.4113         2.01917         1.49454         2.17443 
        1.41742         2.00232         1.47926         2.15963 
        1.42355         1.98832         1.46416         2.13103 
         1.4297         1.96304         1.44923          2.1242 
        1.43585         1.95232         1.43451          2.1082 
        1.44198         1.93758         1.42006          2.0815 
        1.44809         1.91193         1.40583         2.07062 
        1.45423         1.89661         1.39174         2.04788 
        1.46036         1.87942         1.37788         2.03206 
        1.46649         1.86266         1.36419         2.01994 
        1.47263         1.84472         1.35069         2.00302 
        1.47877         1.82636         1.33737         1.98323 
        1.48491         1.81317         1.32421         1.97031 
        1.49104         1.80071         1.31126         1.95131 
        1.49718         1.78577         1.29847         1.93834 
        1.50333         1.76876         1.28583         1.92299 
        1.50947         1.75548         1.27339         1.90599 
         1.5156         1.73998         1.26113         1.89267 
        1.52172         1.72538         1.24903          1.8803 
        1.52787         1.71021         1.23707         1.86049 
          1.534         1.69728         1.22527         1.84701 
        1.54013         1.68103         1.21365         1.83321 
        1.54627         1.66407         1.20215         1.81742 
        1.55241         1.65122          1.1908         1.80409 
        1.55855         1.64127         1.17962         1.78975 
        1.56467         1.62768          1.1686         1.77831 
         1.5708         1.60887          1.1577         1.76266 
        1.57695         1.60065         1.14692         1.74962 
        1.58308         1.58624         1.13631         1.74062 
        1.58922         1.57509         1.12582         1.72582 
        1.59535         1.56198         1.11547          1.7129 
         1.6015            1.55         1.10523         1.69943 
        1.60764         1.53952         1.09513         1.68771 
        1.61376         1.52692         1.08518         1.67822 
        1.61989         1.51276         1.07535         1.66449 
        1.62604         1.49984         1.06562         1.65241 
        1.63218         1.49339         1.05602         1.64142 
        1.63831         1.47632         1.04655         1.62888 
        1.64444         1.46449          1.0372         1.61567 
        1.65059         1.45609         1.02794         1.60419 
        1.65673         1.44396          1.0188         1.59354 
        1.66285         1.43051         1.00981         1.58165 
        1.66898         1.42311         1.00091         1.56873 
        1.67512         1.40741        0.992108          1.5591 
        1.68127         1.39867        0.983402         1.55083 
         1.6874         1.39186         0.97482         1.54077 
        1.69353         1.37434        0.966346         1.52759 
        1.69967         1.36514        0.957953          1.5155 
        1.70581         1.36025        0.949663         1.50728 
        1.71193          1.3469        0.941503         1.49925 
        1.71806         1.33953        0.933421         1.48576 
        1.72421         1.32859        0.925419           1.475 
        1.73035         1.31678         0.91752         1.46594 
        1.73649         1.30853        0.909714         1.45577 
        1.74262         1.29859        0.902006         1.44535 
        1.74876         1.28975        0.894382         1.43755 
        1.75489         1.27722        0.886862         1.42845 
        1.76101         1.26843        0.879432         1.41625 
        1.76715         1.26039        0.872076         1.40649 
        1.77329         1.25188        0.864795         1.39788 
        1.77943         1.24023        0.857595         1.38864 
        1.78557         1.23202        0.850487         1.37912 
        1.79171         1.22656        0.843459         1.37038 
        1.79785         1.21419        0.836508         1.36191 
        1.80399         1.20711        0.829638         1.35266 
        1.81012         1.20018        0.822854          1.3429 
        1.81625         1.18896        0.816149         1.33408 
        1.82239         1.18097        0.809509         1.32714 
        1.82853         1.16887        0.802946         1.32128 
        1.83466         1.16446        0.796462         1.31339 
        1.84078         1.15554        0.790056         1.30342 
        1.84692         1.14933        0.783711         1.29399 
        1.85306         1.13916        0.777427         1.28478 
         1.8592          1.1324        0.771222         1.27699 
        1.86533         1.12341        0.765089         1.27062 
        1.87147         1.11724        0.759015         1.26201 
