# k  (h/Mpc)    P(k)  (Mpc/h)^3    P_linear(k)  (Mpc/h)^3     P_NL(k)  ShotnoiseSubtracted = false
     0.00783031         16992.1         17241.7         17155.2 
       0.013688         21761.4           21543         21387.8 
       0.019231         22124.7         22094.9           21886 
      0.0249154         20179.9         20670.1         20443.2 
      0.0312784           17794         18050.1         17812.3 
      0.0375637         15345.8         15383.4           15174 
      0.0433917         13026.1         13311.6         13090.9 
      0.0492413         11646.9         11755.8         11551.7 
      0.0555754         10230.6         10598.9         10418.9 
      0.0619321         9804.76         9809.82         9633.92 
       0.067871         8918.75         9223.22         9059.81 
      0.0738098         8345.64         8638.66         8384.96 
      0.0800417         7571.74         7944.93         7721.54 
      0.0862327         6931.89         7171.26         7061.28 
      0.0921407         6336.15         6408.28         6334.44 
      0.0982031         5608.06         5675.46         5727.14 
       0.104506          5179.2         5033.63         5184.63 
       0.110769         4711.94         4548.82         4659.91 
       0.116806         4391.46         4219.85         4320.77 
       0.122832         4166.08         3995.14         4102.31 
       0.129052         3885.15         3824.97         3918.36 
       0.135211         3723.88         3670.61          3750.2 
       0.141259         3604.71         3498.21         3617.78 
       0.147318         3426.47         3290.06         3456.03 
       0.153489         3151.16         3047.09         3183.15 
       0.159709         2973.99         2791.33         2996.11 
       0.165845          2842.8         2553.22         2847.73 
       0.171974         2663.77         2349.26          2656.9 
       0.178125         2519.83         2188.19         2547.03 
       0.184229         2395.68         2070.41          2402.9 
        0.19034         2275.64         1985.06         2305.12 
       0.196428         2235.14         1918.51         2216.93 
       0.202534         2156.72         1855.99         2160.02 
       0.208729         2070.36         1785.58         2065.56 
       0.214876          1996.1         1703.45         2028.09 
       0.220989         1928.88         1610.77         1969.36 
       0.227147         1847.96          1512.3         1901.38 
        0.23329         1772.35         1416.87          1835.9 
       0.239377         1743.08          1331.9         1752.93 
       0.245482         1635.51         1260.26         1668.12 
       0.251667         1625.35         1202.31         1621.63 
       0.257832         1560.98         1156.84         1565.32 
       0.263955         1511.11         1119.52          1522.8 
       0.270079         1461.94         1085.32         1485.78 
        0.27624         1445.96            1050         1447.45 
       0.282372          1387.1         1011.62         1427.24 
        0.28843         1382.31         970.294         1400.38 
       0.294538         1315.72         926.476         1359.98 
       0.300721          1306.1         882.374         1317.52 
        0.30691         1257.34         840.849         1295.95 
       0.313033         1231.67         804.181         1250.93 
       0.319153          1213.7         772.536         1212.61 
       0.325316         1173.75         745.449         1191.31 
        0.33145         1149.37         722.043         1150.26 
       0.337538         1127.27         700.879         1133.65 
       0.343633         1104.85         680.272          1122.8 
       0.349808          1069.2         659.038         1107.53 
       0.355968         1061.11         636.984         1089.45 
       0.362074         1051.64         614.523         1070.22 
       0.368217          1018.2         591.876         1044.27 
       0.374374         982.046         569.899         1023.02 
       0.380519          984.23         549.401         1001.44 
       0.386598         955.892         530.858         987.169 
       0.392688         952.156         514.151         964.956 
        0.39888         924.907         498.791         948.852 
       0.405048         914.925         484.679         933.084 
       0.411186         901.963         471.353         918.065 
       0.417313         883.082         458.309          907.68 
       0.423458         867.795         445.231         892.069 
       0.429607         857.383         432.135         878.682 
       0.435692         840.312         419.217          859.78 
       0.441815          832.87         406.483         856.579 
       0.447964         815.558         394.213         845.517 
       0.454126         809.733         382.589         820.944 
       0.460267         789.443          371.74          818.83 
       0.466387         779.619         361.685         804.288 
        0.47254         776.617           352.2          792.81 
       0.478662         767.154          343.22         781.686 
       0.484765         745.749         334.586         773.661 
       0.490885         741.554         326.144         759.545 
       0.497035         725.531         317.791         753.257 
       0.503198         721.543         309.533         745.152 
       0.509342         713.646         301.477          732.06 
       0.515458         709.832         293.696         726.962 
       0.521598         692.222         286.171         719.843 
       0.527764          680.19         278.933         712.806 
       0.533884         678.057         272.089          704.26 
           0.54         672.109         265.588         695.716 
       0.546137         665.106         259.348         688.016 
       0.552299         656.791         253.308         678.576 
       0.558452          651.14         247.455         673.381 
       0.564573         643.096         241.784         667.469 
       0.570708         636.289         236.241         659.125 
       0.576825         619.515         230.847          650.59 
       0.582926         622.331         225.597         646.299 
       0.589034         615.427         220.487         636.755 
       0.595184         610.242         215.507         630.338 
       0.601379         601.314         210.675         624.719 
       0.607522         593.095         206.067         615.432 
       0.613639         593.034         201.641         613.944 
       0.619772          581.22         197.349         611.832 
       0.625918         577.272         193.175          603.46 
       0.632068         569.872         189.114         600.191 
       0.638161         567.432         185.198         590.989 
         0.6443         557.898         181.359         586.296 
       0.650464         556.019         177.607         578.511 
       0.656582         550.727         173.983         575.425 
       0.662703         548.895         170.454         571.013 
       0.668861         539.829         167.001         568.575 
       0.675024         535.208         163.644         564.737 
       0.681124         531.547         160.418         556.092 
       0.687237         527.393          157.28         551.133 
       0.693381         520.329          154.22         546.024 
       0.699536          511.78          151.24         542.459 
       0.705665         511.797         148.355         535.893 
       0.711789         508.807         145.548         532.089 
       0.717957         504.021         142.792         531.484 
        0.72409         501.528         140.119         525.618 
       0.730186         493.777         137.527         520.185 
       0.736317         491.279         134.984         516.786 
       0.742472         487.969         132.495         513.391 
       0.748622         482.934         130.072          508.25 
        0.75476         475.541         127.717         508.735 
       0.760888         471.511         125.425         502.665 
       0.767043         471.639         123.184         496.337 
       0.773185         467.111         121.004         493.576 
       0.779291         462.147          118.89         489.443 
       0.785407         458.563         116.825         486.472 
       0.791564         453.688         114.797         484.882 
       0.797719          451.76         112.818         480.276 
       0.803834         446.267         110.898         477.298 
       0.809972         445.313         109.016          474.35 
       0.816124         443.845         107.172         468.876 
       0.822261         437.323         105.376         466.645 
       0.828378         435.448         103.627         463.204 
       0.834502         430.186         101.916         461.659 
       0.840667          427.17         100.233         457.982 
       0.846816         425.026         98.5925         454.524 
       0.852925         422.185         96.9997         451.871 
       0.859047         420.321         95.4391         447.392 
       0.865192         414.769         93.9081         444.529 
       0.871341         411.339         92.4101         442.003 
       0.877463         411.221         90.9518         439.667 
       0.883569         406.919          89.529         437.677 
       0.889708         404.418         88.1297         433.108 
       0.895864          402.93         86.7568         430.887 
       0.902008         399.133         85.4163         427.894 
       0.908149         393.998         84.1051         423.973 
       0.914301         392.255         82.8195         420.685 
       0.920448         390.183          81.562         419.904 
       0.926574         384.239         80.3352         416.942 
       0.932687         383.841         79.1363         413.419 
       0.938823         379.799         77.9578         412.534 
       0.944975         380.111         76.8007         409.545 
       0.951105         375.513         75.6714         406.415 
       0.957225         373.089         74.5668         404.317 
       0.963368         368.878         73.4807         401.726 
       0.969511         367.802         72.4163         399.423 
       0.975621         365.684         71.3789         396.775 
       0.981748         363.108         70.3593          394.66 
       0.987916         361.223         69.3533         392.809 
        0.99406         355.678         68.3708         390.107 
        1.00019         354.087         67.4095         386.781 
        1.00632         352.665         66.4677         384.353 
        1.01246         349.564         65.5425         382.033 
        1.01859         349.465         64.6366         379.717 
        1.02471         344.612         63.7491         377.859 
        1.03085         342.974         62.8752         376.663 
        1.03698          341.51         62.0197         375.139 
        1.04314         338.604         61.1765         372.313 
        1.04929          335.33         60.3511         369.083 
        1.05541         335.985         59.5443         366.897 
        1.06154           330.4         58.7504         365.164 
        1.06769         329.284         57.9698         362.644 
        1.07382         326.705          57.206         360.648 
        1.07993         324.914         56.4577         358.822 
        1.08607         323.974         55.7198         356.389 
        1.09222         320.306         54.9944         354.457 
        1.09836         318.169         54.2829         353.153 
        1.10449         315.939         53.5848         351.534 
        1.11063         312.114         52.8983         348.376 
        1.11677          312.63         52.2241         346.923 
         1.1229         310.122         51.5629         344.734 
        1.12903         308.083         50.9126         342.885 
        1.13518         304.998          50.273         340.504 
        1.14131         303.609         49.6448         339.159 
        1.14745         301.634         49.0278         336.422 
        1.15359         299.893         48.4211         335.857 
        1.15973          297.73         47.8246         333.532 
        1.16584         295.503         47.2407         332.355 
        1.17197         295.241         46.6659         330.612 
        1.17811          291.75         46.0988         328.125 
        1.18424         289.679         45.5429         326.556 
        1.19038         288.562         44.9946         325.489 
        1.19652         286.233         44.4555         322.793 
        1.20267         285.217         43.9253         321.525 
        1.20881         283.128          43.404         319.762 
        1.21495         281.008         42.8919         317.844 
        1.22108         279.332         42.3882         315.861 
         1.2272         277.696         41.8938         314.816 
        1.23334         276.044         41.4062         312.811 
        1.23949         273.493         40.9253         311.097 
        1.24562         272.594         40.4533         309.276 
        1.25174         270.959         39.9896         307.845 
        1.25789         268.489         39.5317         306.082 
        1.26402         266.498         39.0818          305.14 
        1.27014         264.862           38.64         302.896 
        1.27628         263.106         38.2038          302.25 
        1.28244         262.849         37.7735         300.789 
        1.28858         260.302         37.3505         298.999 
        1.29471         258.958         36.9348         297.067 
        1.30084         256.821         36.5259         295.172 
        1.30697         255.575         36.1226         294.128 
        1.31312         252.867         35.7249         292.692 
        1.31925         251.625         35.3344         291.103 
        1.32537         250.936         34.9501         289.245 
        1.33151         248.591         34.5703          288.14 
        1.33765         246.633         34.1963         286.989 
        1.34378         245.956         33.8286         284.998 
        1.34992         244.405          33.466         283.532 
        1.35606         243.373          33.108         281.859 
         1.3622         240.967         32.7559         281.076 
        1.36833         239.455         32.4098         279.981 
        1.37445         238.094         32.0689         277.753 
        1.38059         236.133         31.7318         276.871 
        1.38675         235.139         31.3988          275.81 
        1.39288         233.784         31.0719         274.016 
        1.39901         232.582         30.7498         272.359 
        1.40515         231.001         30.4316         270.771 
         1.4113         229.484          30.118         269.395 
        1.41742         227.707           29.81         268.336 
        1.42355         226.943         29.5058         266.919 
         1.4297          224.89         29.2049         265.248 
        1.43585         223.641         28.9083         264.845 
        1.44198         222.654          28.617         263.224 
        1.44809         220.832         28.3303         261.917 
        1.45423         219.721         28.0464         260.041 
        1.46036         218.355          27.767         259.079 
        1.46649         216.819         27.4913         258.046 
        1.47263          215.83         27.2191          256.35 
        1.47877         214.104         26.9507         254.911 
        1.48491         212.123         26.6855         253.488 
        1.49104         211.504         26.4245         252.551 
        1.49718         209.812         26.1668          252.14 
        1.50333         208.999         25.9121         250.354 
        1.50947         207.503         25.6613         248.964 
         1.5156         205.736         25.4142         248.107 
        1.52172         205.053         25.1704         246.814 
        1.52787         203.226         24.9293         245.687 
          1.534         202.742         24.6917         244.398 
        1.54013         200.864         24.4574         243.333 
        1.54627         199.903         24.2257         242.414 
        1.55241         198.584          23.997         241.314 
        1.55855         196.987         23.7716         240.137 
        1.56467          196.25         23.5497         238.616 
         1.5708         195.121           23.33         237.372 
        1.57695         193.884         23.1128         236.307 
        1.58308         192.615         22.8989         235.047 
        1.58922          190.91         22.6875         234.024 
        1.59535         189.712         22.4789         233.202 
         1.6015         188.745         22.2727         232.392 
        1.60764         187.715         22.0691         231.109 
        1.61376         186.749         21.8686         229.648 
        1.61989         185.584         21.6705         228.694 
        1.62604         184.304         21.4744         227.477 
        1.63218         183.201         21.2808         226.435 
        1.63831          181.77         21.0901         225.609 
        1.64444         180.987         20.9016         224.407 
        1.65059          180.04          20.715         223.499 
        1.65673         178.702         20.5309         222.569 
        1.66285         177.327         20.3496         221.378 
        1.66898         176.528         20.1704         220.114 
        1.67512         175.798         19.9929         219.255 
        1.68127         173.902         19.8175         218.238 
         1.6874         173.412         19.6446         217.192 
        1.69353         172.017         19.4738         216.473 
        1.69967         170.698         19.3047         215.421 
        1.70581         170.126         19.1376         214.391 
        1.71193         168.756         18.9732         213.441 
        1.71806         168.093         18.8103         212.261 
        1.72421         166.839          18.649         211.307 
        1.73035         166.012         18.4898          210.37 
        1.73649         165.064         18.3325         209.309 
        1.74262         164.009         18.1772         208.358 
        1.74876         162.615         18.0236          207.44 
        1.75489         162.017          17.872         206.645 
        1.76101         160.556         17.7223         205.927 
        1.76715         160.083          17.574         204.945 
        1.77329         158.881         17.4273         204.075 
        1.77943         158.198         17.2822         203.188 
        1.78557         157.148          17.139         202.052 
        1.79171         156.353         16.9974         201.123 
        1.79785         155.074         16.8573         200.278 
        1.80399         154.304         16.7188         199.296 
        1.81012         153.341         16.5821         198.684 
        1.81625         152.713          16.447         197.893 
        1.82239          151.39         16.3132         196.769 
        1.82853         150.859         16.1809         195.916 
        1.83466         149.733         16.0503         195.021 
        1.84078         148.988         15.9212         194.116 
        1.84692         147.747         15.7933         193.514 
        1.85306         147.226         15.6667          192.56 
         1.8592         146.221         15.5417         191.497 
        1.86533         145.513         15.4181         190.877 
        1.87147         144.437         15.2957         190.112 
        1.87761         143.465         15.1745         189.221 
