# k  (h/Mpc)    Pcb(k)  (Mpc/h)^3    Pcb_linear(k) (Mpc/h)^3    Pcb_NL(k) (Mpc/h)^3   ShotnoiseSubtracted = false
     0.00783031         10985.8         11130.8         11078.8 
       0.013688           14024         13919.5         13834.4 
       0.019231         14302.9         14279.5         14169.3 
      0.0249154         13119.5         13360.2         13251.7 
      0.0312784         11558.6         11667.5         11566.4 
      0.0375637         9946.18         9944.15         9856.93 
      0.0433917         8479.92         8605.09         8515.33 
      0.0492413         7562.11         7599.49          7517.5 
      0.0555754         6684.49         6851.75         6777.96 
      0.0619321         6365.71         6341.67         6268.48 
       0.067871         5830.62          5962.5         5893.49 
      0.0738098         5454.24         5584.63         5476.51 
      0.0800417         4963.53         5136.18          5040.8 
      0.0862327         4531.04         4636.04         4591.12 
      0.0921407         4116.47          4142.8         4113.49 
      0.0982031         3635.27         3669.06         3696.61 
       0.104506         3330.85         3254.14          3325.8 
       0.110769         3022.14         2940.72         2990.74 
       0.116806         2801.13         2728.06         2773.33 
       0.122832         2663.98         2582.79         2631.76 
       0.129052         2495.35         2472.78         2514.14 
       0.135211         2394.26         2372.99         2410.14 
       0.141259         2310.64         2261.54         2315.38 
       0.147318         2190.91         2126.97         2206.13 
       0.153489         2015.09          1969.9         2031.33 
       0.159709         1890.84         1804.56         1897.99 
       0.165845         1788.25         1650.62         1788.93 
       0.171974         1662.66         1518.77         1659.24 
       0.178125         1568.36         1414.64         1581.13 
       0.184229         1495.12         1338.49         1493.92 
        0.19034         1405.11         1283.31         1431.47 
       0.196428         1385.09          1240.3         1372.65 
       0.202534         1344.87         1199.88         1335.39 
       0.208729         1286.41         1154.35         1278.78 
       0.214876         1228.26         1101.26         1252.26 
       0.220989         1187.66         1041.34         1207.49 
       0.227147         1126.71         977.687         1155.02 
        0.23329         1076.55          915.99         1111.47 
       0.239377         1049.97         861.057         1058.64 
       0.245482         978.767         814.749         1002.95 
       0.251667         969.105         777.284         973.599 
       0.257832         932.471         747.882          937.43 
       0.263955           903.3         723.759         908.701 
       0.270079         872.525         701.644         885.279 
        0.27624         863.912         678.814         859.889 
       0.282372          828.15         654.004         840.809 
        0.28843         813.279         627.283         818.571 
       0.294538         772.546         598.957         795.475 
       0.300721         767.744         570.446         770.821 
        0.30691         732.765           543.6         752.571 
       0.313033         717.832         519.894         724.207 
       0.319153         698.663         499.439          702.25 
       0.325316         677.257         481.926         686.939 
        0.33145         659.498         466.792         662.258 
       0.337538         649.832         453.112         649.082 
       0.343633         630.949          439.79         642.966 
       0.349808         609.934         426.059         631.715 
       0.355968         605.331         411.804         620.507 
       0.362074         595.369         397.283         606.448 
       0.368217         578.368         382.642         588.052 
       0.374374         554.255         368.436         574.964 
       0.380519           551.5         355.181         560.449 
       0.386598         537.416         343.195         552.659 
       0.392688          534.69         332.394         536.589 
        0.39888         518.958         322.464         527.688 
       0.405048         509.131          313.34         520.448 
       0.411186         500.384         304.725         507.587 
       0.417313         490.954         296.292         498.254 
       0.423458          481.99         287.838         491.064 
       0.429607         473.199         279.369         481.503 
       0.435692         462.311          271.02          471.36 
       0.441815         458.544         262.787         467.314 
       0.447964         448.553         254.855          458.75 
       0.454126         437.776         247.339         446.094 
       0.460267          430.55         240.328         443.549 
       0.466387         425.813         233.825         434.866 
        0.47254         417.511         227.694         428.658 
       0.478662         416.274         221.889         420.642 
       0.484765         402.815         216.307         412.957 
       0.490885         398.944         210.849         407.249 
       0.497035         391.368         205.449         402.687 
       0.503198         385.666          200.11         396.914 
       0.509342         382.546         194.902         391.715 
       0.515458         378.411         189.872         388.087 
       0.521598         369.997         185.007         381.172 
       0.527764         363.461         180.327         376.566 
       0.533884         361.069         175.903         371.564 
           0.54         356.173           171.7         365.698 
       0.546137         354.456         167.666         361.429 
       0.552299          347.26         163.761         356.096 
       0.558452         344.922         159.978         352.354 
       0.564573         339.638         156.311         349.496 
       0.570708         333.887         152.728         345.988 
       0.576825         327.626          149.24         339.348 
       0.582926         325.459         145.847         335.909 
       0.589034         322.264         142.543         331.686 
       0.595184         319.047         139.323         326.706 
       0.601379         315.215           136.2         323.961 
       0.607522         310.112          133.22          319.86 
       0.613639         308.519         130.359         317.744 
       0.619772         301.418         127.584         315.769 
       0.625918         300.336         124.886         310.815 
       0.632068         295.604          122.26         306.916 
       0.638161         294.395         119.729         304.755 
         0.6443         289.373         117.247         301.722 
       0.650464          286.59         114.822         296.232 
       0.656582         284.956         112.478          293.97 
       0.662703         283.138         110.197         292.415 
       0.668861         277.999         107.965         289.529 
       0.675024         274.818         105.794         286.614 
       0.681124         273.514         103.709         282.401 
       0.687237         270.366          101.68         279.852 
       0.693381         266.325         99.7017         277.113 
       0.699536         263.979         97.7756         275.051 
       0.705665         262.102         95.9104         272.425 
       0.711789         259.479         94.0955         270.284 
       0.717957         257.841         92.3137         268.272 
        0.72409         255.072         90.5855         266.028 
       0.730186         252.052         88.9097         263.545 
       0.736317         249.424         87.2659         260.625 
       0.742472         248.085         85.6571         258.085 
       0.748622         246.011         84.0906         255.683 
        0.75476         243.796         82.5677         255.089 
       0.760888         240.634         81.0863         251.506 
       0.767043         240.624         79.6371         249.941 
       0.773185         237.494         78.2278         248.038 
       0.779291         233.362         76.8615         245.302 
       0.785407         232.858         75.5266         243.488 
       0.791564         230.296         74.2153         241.675 
       0.797719         227.788         72.9359         240.072 
       0.803834         226.337         71.6947         238.429 
       0.809972         224.844         70.4776         236.425 
       0.816124         224.697         69.2859         234.096 
       0.822261          221.43         68.1249         232.567 
       0.828378         219.589          66.994         230.432 
       0.834502         219.061         65.8878         228.908 
       0.840667         215.705         64.7996         227.033 
       0.846816         214.319         63.7392          225.72 
       0.852925         213.347         62.7094         223.987 
       0.859047         211.302         61.7005         222.444 
       0.865192         209.165         60.7108         220.536 
       0.871341         207.415         59.7423         218.893 
       0.877463         205.942         58.7995         217.692 
       0.883569         205.061         57.8797         216.604 
       0.889708         203.006          56.975         214.424 
       0.895864         200.478         56.0875         213.213 
       0.902008          199.88         55.2209         211.516 
       0.908149         199.027         54.3732          209.69 
       0.914301          196.43          53.542         208.402 
       0.920448         195.067         52.7291         206.731 
       0.926574          193.94          51.936          205.25 
       0.932687         193.589         51.1609         203.983 
       0.938823         191.098          50.399         203.062 
       0.944975         189.637          49.651         201.884 
       0.951105         188.752         48.9209         200.274 
       0.957225         186.878         48.2068         198.763 
       0.963368         184.608         47.5046         197.228 
       0.969511         183.948         46.8165         195.838 
       0.975621          182.54         46.1458         195.399 
       0.981748         182.349         45.4866         194.103 
       0.987916         180.193         44.8363         192.813 
        0.99406         178.653         44.2011         191.534 
        1.00019         178.549         43.5796         190.059 
        1.00632         176.725         42.9707         188.566 
        1.01246         175.538         42.3727         187.069 
        1.01859         174.821          41.787          186.53 
        1.02471          172.96         41.2132         185.779 
        1.03085         171.314         40.6483         184.547 
        1.03698          170.55         40.0952         183.643 
        1.04314         169.121         39.5501         182.209 
        1.04929         167.929         39.0165          181.03 
        1.05541         167.531         38.4949         180.048 
        1.06154         166.052         37.9816         178.984 
        1.06769         165.846         37.4769         178.158 
        1.07382         164.362         36.9831         176.964 
        1.07993         162.868         36.4994         175.882 
        1.08607         162.151         36.0224         174.975 
        1.09222         161.339         35.5534         174.109 
        1.09836         159.912         35.0934         173.216 
        1.10449         158.331         34.6421          172.22 
        1.11063         157.106         34.1982         170.957 
        1.11677          156.81         33.7624         169.839 
         1.1229         155.403         33.3349          169.02 
        1.12903          154.62         32.9145         168.173 
        1.13518         154.052          32.501         167.177 
        1.14131         152.414         32.0949         166.031 
        1.14745         152.049          31.696         165.356 
        1.15359         150.874         31.3038         164.344 
        1.15973         150.224         30.9182         163.473 
        1.16584         148.642         30.5407         162.036 
        1.17197         148.118         30.1691         161.681 
        1.17811         147.128         29.8025         160.945 
        1.18424         146.394         29.4431         159.727 
        1.19038         145.974         29.0886         159.245 
        1.19652         144.755         28.7401         158.475 
        1.20267         143.947         28.3973         157.345 
        1.20881         142.614         28.0603         156.647 
        1.21495         142.143         27.7292         155.667 
        1.22108         141.294         27.4036         155.094 
         1.2272          140.06          27.084         153.737 
        1.23334         139.472         26.7688         153.439 
        1.23949         138.297         26.4578         152.643 
        1.24562         137.575         26.1527         151.406 
        1.25174         136.231         25.8529         150.889 
        1.25789         135.672         25.5569         150.038 
        1.26402         134.885          25.266         149.245 
        1.27014         134.015         24.9804         148.901 
        1.27628         133.346         24.6984          148.43 
        1.28244         132.849         24.4202           147.2 
        1.28858         132.101         24.1467         146.343 
        1.29471         130.609          23.878         145.638 
        1.30084         130.245         23.6137         144.827 
        1.30697         129.326          23.353         144.251 
        1.31312         128.867         23.0958         143.254 
        1.31925         127.775         22.8434         142.616 
        1.32537         127.166          22.595         142.227 
        1.33151         125.942         22.3494         141.337 
        1.33765         125.631         22.1076         140.643 
        1.34378         124.787         21.8699         140.016 
        1.34992         124.486         21.6355         139.116 
        1.35606         123.686         21.4041         138.357 
         1.3622         122.587         21.1764         137.851 
        1.36833         121.933         20.9527         137.014 
        1.37445         121.172         20.7323          136.38 
        1.38059         120.676         20.5144         135.658 
        1.38675           119.8         20.2991         134.985 
        1.39288         119.381         20.0877         134.021 
        1.39901         118.897         19.8795         133.754 
        1.40515         117.888         19.6738         133.358 
         1.4113         116.947          19.471         132.691 
        1.41742         116.628         19.2719         132.092 
        1.42355         115.785         19.0752         131.502 
         1.4297         115.141         18.8807         130.798 
        1.43585         114.154          18.689         129.908 
        1.44198         113.958         18.5006         129.461 
        1.44809         113.116         18.3153         128.891 
        1.45423         112.357         18.1318          128.16 
        1.46036         112.027         17.9511         127.568 
        1.46649          111.14         17.7729         127.176 
        1.47263         110.562         17.5969         126.707 
        1.47877         110.158         17.4234         125.812 
        1.48491         109.015          17.252         125.313 
        1.49104         108.821         17.0832         125.041 
        1.49718         107.846         16.9166         123.978 
        1.50333         107.421         16.7519          123.37 
        1.50947          106.94         16.5898         122.964 
         1.5156          106.21         16.4301         122.399 
        1.52172         105.528         16.2725         121.828 
        1.52787          105.04         16.1166          121.25 
          1.534          104.39          15.963         120.747 
        1.54013         103.718         15.8115         120.255 
        1.54627         103.321         15.6617         119.718 
        1.55241         102.506         15.5139         119.154 
        1.55855         102.085         15.3681         118.566 
        1.56467         101.704         15.2247         117.989 
         1.5708         100.881         15.0827         117.568 
        1.57695         100.631         14.9422         117.076 
        1.58308         99.7271         14.8039         116.432 
        1.58922         99.5104         14.6673         115.902 
        1.59535         98.8213         14.5324         115.447 
         1.6015         98.2805         14.3991         114.854 
        1.60764         97.7033         14.2675         114.314 
        1.61376         97.4821         14.1379         114.052 
        1.61989         96.6538         14.0098         113.633 
        1.62604         96.3256          13.883         112.823 
        1.63218         95.7611         13.7579         112.277 
        1.63831         94.9362         13.6346         112.012 
        1.64444         94.6572         13.5127         111.342 
        1.65059          94.061         13.3921         110.901 
        1.65673         93.1712         13.2731         110.429 
        1.66285          93.091         13.1558         109.961 
        1.66898         92.5075           13.04         109.587 
        1.67512         91.9656         12.9253         109.071 
        1.68127         91.4418         12.8118         108.533 
         1.6874         90.8615            12.7         108.097 
        1.69353         90.3708         12.5896         107.722 
        1.69967         89.9177         12.4803         107.167 
        1.70581         89.4913         12.3723         106.661 
        1.71193         89.1704          12.266         106.262 
        1.71806         88.4638         12.1607         105.802 
        1.72421         87.9415         12.0564         105.346 
        1.73035         87.5442         11.9535         104.838 
        1.73649         87.0205         11.8518         104.331 
        1.74262         86.4988         11.7514         104.001 
        1.74876         86.1747         11.6521         103.554 
        1.75489         85.4225         11.5541         103.013 
        1.76101         85.1698         11.4573          102.54 
        1.76715         84.5395         11.3615         102.174 
        1.77329         84.2472         11.2666         101.738 
        1.77943         83.5821         11.1728         101.272 
        1.78557         83.3744         11.0802         100.893 
        1.79171         82.7175         10.9886         100.531 
        1.79785         82.3731         10.8981         100.135 
        1.80399         81.9658         10.8086         99.6807 
        1.81012         81.6188         10.7202         99.1518 
        1.81625         81.0321         10.6329         98.7319 
        1.82239          80.727         10.5463         98.4154 
        1.82853         80.3745         10.4608         97.9976 
        1.83466         79.7439         10.3764         97.5349 
        1.84078         79.5788         10.2929         97.1515 
        1.84692         78.8886         10.2102         96.8921 
        1.85306         78.4166         10.1284           96.44 
         1.8592         78.0643         10.0475         95.9435 
        1.86533         77.6534         9.96764         95.6162 
        1.87147         77.0555         9.88851         95.0815 
