# k  (h/Mpc)    P(k)  (Mpc/h)^3    P_linear(k)  (Mpc/h)^3     P_NL(k)  ShotnoiseSubtracted = false
     0.00783031         136.016         137.192         136.563 
       0.013688         171.257         171.933         171.185 
       0.019231         176.312         176.501         175.672 
      0.0249154         164.639         165.194         164.679 
      0.0312784         144.234         144.295         144.189 
      0.0375637         123.198         122.997         123.007 
      0.0433917         106.517         106.443         106.535 
      0.0492413         94.1564         94.0085         94.1129 
      0.0555754         84.7549          84.762          84.804 
      0.0619321         78.6272         78.4542         78.4549 
       0.067871         73.6981         73.7649         73.7139 
      0.0738098         68.9762         69.0912         69.0058 
      0.0800417         63.3728         63.5441         63.4733 
      0.0862327         57.2773         57.3572          57.328 
      0.0921407         51.2421         51.2554         51.2627 
      0.0982031         45.3532         45.3946         45.4423 
       0.104506         40.3498         40.2614         40.3302 
       0.110769         36.4567         36.3839         36.4408 
       0.116806         33.7363         33.7528         33.7873 
       0.122832          31.986         31.9556         31.9789 
       0.129052         30.5505         30.5946         30.5996 
       0.135211         29.2879           29.36         29.3566 
       0.141259         27.9482         27.9811         27.9822 
       0.147318         26.3259         26.3162         26.3354 
       0.153489         24.3579         24.3729         24.3931 
       0.159709          22.324         22.3273         22.3669 
       0.165845         20.4926         20.4227         20.4849 
       0.171974         18.7939         18.7913         18.8512 
       0.178125         17.5241          17.503         17.5704 
       0.184229         16.6003         16.5609         16.6229 
        0.19034         15.8554         15.8782         15.9315 
       0.196428         15.3503         15.3459         15.3845 
       0.202534         14.8943         14.8458         14.8838 
       0.208729         14.2912         14.2826         14.3203 
       0.214876          13.603         13.6257         13.6783 
       0.220989         12.9221         12.8844         12.9447 
       0.227147         12.0847         12.0968         12.1597 
        0.23329         11.3281         11.3334         11.4071 
       0.239377         10.6595         10.6537         10.7317 
       0.245482         10.0762         10.0808         10.1507 
       0.251667         9.64394          9.6172         9.69098 
       0.257832         9.26398         9.25345         9.32274 
       0.263955         8.97003           8.955         9.01881 
       0.270079         8.69702          8.6814         8.74205 
        0.27624         8.43453         8.39891         8.45624 
       0.282372         8.12476         8.09192         8.15495 
        0.28843         7.77371         7.76134         7.82718 
       0.294538           7.427         7.41084          7.4795 
       0.300721         7.09547         7.05808         7.13152 
        0.30691         6.74569         6.72592         6.80078 
       0.313033         6.45613         6.43262         6.50515 
       0.319153         6.17256         6.17949         6.25419 
       0.325316         6.00082         5.96283         6.03843 
        0.33145         5.80539          5.7756          5.8463 
       0.337538         5.63181         5.60632         5.67411 
       0.343633          5.4573         5.44149         5.50809 
       0.349808         5.29507         5.27163         5.34114 
       0.355968         5.12214         5.09522         5.17289 
       0.362074           4.937         4.91556         4.98952 
       0.368217         4.75824         4.73441         4.80276 
       0.374374          4.5701         4.55862         4.63184 
       0.380519         4.41988         4.39465         4.46517 
       0.386598         4.27616         4.24633         4.31855 
       0.392688         4.14958         4.11269          4.1841 
        0.39888         4.01966         3.98983         4.06063 
       0.405048         3.90845         3.87695         3.94278 
       0.411186         3.80332         3.77035         3.84228 
       0.417313         3.69094         3.66601         3.73535 
       0.423458         3.59327         3.56141         3.63164 
       0.429607         3.48014         3.45665         3.52444 
       0.435692         3.37764         3.35332          3.4235 
       0.441815         3.27699         3.25146         3.32512 
       0.447964         3.18948         3.15331         3.22415 
       0.454126         3.08524         3.06033         3.13012 
       0.460267         2.99802         2.97355          3.0451 
       0.466387         2.91364         2.89312         2.96098 
        0.47254         2.84095         2.81725         2.88555 
       0.478662         2.77211         2.74542         2.81198 
       0.484765         2.69803         2.67636         2.74288 
       0.490885         2.63225         2.60883         2.68002 
       0.497035         2.57599         2.54201           2.614 
       0.503198         2.50384         2.47596         2.54208 
       0.509342         2.44337         2.41152         2.47907 
       0.515458         2.37563         2.34928         2.41982 
       0.521598         2.31659         2.28909          2.3542 
       0.527764         2.25383         2.23119          2.2959 
       0.533884         2.20756         2.17645         2.24086 
           0.54         2.15292         2.12445         2.18762 
       0.546137         2.10517         2.07453          2.1393 
       0.552299         2.05543         2.02622         2.08614 
       0.558452         2.00355          1.9794         2.04038 
       0.564573         1.96189         1.93404         1.99964 
       0.570708          1.9174          1.8897         1.95363 
       0.576825         1.87147         1.84655         1.90896 
       0.582926         1.83403         1.80456         1.86795 
       0.589034         1.78354         1.76368         1.82913 
       0.595184         1.74617         1.72384         1.78246 
       0.601379         1.70797         1.68519         1.74883 
       0.607522         1.67509         1.64833          1.7105 
       0.613639         1.64364         1.61293         1.67388 
       0.619772         1.60215          1.5786         1.64147 
       0.625918         1.57089         1.54521         1.60539 
       0.632068         1.54144         1.51273         1.57163 
       0.638161         1.50674         1.48141         1.54034 
         0.6443         1.47588         1.45069         1.50817 
       0.650464         1.44224         1.42069         1.48075 
       0.656582         1.41671         1.39169         1.45056 
       0.662703         1.38865         1.36346          1.4211 
       0.668861         1.36458         1.33585         1.39526 
       0.675024         1.33423         1.30899         1.36691 
       0.681124         1.30525         1.28319         1.33988 
       0.687237         1.28377         1.25809         1.31238 
       0.693381         1.25984         1.23361          1.2865 
       0.699536         1.22971         1.20978         1.26338 
       0.705665         1.20798          1.1867          1.2438 
       0.711789         1.18804         1.16424         1.22005 
       0.717957         1.16341          1.1422         1.19591 
        0.72409         1.14304         1.12081         1.17485 
       0.730186         1.12117         1.10008         1.15236 
       0.736317         1.10524         1.07974         1.13117 
       0.742472         1.08403         1.05984         1.11405 
       0.748622         1.06306         1.04045         1.09478 
        0.75476         1.04176         1.02161          1.0733 
       0.760888         1.02292         1.00328         1.05513 
       0.767043          1.0105        0.985351         1.03768 
       0.773185        0.989284        0.967912         1.02078 
       0.779291         0.97273        0.951007         1.00335 
       0.785407        0.956336         0.93449        0.985731 
       0.791564        0.940631        0.918267        0.969397 
       0.797719        0.925921        0.902437        0.951469 
       0.803834          0.9107        0.887079        0.936674 
       0.809972        0.894496         0.87202        0.923165 
       0.816124        0.878632        0.857275        0.906244 
       0.822261        0.862826         0.84291        0.891191 
       0.828378        0.850733        0.828917        0.877226 
       0.834502        0.838324         0.81523        0.862341 
       0.840667        0.821635        0.801766        0.849464 
       0.846816        0.808856        0.788645        0.838213 
       0.852925        0.798733        0.775904        0.823809 
       0.859047        0.785742        0.763421        0.812762 
       0.865192        0.771792        0.751175        0.799055 
       0.871341        0.759598        0.739192        0.786345 
       0.877463        0.750427        0.727527        0.773768 
       0.883569        0.736941        0.716146        0.763284 
       0.889708        0.725684        0.704953        0.751787 
       0.895864        0.714395        0.693971        0.739925 
       0.902008        0.702938        0.683249        0.729077 
       0.908149        0.692302         0.67276        0.718584 
       0.914301        0.679495        0.662476        0.707316 
       0.920448        0.670643        0.652418         0.69675 
       0.926574        0.660482        0.642604         0.68735 
       0.932687        0.650433        0.633015        0.675951 
       0.938823        0.643442        0.623588        0.668748 
       0.944975         0.63334        0.614332        0.656992 
       0.951105        0.624584        0.605298        0.647903 
       0.957225        0.616991        0.596463        0.640031 
       0.963368        0.607348        0.587775         0.63026 
       0.969511         0.59748        0.579261        0.621775 
       0.975621        0.588563        0.570963        0.611543 
       0.981748        0.582535        0.562807        0.603422 
       0.987916        0.573549         0.55476        0.596998 
        0.99406        0.564982        0.546901        0.589286 
        1.00019        0.558564        0.539212        0.581142 
        1.00632        0.548913        0.531678        0.572388 
        1.01246        0.541465        0.524278        0.564532 
        1.01859        0.535132        0.517031        0.557766 
        1.02471        0.527387        0.509932        0.550451 
        1.03085        0.522003        0.502942        0.542032 
        1.03698         0.51368        0.496098         0.53476 
        1.04314        0.507254        0.489354        0.528244 
        1.04929         0.49983        0.482751        0.521549 
        1.05541        0.494383        0.476298        0.515518 
        1.06154        0.486929        0.469947        0.508859 
        1.06769        0.480121        0.463703        0.502292 
        1.07382        0.474473        0.457593         0.49582 
        1.07993        0.467515        0.451608        0.489501 
        1.08607        0.463486        0.445705         0.48382 
        1.09222        0.456298        0.439903        0.477012 
        1.09836        0.452105        0.434211        0.471652 
        1.10449        0.446186        0.428627        0.465905 
        1.11063         0.43921        0.423136        0.459411 
        1.11677        0.433272        0.417743         0.45461 
         1.1229        0.428768        0.412454        0.449066 
        1.12903        0.422928        0.407252        0.443474 
        1.13518        0.418493        0.402136        0.438163 
        1.14131        0.412762        0.397111        0.433093 
        1.14745        0.406043        0.392176        0.427087 
        1.15359        0.402497        0.387323        0.422771 
        1.15973         0.39656        0.382551        0.418083 
        1.16584        0.393565        0.377881        0.412531 
        1.17197        0.388354        0.373282        0.408075 
        1.17811        0.384297        0.368747        0.403707 
        1.18424        0.380477          0.3643        0.398293 
        1.19038         0.37488        0.359914        0.393889 
        1.19652        0.369565        0.355602        0.389759 
        1.20267        0.366776        0.351361        0.384333 
        1.20881        0.361849         0.34719        0.380619 
        1.21495        0.358569        0.343094        0.377266 
        1.22108        0.353942        0.339065        0.372118 
         1.2272         0.35042        0.335111        0.367565 
        1.23334        0.345866        0.331211        0.363869 
        1.23949        0.342065        0.327363        0.360331 
        1.24562        0.338213        0.323588        0.356268 
        1.25174        0.334698        0.319878        0.351933 
        1.25789        0.331403        0.316216         0.34811 
        1.26402        0.326475        0.312617        0.344397 
        1.27014        0.323264        0.309084        0.340504 
        1.27628        0.320346        0.305594        0.336676 
        1.28244        0.315595        0.302152        0.333204 
        1.28858        0.312751        0.298768        0.329213 
        1.29471        0.310197        0.295444        0.326066 
        1.30084        0.306006        0.292173        0.323349 
        1.30697        0.302735        0.288947        0.319639 
        1.31312        0.298508        0.285765        0.316105 
        1.31925        0.295881        0.282642        0.313188 
        1.32537        0.293212        0.279568        0.309988 
        1.33151        0.290461        0.276529        0.306734 
        1.33765        0.287252        0.273538        0.303561 
        1.34378        0.283532        0.270596        0.300481 
        1.34992        0.280931        0.267696        0.297486 
        1.35606        0.277994        0.264833        0.293991 
         1.3622         0.27516        0.262017        0.291156 
        1.36833        0.272108        0.259248        0.288542 
        1.37445        0.268614        0.256521        0.285797 
        1.38059        0.266152        0.253825        0.282685 
        1.38675        0.264746        0.251161        0.279716 
        1.39288        0.261425        0.248546        0.276882 
        1.39901        0.258757         0.24597         0.27433 
        1.40515        0.256515        0.243424        0.271497 
         1.4113        0.253214        0.240916         0.26913 
        1.41742         0.25078        0.238452        0.267086 
        1.42355        0.249005        0.236018        0.263393 
         1.4297        0.245846        0.233611        0.261658 
        1.43585        0.243679        0.231239        0.258904 
        1.44198        0.241799        0.228909        0.255621 
        1.44809         0.23885        0.226615        0.254235 
        1.45423         0.23678        0.224345        0.250904 
        1.46036        0.234281         0.22211        0.248848 
        1.46649         0.23255        0.219904        0.247068 
        1.47263        0.229995        0.217727        0.244472 
        1.47877        0.227229         0.21558        0.242199 
        1.48491        0.225535        0.213459        0.240254 
        1.49104         0.22273        0.211371        0.237353 
        1.49718        0.220792         0.20931        0.235873 
        1.50333        0.219273        0.207272        0.232973 
        1.50947         0.21687        0.205266        0.230712 
         1.5156         0.21471         0.20329         0.22916 
        1.52172        0.212896         0.20134        0.226746 
        1.52787        0.210822        0.199411        0.224631 
          1.534        0.208648         0.19751        0.222924 
        1.54013        0.206648        0.195636         0.22086 
        1.54627        0.205212        0.193783        0.218706 
        1.55241        0.202858        0.191954        0.216744 
        1.55855        0.200834         0.19015        0.214813 
        1.56467        0.199946        0.188375        0.213118 
         1.5708        0.197654        0.186618        0.210955 
        1.57695        0.195857        0.184881        0.208891 
        1.58308        0.193962         0.18317        0.207432 
        1.58922        0.192376        0.181479        0.205719 
        1.59535        0.190536         0.17981        0.203752 
         1.6015        0.188704         0.17816        0.201739 
        1.60764        0.187272        0.176532        0.200266 
        1.61376        0.185149        0.174928        0.199031 
        1.61989        0.183847        0.173344        0.197139 
        1.62604         0.18238        0.171775        0.195326 
        1.63218        0.180767        0.170227        0.193747 
        1.63831        0.179237        0.168701        0.192106 
        1.64444        0.177608        0.167193         0.19028 
        1.65059         0.17612        0.165701        0.188664 
        1.65673        0.174621        0.164228        0.187207 
        1.66285        0.173344        0.162778        0.185678 
        1.66898        0.171762        0.161344        0.183992 
        1.67512        0.169956        0.159925        0.182448 
        1.68127        0.168397        0.158521        0.181033 
         1.6874        0.167436        0.157138         0.17969 
        1.69353        0.165567        0.155772        0.178266 
        1.69967        0.164704        0.154419        0.176524 
        1.70581        0.162731        0.153083        0.175033 
        1.71193        0.161596        0.151767        0.173775 
        1.71806        0.160009        0.150465        0.172268 
        1.72421        0.159167        0.149175        0.171072 
        1.73035        0.157528        0.147901         0.16967 
        1.73649        0.156485        0.146643        0.167945 
        1.74262        0.155064        0.145401        0.166657 
        1.74876        0.153739        0.144172        0.165629 
        1.75489        0.152705         0.14296        0.164371 
        1.76101         0.15113        0.141762        0.162875 
        1.76715        0.149957        0.140576        0.161742 
        1.77329        0.148528        0.139402        0.160602 
        1.77943        0.147434        0.138242        0.159248 
        1.78557        0.146573        0.137096        0.157822 
        1.79171         0.14533        0.135963        0.156451 
        1.79785         0.14414        0.134843        0.155313 
        1.80399         0.14294        0.133735        0.154329 
        1.81012        0.141924        0.132642        0.152798 
        1.81625        0.140674        0.131561        0.151519 
        1.82239        0.139599         0.13049        0.150785 
        1.82853        0.138345        0.129432        0.149759 
        1.83466        0.137396        0.128387        0.148451 
        1.84078        0.136264        0.127355        0.147201 
        1.84692        0.135088        0.126332        0.146269 
        1.85306        0.134358        0.125319        0.145012 
         1.8592        0.133008        0.124319        0.143671 
        1.86533        0.132213         0.12333        0.142791 
        1.87147        0.131094        0.122351        0.141822 
        1.87761        0.130278        0.121382        0.140841 
