# k  (h/Mpc)    P(k)  (Mpc/h)^3    P_linear(k)  (Mpc/h)^3     P_NL(k)  ShotnoiseSubtracted = false
     0.00783031         5231.96         5292.01         5268.76 
       0.013688         6649.07         6622.97         6589.11 
       0.019231         6805.47         6795.87         6754.34 
      0.0249154         6283.55         6359.06         6324.81 
      0.0312784         5527.91         5553.78         5529.75 
      0.0375637         4744.27         4733.65          4714.5 
      0.0433917         4066.02         4096.32         4078.47 
      0.0492413         3614.44         3617.69          3602.1 
      0.0555754         3218.05         3261.77         3246.75 
      0.0619321         3038.43         3018.98         3003.51 
       0.067871         2806.67          2838.5         2822.97 
      0.0738098         2625.27         2658.62         2633.64 
      0.0800417         2397.91         2445.15         2423.34 
      0.0862327          2181.2         2207.06         2197.86 
      0.0921407         1968.24         1972.25         1967.33 
      0.0982031         1736.57         1746.72         1756.17 
       0.104506         1574.33         1549.19         1569.54 
       0.110769         1425.06         1399.99          1414.1 
       0.116806         1315.15         1298.75         1311.41 
       0.122832         1252.86         1229.59         1243.32 
       0.129052         1181.54         1177.22         1188.58 
       0.135211         1133.28         1129.72         1140.57 
       0.141259         1089.88         1076.66         1091.28 
       0.147318         1031.44         1012.59         1034.97 
       0.153489         949.945         937.818          954.63 
       0.159709         882.805         859.103         884.188 
       0.165845         825.467         785.819         823.439 
       0.171974         759.627         723.046         759.912 
       0.178125         714.432         673.473         717.445 
       0.184229         680.666         637.224         679.092 
        0.19034          638.74         610.954         650.295 
       0.196428         628.329         590.474         623.843 
       0.202534          612.98         571.232         605.577 
       0.208729         585.281          549.56          581.86 
       0.214876         555.015         524.282         564.972 
       0.220989         535.484         495.759         540.097 
       0.227147         502.002         465.454         511.555 
        0.23329          476.63         436.081         488.033 
       0.239377         458.947         409.929         463.285 
       0.245482         427.427         387.882         437.437 
       0.251667         419.341         370.045         422.451 
       0.257832           404.9         356.049         406.383 
       0.263955         391.385         344.565         393.009 
       0.270079         378.605         334.038          381.76 
        0.27624         372.857         323.168         369.385 
       0.282372         358.495         311.356         359.185 
        0.28843         345.756         298.636         347.215 
       0.294538           330.1         285.149         335.908 
       0.300721         324.518         271.576         324.769 
        0.30691          308.46         258.795         313.501 
       0.313033         299.865          247.51         300.691 
       0.319153         287.283          237.77         291.321 
       0.325316         280.465         229.433         283.739 
        0.33145         271.251          222.23         273.698 
       0.337538         267.062         215.716         266.336 
       0.343633          258.47         209.374         261.902 
       0.349808         250.663         202.838         256.281 
       0.355968          246.03          196.05         250.866 
       0.362074         239.205         189.137         243.708 
       0.368217         232.377         182.167         235.238 
       0.374374         224.675         175.403          229.11 
       0.380519         220.071         169.094         222.327 
       0.386598         214.205         163.387          217.14 
       0.392688         210.862         158.245         211.643 
        0.39888         205.292         153.518         206.027 
       0.405048         200.576         149.174         202.603 
       0.411186         196.062         145.073         197.996 
       0.417313         191.777         141.058         192.565 
       0.423458         187.627         137.033         188.927 
       0.429607         182.988         133.002         185.047 
       0.435692         177.483         129.026         180.966 
       0.441815         175.936         125.107         178.443 
       0.447964         172.624         121.331         174.003 
       0.454126         165.186         117.753          169.04 
       0.460267         163.205         114.414         166.961 
       0.466387         160.758         111.319         163.098 
        0.47254         157.464           108.4         160.185 
       0.478662         155.735         105.636         157.093 
       0.484765         151.335         102.979         153.168 
       0.490885         148.827         100.381         151.239 
       0.497035         146.697         97.8096          149.11 
       0.503198         142.729         95.2681         146.258 
       0.509342         140.236         92.7884         143.997 
       0.515458         138.217         90.3936         142.309 
       0.521598         136.209         88.0776          138.71 
       0.527764         134.051         85.8499         135.761 
       0.533884          131.78         83.7436         133.835 
           0.54          129.44         81.7428         131.709 
       0.546137         128.184          79.822         130.122 
       0.552299         126.116         77.9632         127.277 
       0.558452         123.402         76.1617         125.145 
       0.564573         121.166         74.4163         123.892 
       0.570708         119.548         72.7104         121.981 
       0.576825          117.76         71.0501         119.739 
       0.582926         115.591         69.4343         117.927 
       0.589034         113.531         67.8614         116.731 
       0.595184         112.137         66.3287          114.65 
       0.601379         110.892         64.8415          113.52 
       0.607522         108.147         63.4232         111.143 
       0.613639         107.869          62.061         109.988 
       0.619772         105.409         60.7399         108.153 
       0.625918         104.305         59.4554         107.124 
       0.632068          103.08         58.2054         105.295 
       0.638161         101.819         57.0003         104.384 
         0.6443         100.463         55.8186         102.676 
       0.650464         99.1042          54.664         100.732 
       0.656582         97.8213         53.5484         100.052 
       0.662703         96.0107         52.4622         98.3981 
       0.668861         94.9541         51.3997         97.3792 
       0.675024          93.767         50.3664         95.9162 
       0.681124         92.6589         49.3735         94.7739 
       0.687237         90.9757         48.4078         93.5461 
       0.693381         90.0043         47.4658         92.2607 
       0.699536         88.8722         46.5488         91.6442 
       0.705665         89.1854         45.6608            90.8 
       0.711789         86.6773         44.7968         88.9675 
       0.717957         86.1658         43.9485         88.2727 
        0.72409         84.9214         43.1257          87.707 
       0.730186         83.4864         42.3279          86.601 
       0.736317         83.2862         41.5454         85.3065 
       0.742472         82.2035         40.7795         84.4399 
       0.748622         81.4305         40.0337           83.41 
        0.75476          80.497         39.3086         82.4367 
       0.760888         79.3242         38.6034         81.3899 
       0.767043         78.5543         37.9135         80.9978 
       0.773185         77.6212         37.2425         80.3223 
       0.779291         77.0273         36.5921         79.3826 
       0.785407         76.3822         35.9565         78.2463 
       0.791564         75.2885         35.3323         77.5181 
       0.797719         74.2172         34.7232         77.0093 
       0.803834         73.9086         34.1323         75.9041 
       0.809972         72.5803         33.5528         75.2183 
       0.816124         72.0473         32.9855         74.7067 
       0.822261         71.5061         32.4328         73.7508 
       0.828378         70.8688         31.8944           72.75 
       0.834502         70.1492         31.3677         72.4742 
       0.840667         69.4568         30.8497         71.9268 
       0.846816          68.574         30.3448         71.1365 
       0.852925         67.9751         29.8546         70.4609 
       0.859047         67.0511         29.3743         69.6542 
       0.865192         66.7058         28.9031         69.1876 
       0.871341         66.2833          28.442         68.4573 
       0.877463          65.119         27.9932         67.9408 
       0.883569         64.6971         27.5553         67.4754 
       0.889708         64.3253         27.1246         66.7833 
       0.895864         63.6938          26.702         66.2335 
       0.902008         63.1421         26.2895         65.5712 
       0.908149         62.6527         25.8859         65.1091 
       0.914301         62.0467         25.4902         64.6768 
       0.920448         61.4826         25.1032         64.0235 
       0.926574         60.9267         24.7256         63.3121 
       0.932687         60.5191         24.3566         62.9343 
       0.938823         59.5774         23.9939         62.2656 
       0.944975         59.4108         23.6377         61.7738 
       0.951105         58.7904         23.2902         61.4506 
       0.957225         58.0657         22.9502         60.9405 
       0.963368         57.9616         22.6159         60.2433 
       0.969511         57.4999         22.2883         59.8077 
       0.975621         57.0283          21.969         59.7027 
       0.981748         56.3964         21.6552         59.0669 
       0.987916         55.9937         21.3456         58.7342 
        0.99406         55.6792         21.0432         58.1858 
        1.00019         54.9495         20.7473         57.7047 
        1.00632         54.7359         20.4574         57.2938 
        1.01246         54.2294         20.1727         56.8003 
        1.01859         53.5455         19.8939         56.4834 
        1.02471          53.634         19.6207         56.1422 
        1.03085         53.0242         19.3517         55.6259 
        1.03698          52.503         19.0884         55.1842 
        1.04314         52.0024         18.8289         54.7177 
        1.04929         51.7475         18.5749         54.4929 
        1.05541         51.2111         18.3266         54.2791 
        1.06154         51.1009         18.0822         53.7646 
        1.06769         50.5842          17.842         53.3983 
        1.07382         50.3197         17.6069         53.0172 
        1.07993          50.078         17.3766         52.6064 
        1.08607         49.5082         17.1495         52.2706 
        1.09222         49.2989         16.9262         51.8796 
        1.09836         48.9029         16.7072         51.5617 
        1.10449         48.5204         16.4923         51.1739 
        1.11063         47.9672          16.281         50.7591 
        1.11677         47.7147         16.0735         50.4193 
         1.1229         47.5291           15.87         50.2143 
        1.12903         46.8311         15.6699         49.8633 
        1.13518         46.8851          15.473         49.5018 
        1.14131         46.6657         15.2797         49.2318 
        1.14745         46.0147         15.0898         48.9128 
        1.15359         45.9321         14.9031         48.6674 
        1.15973         45.4112         14.7195         48.3273 
        1.16584         45.1028         14.5398         47.9351 
        1.17197         44.9408         14.3628         47.6988 
        1.17811         44.5997         14.1883         47.3002 
        1.18424         44.1545         14.0172          47.016 
        1.19038         44.0818         13.8484         46.8901 
        1.19652         43.8336         13.6825         46.4576 
        1.20267         43.4737         13.5194          46.298 
        1.20881         43.1336         13.3589         45.9563 
        1.21495         42.8033         13.2013         45.7655 
        1.22108          42.556         13.0463          45.433 
         1.2272         42.0915         12.8941         45.2333 
        1.23334         41.9815          12.744         44.9141 
        1.23949         41.8607          12.596         44.5698 
        1.24562         41.5125         12.4507         44.3686 
        1.25174         41.3186          12.308         44.1656 
        1.25789         41.0438         12.1671         43.8506 
        1.26402         40.7368         12.0286         43.5688 
        1.27014         40.3599         11.8927         43.3935 
        1.27628         40.2182         11.7584         43.1245 
        1.28244         39.8867          11.626          42.919 
        1.28858         39.7546         11.4957         42.6675 
        1.29471          39.606         11.3678         42.4749 
        1.30084         39.3201          11.242          42.118 
        1.30697         38.9815         11.1178         41.8501 
        1.31312         38.6874         10.9954         41.7481 
        1.31925         38.5639         10.8752         41.4723 
        1.32537         38.3772          10.757         41.2563 
        1.33151         38.0692           10.64         41.0592 
        1.33765         38.0036         10.5249         40.8329 
        1.34378         37.7668         10.4118         40.6035 
        1.34992         37.2932         10.3002         40.4178 
        1.35606         37.1374           10.19         40.2623 
         1.3622          36.927         10.0816         40.0325 
        1.36833         36.7335         9.97511         39.8171 
        1.37445         36.6899         9.87018          39.585 
        1.38059         36.4503         9.76644         39.4884 
        1.38675         36.1097         9.66395         39.2284 
        1.39288         36.0121         9.56333         39.0643 
        1.39901         35.6778          9.4642         38.8524 
        1.40515         35.5367         9.36625         38.6143 
         1.4113         35.4157         9.26973         38.4137 
        1.41742         35.0539         9.17494         38.2614 
        1.42355         34.9712          9.0813         38.0458 
         1.4297         34.7066         8.98869         37.8046 
        1.43585         34.6528         8.89741          37.692 
        1.44198         34.3346         8.80776         37.5253 
        1.44809         34.1925          8.7195         37.2628 
        1.45423         34.0587         8.63214          37.054 
        1.46036         33.8918         8.54613         36.9086 
        1.46649         33.6405         8.46127          36.776 
        1.47263         33.4722          8.3775         36.6212 
        1.47877         33.3492          8.2949         36.4346 
        1.48491         33.1553         8.21328         36.2304 
        1.49104         32.9837         8.13295         36.0474 
        1.49718         32.6743         8.05362         35.8812 
        1.50333         32.6125         7.97524         35.7481 
        1.50947         32.4445         7.89805         35.6018 
         1.5156         32.2297         7.82201         35.4286 
        1.52172         32.0004         7.74697         35.2488 
        1.52787         32.0365         7.67276         35.0767 
          1.534         31.7253         7.59962         34.9346 
        1.54013         31.5254         7.52751          34.759 
        1.54627         31.4658          7.4562         34.5717 
        1.55241         31.2504         7.38581         34.4222 
        1.55855         31.0775         7.31643         34.2931 
        1.56467         30.8573         7.24814         34.1481 
         1.5708         30.8156         7.18053         34.0035 
        1.57695         30.5091         7.11368         33.8356 
        1.58308         30.5536         7.04783         33.6632 
        1.58922         30.3627         6.98278         33.5347 
        1.59535         30.1385         6.91857          33.398 
         1.6015         29.9778         6.85509         33.2276 
        1.60764         29.8925         6.79243         33.0667 
        1.61376         29.6846         6.73073         32.9395 
        1.61989         29.4444         6.66975          32.801 
        1.62604         29.4259         6.60939         32.6811 
        1.63218         29.2232         6.54982         32.5697 
        1.63831         29.1095         6.49112         32.4354 
        1.64444         28.9819         6.43312         32.2775 
        1.65059          28.738         6.37569         32.1308 
        1.65673         28.6428         6.31902         31.9814 
        1.66285         28.5106          6.2632         31.8588 
        1.66898          28.369         6.20804         31.7655 
        1.67512         28.2782         6.15344         31.6222 
        1.68127         28.0378         6.09944         31.4689 
         1.6874         27.9551         6.04622         31.3091 
        1.69353         27.8324         5.99366         31.1406 
        1.69967         27.6542          5.9416         31.0476 
        1.70581         27.5497         5.89018         30.9824 
        1.71193         27.4126         5.83957         30.8645 
        1.71806         27.2748         5.78944         30.6642 
        1.72421         27.1024         5.73981         30.5248 
        1.73035         26.9904         5.69081         30.4598 
        1.73649         26.8904          5.6424         30.3718 
        1.74262         26.7173         5.59459         30.1568 
        1.74876         26.6903         5.54731          30.016 
        1.75489         26.4861         5.50067         29.9469 
        1.76101         26.3684         5.45458         29.8559 
        1.76715         26.2497         5.40895         29.7212 
        1.77329         26.1596         5.36379         29.5853 
        1.77943         26.0202         5.31913         29.4668 
        1.78557          25.883         5.27505         29.3545 
        1.79171         25.7739         5.23146         29.2366 
        1.79785         25.6275         5.18835         29.1465 
        1.80399         25.5074         5.14574         29.0809 
        1.81012         25.4604         5.10366         28.8926 
        1.81625         25.3196         5.06207         28.7274 
        1.82239         25.2583         5.02089         28.6624 
        1.82853         25.0162         4.98018         28.5705 
        1.83466          24.907         4.93996         28.4661 
        1.84078         24.7405         4.90023         28.3653 
        1.84692         24.7129         4.86088          28.259 
        1.85306         24.5675          4.8219         28.1546 
         1.8592         24.4441         4.78342         28.0498 
        1.86533         24.3158         4.74538         27.9376 
        1.87147         24.2208         4.70771         27.8253 
        1.87761         24.1907         4.67043         27.7147 
