# k  (h/Mpc)    P(k)  (Mpc/h)^3    P_linear(k)  (Mpc/h)^3     P_NL(k)  ShotnoiseSubtracted = false
     0.00783031         1197.17         1208.71         1203.38 
       0.013688         1512.65         1513.85          1507.1 
       0.019231         1554.02         1553.76         1546.03 
      0.0249154         1445.18         1454.07         1448.96 
      0.0312784         1268.32         1270.03         1268.34 
      0.0375637         1085.25         1082.53         1081.78 
      0.0433917         935.352         936.809          936.75 
      0.0492413         828.474         827.363         827.531 
      0.0555754         742.984         745.978         745.709 
      0.0619321         693.913         690.458         689.932 
       0.067871         647.025         649.186         648.263 
      0.0738098         605.309         608.051         606.472 
      0.0800417         555.018          559.23         557.899 
      0.0862327         502.779         504.779         504.301 
      0.0921407         450.879         451.078         451.061 
      0.0982031         398.311         399.498         400.411 
       0.104506         356.653         354.322         355.892 
       0.110769         322.297         320.197         321.366 
       0.116806         297.429         297.042         297.986 
       0.122832         282.829         281.226         282.159 
       0.129052         268.948         269.248         269.943 
       0.135211         257.753         258.383         259.029 
       0.141259         246.706         246.248         247.091 
       0.147318         232.928         231.596         232.976 
       0.153489         215.086         214.494         215.575 
       0.159709         197.749         196.491         198.093 
       0.165845         182.747         179.729         182.119 
       0.171974         167.142         165.372         167.654 
       0.178125         156.356         154.034         156.717 
       0.184229         148.467         145.744         148.331 
        0.19034         140.724         139.735         142.121 
       0.196428         137.054         135.051         136.983 
       0.202534         133.571          130.65         132.626 
       0.208729         127.734         125.694         127.633 
       0.214876         121.167         119.912           122.4 
       0.220989         115.988         113.389          116.09 
       0.227147         108.054         106.457         109.209 
        0.23329         101.641         99.7392         102.883 
       0.239377         96.2494         93.7577         97.0482 
       0.245482         90.5237         88.7152         91.7077 
       0.251667         87.4043         84.6356         87.8179 
       0.257832         84.0835         81.4345          84.481 
       0.263955          81.309          78.808          81.685 
       0.270079          78.842         76.4002         79.1883 
        0.27624         76.8856         73.9142         76.5741 
       0.282372         74.0627         71.2125         74.0511 
        0.28843         70.7967         68.3032         71.2154 
       0.294538         67.7229         65.2187         68.2408 
       0.300721         65.2617         62.1142         65.3175 
        0.30691         61.9538         59.1911         62.4489 
       0.313033         59.4931         56.6099         59.7689 
       0.319153         56.5693         54.3822         57.6209 
       0.325316         55.5429         52.4755         55.7642 
        0.33145         53.5752         50.8278         53.9355 
       0.337538         52.1734          49.338          52.346 
       0.343633         50.4876         47.8875         50.9013 
       0.349808         49.0766         46.3927         49.4993 
       0.355968         47.5897         44.8402         48.1858 
       0.362074         45.9403         43.2591         46.5025 
       0.368217         44.3862         41.6649          44.724 
       0.374374         42.7571         40.1178          43.319 
       0.380519         41.5006         38.6748         41.7932 
       0.386598         40.2394         37.3696         40.5235 
       0.392688         39.2476         36.1935         39.3497 
        0.39888         38.0333         35.1122         38.2041 
       0.405048         37.1055         34.1188         37.1073 
       0.411186         36.1926         33.1807         36.3495 
       0.417313         35.0143         32.2625         35.2984 
       0.423458         34.1145         31.3419         34.4256 
       0.429607         33.1081           30.42         33.4377 
       0.435692         32.1132         29.5106         32.5877 
       0.441815         31.3686         28.6142         31.8066 
       0.447964         30.7216         27.7505         30.8413 
       0.454126         29.5287         26.9322         29.9704 
       0.460267         28.8891         26.1686         29.2792 
       0.466387         27.9956         25.4607         28.4616 
        0.47254         27.5049          24.793         27.8245 
       0.478662         26.9509         24.1609         27.1445 
       0.484765          26.171         23.5531         26.4945 
       0.490885         25.5496         22.9588         26.0286 
       0.497035         25.1551         22.3708         25.4696 
       0.503198         24.4754         21.7895         24.7379 
       0.509342         23.8486         21.2224         24.2179 
       0.515458         23.2535         20.6746         23.7691 
       0.521598         22.7875         20.1449         23.0636 
       0.527764         22.2422         19.6354         22.4925 
       0.533884         21.8299         19.1537         22.0086 
           0.54         21.3296          18.696         21.5292 
       0.546137         20.9277         18.2567         21.1418 
       0.552299         20.5265         17.8316         20.5918 
       0.558452         19.8947         17.4196         20.1765 
       0.564573         19.6071         17.0203         19.8806 
       0.570708         19.2251         16.6302         19.4567 
       0.576825         18.7091         16.2504         19.0457 
       0.582926         18.3717         15.8809         18.6911 
       0.589034         17.8358         15.5211         18.3702 
       0.595184         17.5678         15.1706         17.8715 
       0.601379         17.1927         14.8304         17.6373 
       0.607522         16.9053          14.506         17.2436 
       0.613639         16.6787         14.1945         16.9048 
       0.619772         16.2288         13.8923         16.6374 
       0.625918         16.0824         13.5985         16.3096 
       0.632068         15.8084         13.3126         15.9744 
       0.638161         15.4154          13.037         15.6849 
         0.6443         15.0962         12.7667         15.3757 
       0.650464         14.7846         12.5026         15.1684 
       0.656582         14.6615         12.2475         14.8846 
       0.662703         14.3755         11.9991         14.5975 
       0.668861         14.0924          11.756         14.3945 
       0.675024         13.8047         11.5197         14.0857 
       0.681124         13.5616         11.2926          13.844 
       0.687237         13.3325         11.0717          13.568 
       0.693381         13.1535         10.8563         13.3335 
       0.699536         12.7952         10.6466         13.1301 
       0.705665         12.6601         10.4435          12.981 
       0.711789         12.4224         10.2458         12.7232 
       0.717957         12.2136         10.0518         12.4958 
        0.72409         12.0015         9.86363         12.3235 
       0.730186         11.8397         9.68117         12.0971 
       0.736317         11.6909         9.50218          11.897 
       0.742472         11.4933           9.327         11.7766 
       0.748622         11.3083         9.15643         11.5646 
        0.75476          11.058          8.9906         11.3625 
       0.760888         10.9201          8.8293         11.2066 
       0.767043         10.7759         8.67151         11.0564 
       0.773185         10.5473         8.51804         10.8915 
       0.779291         10.4592         8.36927         10.7374 
       0.785407         10.2947         8.22391         10.5582 
       0.791564         10.1135         8.08114          10.411 
       0.797719         9.92527         7.94183         10.2325 
       0.803834         9.85554         7.80667         10.0817 
       0.809972         9.74131         7.67414         9.98832 
       0.816124         9.51422         7.54438         9.80749 
       0.822261         9.37813         7.41797         9.66382 
       0.828378         9.26671         7.29482         9.53463 
       0.834502         9.17016         7.17437         9.40827 
       0.840667         9.00137         7.05588          9.2673 
       0.846816         8.83832         6.94041         9.15721 
       0.852925         8.75355         6.82828         9.05533 
       0.859047         8.63255         6.71843         8.92427 
       0.865192         8.54516         6.61065         8.79653 
       0.871341         8.44286          6.5052         8.69677 
       0.877463         8.29915         6.40255         8.56219 
       0.883569         8.15996         6.30239         8.46067 
       0.889708         8.02112         6.20388         8.35111 
       0.895864         7.95024         6.10724         8.23032 
       0.902008         7.85951         6.01288         8.14094 
       0.908149         7.76467         5.92058         8.02864 
       0.914301         7.64873         5.83007         7.95221 
       0.920448         7.52441         5.74155         7.81689 
       0.926574         7.43088         5.65519         7.73846 
       0.932687         7.35391          5.5708         7.59485 
       0.938823         7.24861         5.48783          7.5413 
       0.944975          7.1475         5.40638         7.44094 
       0.951105         7.07436         5.32688         7.33262 
       0.957225         7.02954         5.24913         7.28078 
       0.963368         6.92209         5.17267         7.17532 
       0.969511         6.83825         5.09774         7.10058 
       0.975621         6.74763         5.02471         6.99257 
       0.981748         6.66933         4.95294          6.9156 
       0.987916         6.59678         4.88212         6.84654 
        0.99406         6.48848         4.81296         6.77136 
        1.00019         6.38933         4.74529         6.70716 
        1.00632         6.35819         4.67899         6.61922 
        1.01246         6.28168         4.61386         6.56159 
        1.01859         6.18865         4.55009         6.46732 
        1.02471          6.1291         4.48761         6.37218 
        1.03085         6.05783          4.4261         6.31279 
        1.03698         5.96775         4.36587         6.25572 
        1.04314         5.91803         4.30652         6.17874 
        1.04929         5.83757         4.24842         6.11645 
        1.05541         5.76562         4.19162         6.05811 
        1.06154         5.71339         4.13573         5.98972 
        1.06769         5.67767         4.08078         5.93312 
        1.07382         5.58255         4.02701         5.86686 
        1.07993         5.51746         3.97434         5.79935 
        1.08607         5.47891         3.92239         5.73771 
        1.09222         5.41328         3.87133         5.67356 
        1.09836         5.35395         3.82124         5.60549 
        1.10449         5.29551          3.7721         5.55516 
        1.11063         5.23609         3.72377         5.49714 
        1.11677         5.19175         3.67631         5.44512 
         1.1229         5.13692         3.62977          5.3964 
        1.12903         5.07526         3.58399         5.35138 
        1.13518         5.01955         3.53897         5.29349 
        1.14131         4.95359         3.49475         5.22663 
        1.14745         4.89317         3.45131         5.16649 
        1.15359          4.8645         3.40861          5.1308 
        1.15973         4.80574         3.36661         5.07675 
        1.16584         4.74883         3.32551         5.03914 
        1.17197         4.70533         3.28504         4.98262 
        1.17811         4.66992         3.24513         4.92926 
        1.18424         4.62552         3.20599         4.88188 
        1.19038         4.58867         3.16739         4.83602 
        1.19652         4.53659         3.12945         4.79966 
        1.20267         4.48279         3.09212         4.73896 
        1.20881         4.44985         3.05542         4.70586 
        1.21495         4.40937         3.01937         4.66505 
        1.22108         4.35684         2.98392         4.62135 
         1.2272         4.32699         2.94912         4.56623 
        1.23334         4.26541         2.91479          4.5339 
        1.23949         4.22565         2.88093         4.50248 
        1.24562         4.19992         2.84771         4.45697 
        1.25174         4.14795         2.81507         4.40863 
        1.25789         4.11679         2.78283         4.36823 
        1.26402          4.0791         2.75116         4.32291 
        1.27014         4.03827         2.72007           4.295 
        1.27628         4.00257         2.68936         4.26124 
        1.28244         3.95015         2.65907         4.21989 
        1.28858         3.93519         2.62929         4.18139 
        1.29471         3.88658         2.60003         4.14564 
        1.30084         3.84663         2.57124         4.11814 
        1.30697         3.83915         2.54285         4.07481 
        1.31312         3.76238         2.51485         4.04124 
        1.31925         3.74391         2.48736         4.01613 
        1.32537         3.70736         2.46032         3.98162 
        1.33151         3.69246         2.43357         3.94619 
        1.33765         3.63977         2.40725         3.90894 
        1.34378         3.61134         2.38136         3.88238 
        1.34992         3.59218         2.35584          3.8476 
        1.35606         3.54156         2.33064         3.80638 
         1.3622         3.52419         2.30586         3.77798 
        1.36833         3.49002         2.28149         3.76238 
        1.37445         3.46011         2.25749         3.72716 
        1.38059         3.44411         2.23376         3.69259 
        1.38675         3.41315         2.21032         3.65917 
        1.39288         3.37867         2.18731         3.63903 
        1.39901          3.3408         2.16464         3.60994 
        1.40515          3.3179         2.14223          3.5785 
         1.4113         3.29125         2.12016         3.55211 
        1.41742         3.26599         2.09848         3.52579 
        1.42355         3.23587         2.07706         3.48949 
         1.4297         3.20521         2.05588         3.47235 
        1.43585         3.19087           2.035         3.45051 
        1.44198          3.1684          2.0145         3.41319 
        1.44809         3.13063         1.99431         3.39474 
        1.45423         3.10449         1.97433          3.3631 
        1.46036         3.07686         1.95466         3.33859 
        1.46649         3.05205         1.93525         3.31824 
        1.47263          3.0253         1.91609         3.29268 
        1.47877         2.99806          1.8972         3.26385 
        1.48491          2.9785         1.87853         3.24367 
        1.49104         2.95891         1.86015         3.21489 
        1.49718          2.9331         1.84201         3.19368 
        1.50333          2.9131         1.82408         3.17336 
        1.50947         2.88688         1.80643         3.14857 
         1.5156         2.86581         1.78904         3.12725 
        1.52172         2.84546         1.77187         3.10867 
        1.52787         2.82494          1.7549         3.07604 
          1.534         2.79883         1.73817         3.05547 
        1.54013         2.78114         1.72168         3.03622 
        1.54627         2.75171         1.70537         3.01382 
        1.55241         2.73078         1.68927         2.99268 
        1.55855         2.71808          1.6734         2.96624 
        1.56467         2.69613         1.65778         2.95244 
         1.5708         2.67136         1.64232          2.9328 
        1.57695         2.65114         1.62703         2.90793 
        1.58308         2.62827         1.61197         2.89237 
        1.58922         2.61678         1.59709         2.87427 
        1.59535         2.59651         1.58241         2.85474 
         1.6015         2.57624         1.56789         2.83274 
        1.60764         2.55831         1.55355         2.81463 
        1.61376         2.54074         1.53944         2.80021 
        1.61989         2.51948          1.5255         2.77916 
        1.62604         2.49967         1.51169         2.75894 
        1.63218         2.49066         1.49806         2.74284 
        1.63831         2.46612         1.48464         2.72567 
        1.64444         2.44733         1.47137         2.70397 
        1.65059         2.42841         1.45824         2.68751 
        1.65673         2.41645         1.44528         2.67008 
        1.66285         2.39195         1.43251         2.65144 
        1.66898          2.3795         1.41989         2.63425 
        1.67512         2.35781          1.4074         2.61813 
        1.68127         2.34392         1.39506         2.60531 
         1.6874         2.33444         1.38288         2.59128 
        1.69353         2.30541         1.37086         2.57041 
        1.69967         2.29396         1.35895         2.55037 
        1.70581         2.28374         1.34719         2.53769 
        1.71193         2.26507         1.33562         2.52649 
        1.71806         2.25183         1.32415         2.50596 
        1.72421         2.23591          1.3128          2.4884 
        1.73035         2.22087         1.30159         2.47408 
        1.73649         2.20343         1.29052         2.45939 
        1.74262         2.18767         1.27959         2.44424 
        1.74876         2.17831         1.26877          2.4322 
        1.75489         2.16019          1.2581         2.41698 
        1.76101         2.14188         1.24756         2.39657 
        1.76715          2.1318         1.23713         2.38163 
        1.77329         2.11996          1.2268         2.36998 
        1.77943         2.09773         1.21658         2.35675 
        1.78557         2.08893          1.2065         2.34126 
        1.79171         2.07804         1.19653         2.32662 
        1.79785         2.05913         1.18667         2.31322 
        1.80399         2.04738         1.17693         2.29996 
        1.81012         2.03663          1.1673         2.28701 
        1.81625         2.02128         1.15779         2.27308 
        1.82239         2.00671         1.14837         2.26019 
        1.82853         1.99061         1.13906         2.25136 
        1.83466         1.98474         1.12986         2.24039 
        1.84078          1.9714         1.12077         2.22504 
        1.84692         1.95961         1.11177         2.20854 
        1.85306         1.94195         1.10286         2.19385 
         1.8592         1.92983         1.09406         2.18274 
        1.86533         1.91785         1.08536         2.17337 
        1.87147         1.90969         1.07674         2.16195 
        1.87761         1.89574         1.06821         2.14974 
