# k  (h/Mpc)    P(k)  (Mpc/h)^3    P_linear(k)  (Mpc/h)^3     P_NL(k)  ShotnoiseSubtracted = false
     0.00783031         2090.88         2112.13         2102.91 
       0.013688         2646.51         2644.75          2632.6 
       0.019231         2716.03         2714.26         2700.07 
      0.0249154         2520.61         2540.02         2530.08 
      0.0312784          2213.9         2218.49         2214.12 
      0.0375637         1896.01         1890.94         1888.24 
      0.0433917         1631.53         1636.38         1634.76 
      0.0492413         1446.61          1445.2          1444.1 
      0.0555754         1294.76         1303.03          1301.4 
      0.0619321         1213.21         1206.05         1204.05 
       0.067871         1128.22         1133.95         1131.41 
      0.0738098         1055.38          1062.1         1057.84 
      0.0800417         966.677         976.821         973.189 
      0.0862327         876.746         881.708         880.371 
      0.0921407          787.49         787.906         787.583 
      0.0982031         695.255          697.81          700.06 
       0.104506         624.729         618.899         623.037 
       0.110769         564.751         559.293          562.28 
       0.116806          520.87         518.848         521.409 
       0.122832         495.796         491.221         493.888 
       0.129052         470.355         470.299         472.422 
       0.135211          450.85         451.321         453.371 
       0.141259         432.166         430.124         432.775 
       0.147318          408.38         404.532         408.685 
       0.153489         376.784         374.659         377.833 
       0.159709         347.349         343.212         347.857 
       0.165845          322.08         313.935          320.86 
       0.171974         294.768         288.858         295.503 
       0.178125         276.234         269.053         276.921 
       0.184229         262.593         254.572          262.16 
        0.19034         247.994         244.077         251.131 
       0.196428         242.332         235.895         241.694 
       0.202534         236.442         228.208         234.161 
       0.208729         225.907          219.55         225.331 
       0.214876         214.105         209.452         216.818 
       0.220989         205.569         198.057         206.034 
       0.227147         191.584          185.95         194.104 
        0.23329         180.685         174.215         183.496 
       0.239377         171.897         163.767         173.434 
       0.245482         161.136          154.96         163.798 
       0.251667          156.35         147.834         157.229 
       0.257832         150.662         142.242          151.25 
       0.263955         145.586         137.655         146.213 
       0.270079         141.111         133.449         141.787 
        0.27624         138.012         129.107         137.086 
       0.282372         132.923         124.387         132.813 
        0.28843         127.221         119.306          127.91 
       0.294538         121.733         113.918         122.882 
       0.300721          117.97         108.495         117.986 
        0.30691         112.011         103.389         113.057 
       0.313033         107.886         98.8809         108.257 
       0.319153         102.594         94.9898         104.559 
       0.325316         100.802         91.6593          101.38 
        0.33145         97.1863         88.7813         97.9784 
       0.337538         94.9887         86.1791         95.1094 
       0.343633         91.9261         83.6454         92.7045 
       0.349808         89.3393         81.0345         90.3281 
       0.355968         86.8559         78.3226         88.1527 
       0.362074         83.9642         75.5609         85.1938 
       0.368217         81.2623         72.7764         81.9584 
       0.374374         78.5443         70.0741         79.5683 
       0.380519         76.3356         67.5536         76.8632 
       0.386598         74.0907         65.2737         74.6423 
       0.392688         72.4446         63.2194         72.6293 
        0.39888         70.3176         61.3308         70.5009 
       0.405048         68.6729         59.5956         68.6534 
       0.411186         67.0753          57.957         67.3676 
       0.417313         64.9664         56.3531         65.3685 
       0.423458         63.3376         54.7451         63.8913 
       0.429607         61.5863         53.1348         62.1691 
       0.435692         59.6528         51.5464         60.6908 
       0.441815         58.6212         49.9806         59.4326 
       0.447964         57.5063          48.472         57.6661 
       0.454126         55.1097         47.0427           56.05 
       0.460267         54.1321         45.7088         54.9346 
       0.466387         52.6134         44.4724         53.4494 
        0.47254         51.7759         43.3061         52.3693 
       0.478662         50.8439          42.202         51.1629 
       0.484765         49.3919         41.1403         49.9125 
       0.490885         48.2933         40.1024         49.1513 
       0.497035          47.582         39.0753         48.2127 
       0.503198          46.321         38.0599         46.9082 
       0.509342         45.1144         37.0693         46.0246 
       0.515458         44.1663         36.1125         45.3101 
       0.521598         43.4018         35.1873         43.9626 
       0.527764         42.4929         34.2973         42.8476 
       0.533884          41.723         33.4558         42.0263 
           0.54         40.8172         32.6565         41.2113 
       0.546137         40.1645         31.8892         40.5634 
       0.552299         39.4937         31.1465         39.5451 
       0.558452         38.2915         30.4268         38.7612 
       0.564573         37.7064         29.7295         38.2565 
       0.570708         37.1137          29.048         37.5205 
       0.576825         36.1928         28.3847         36.7948 
       0.582926         35.5053         27.7392         36.1413 
       0.589034         34.5584         27.1109         35.5966 
       0.595184         34.1061         26.4985         34.7477 
       0.601379         33.4907         25.9044         34.2999 
       0.607522          32.819         25.3378         33.5165 
       0.613639         32.5161         24.7936         32.9533 
       0.619772         31.6692         24.2658         32.4336 
       0.625918         31.4697         23.7526           31.95 
       0.632068         30.9498         23.2533         31.2953 
       0.638161          30.289         22.7718         30.7872 
         0.6443         29.6933         22.2997         30.2097 
       0.650464         29.1563         21.8385         29.8099 
       0.656582         28.9534         21.3928         29.3403 
       0.662703         28.3818         20.9588         28.7832 
       0.668861         27.8546         20.5344         28.4381 
       0.675024         27.3586         20.1215         27.8536 
       0.681124         26.8818         19.7249         27.4219 
       0.687237         26.4103         19.3391         26.9489 
       0.693381         26.1708         18.9627         26.5207 
       0.699536          25.512         18.5964         26.2088 
       0.705665         25.4125         18.2416         25.8826 
       0.711789         24.8309         17.8965         25.3543 
       0.717957         24.4969         17.5576         25.0289 
        0.72409         24.1265         17.2289         24.7162 
       0.730186         23.7808         16.9102         24.3018 
       0.736317         23.5147         16.5975         23.9352 
       0.742472         23.0975         16.2915           23.69 
       0.748622         22.8481         15.9936         23.2753 
        0.75476         22.4191         15.7039          22.956 
       0.760888          22.108         15.4222         22.6752 
       0.767043         21.8319         15.1466         22.3992 
       0.773185         21.4239         14.8785         22.0732 
       0.779291          21.304         14.6187         21.8159 
       0.785407         21.0394         14.3648         21.4827 
       0.791564         20.6387         14.1154         21.2095 
       0.797719          20.206          13.872          20.924 
       0.803834         20.1577          13.636         20.6097 
       0.809972         19.9509         13.4045         20.4156 
       0.816124         19.4677         13.1778         20.1042 
       0.822261          19.306          12.957         19.8245 
       0.828378         19.0997         12.7419          19.572 
       0.834502         18.8936         12.5315         19.4037 
       0.840667         18.6265         12.3245         19.1043 
       0.846816         18.2868         12.1229         18.8933 
       0.852925         18.1149          11.927         18.7697 
       0.859047         17.9035         11.7351         18.4568 
       0.865192         17.7167         11.5469         18.2262 
       0.871341         17.5646         11.3627         18.0606 
       0.877463         17.2385         11.1834         17.8224 
       0.883569         17.0125         11.0084         17.6298 
       0.889708          16.757         10.8364         17.4038 
       0.895864         16.6312         10.6676         17.1825 
       0.902008         16.4945         10.5027         17.0216 
       0.908149         16.3017         10.3415         16.8373 
       0.914301         16.1727         10.1834          16.714 
       0.920448         15.8472         10.0288         16.4441 
       0.926574         15.7151         9.87796         16.2621 
       0.932687         15.5357         9.73055         16.0336 
       0.938823         15.3284         9.58563         15.8946 
       0.944975         15.1471         9.44336         15.7322 
       0.951105         15.0138          9.3045         15.5053 
       0.957225         14.8684         9.16868         15.4188 
       0.963368         14.7094         9.03513         15.2169 
       0.969511         14.5774         8.90426         15.0727 
       0.975621         14.4342          8.7767          14.902 
       0.981748         14.2378         8.65133         14.7732 
       0.987916         14.1269         8.52763         14.5912 
        0.99406         13.9361         8.40683         14.4567 
        1.00019         13.7273         8.28863         14.3269 
        1.00632         13.6924         8.17282         14.1864 
        1.01246         13.5466         8.05906         14.0966 
        1.01859         13.3302         7.94767         13.9172 
        1.02471         13.2655         7.83854         13.7373 
        1.03085         13.1312         7.73109         13.6264 
        1.03698         12.9132          7.6259         13.5073 
        1.04314         12.8412         7.52223         13.3524 
        1.04929         12.6705         7.42073         13.2505 
        1.05541         12.5284         7.32153           13.15 
        1.06154         12.4391         7.22391          12.989 
        1.06769         12.3667         7.12792         12.8623 
        1.07382         12.1993         7.03401         12.7631 
        1.07993         12.1056           6.942         12.6409 
        1.08607         11.9754         6.85127         12.5208 
        1.09222         11.8742         6.76208         12.4171 
        1.09836         11.7277         6.67458         12.2751 
        1.10449         11.6436         6.58875         12.1664 
        1.11063         11.5104         6.50433         12.0788 
        1.11677         11.4529         6.42144         11.9495 
         1.1229         11.3697         6.34013         11.8646 
        1.12903         11.2233         6.26017         11.7894 
        1.13518         11.0886         6.18153         11.6629 
        1.14131         11.0166         6.10429         11.5534 
        1.14745         10.9168         6.02842         11.4427 
        1.15359         10.8393         5.95383         11.3515 
        1.15973         10.7382         5.88048          11.252 
        1.16584         10.5751         5.80869         11.1887 
        1.17197         10.5246           5.738         11.1031 
        1.17811         10.4513         5.66828         10.9684 
        1.18424         10.3502         5.59993         10.8971 
        1.19038         10.2994          5.5325         10.8026 
        1.19652         10.1847         5.46622         10.7067 
        1.20267          10.074         5.40103         10.6194 
        1.20881         10.0437         5.33692          10.565 
        1.21495         9.95786         5.27396         10.4665 
        1.22108          9.8319         5.21203         10.3866 
         1.2272         9.75894         5.15124         10.2811 
        1.23334         9.65957         5.09128         10.2235 
        1.23949         9.57748         5.03215         10.1406 
        1.24562         9.52947         4.97412         10.0463 
        1.25174         9.45923         4.91709         9.98028 
        1.25789         9.38023         4.86079         9.89406 
        1.26402         9.33434         4.80547         9.80909 
        1.27014         9.24368         4.75116         9.74545 
        1.27628         9.12428         4.69752         9.66502 
        1.28244         9.05184         4.64461         9.61361 
        1.28858         9.04056         4.59259         9.52622 
        1.29471         8.93491         4.54148         9.46034 
        1.30084         8.84559         4.49121          9.4188 
        1.30697         8.82364         4.44162         9.32135 
        1.31312         8.69048         4.39271         9.25417 
        1.31925          8.6322         4.34469         9.21302 
        1.32537         8.58255         4.29745         9.14755 
        1.33151         8.53455         4.25074         9.06733 
        1.33765         8.45327         4.20475         8.99089 
        1.34378         8.38312         4.15954         8.93625 
        1.34992         8.32015         4.11496         8.87813 
        1.35606         8.26814         4.07094         8.80283 
         1.3622         8.21586         4.02765         8.73652 
        1.36833         8.13403         3.98509         8.71016 
        1.37445         8.08846         3.94317         8.63197 
        1.38059         8.05061         3.90173         8.55591 
        1.38675         7.96704         3.86078         8.51942 
        1.39288         7.92716         3.82059         8.45753 
        1.39901         7.84059         3.78098         8.40156 
        1.40515         7.80662         3.74185         8.34503 
         1.4113         7.74751         3.70329         8.28844 
        1.41742         7.68941         3.66542          8.2342 
        1.42355           7.624         3.62801          8.1744 
         1.4297         7.57474         3.59102         8.12574 
        1.43585          7.5434         3.55455         8.08251 
        1.44198         7.50044         3.51873         8.01625 
        1.44809         7.43181         3.48347         7.97263 
        1.45423         7.36954         3.44857          7.9215 
        1.46036          7.3224         3.41421         7.86667 
        1.46649         7.27953         3.38031         7.81975 
        1.47263         7.21098         3.34684         7.77675 
        1.47877         7.16729         3.31384         7.72222 
        1.48491         7.12574         3.28124         7.66737 
        1.49104          7.0769         3.24914         7.62766 
        1.49718         7.03483         3.21745          7.5797 
        1.50333         6.98899         3.18614         7.53241 
        1.50947         6.93213          3.1553         7.49066 
         1.5156          6.8961         3.12492          7.4473 
        1.52172         6.85642         3.09494         7.39671 
        1.52787         6.80507          3.0653          7.3385 
          1.534         6.75677         3.03608         7.29975 
        1.54013         6.72114         3.00727          7.2536 
        1.54627         6.66008         2.97878         7.21035 
        1.55241         6.62484         2.95066          7.1761 
        1.55855         6.59643         2.92294         7.12593 
        1.56467          6.5401         2.89566         7.08837 
         1.5708         6.51726         2.86865          7.0591 
        1.57695           6.455         2.84194         7.01155 
        1.58308         6.40931         2.81564         6.96824 
        1.58922         6.38944         2.78965         6.94056 
        1.59535         6.35775           2.764         6.89803 
         1.6015         6.30006         2.73863         6.84976 
        1.60764         6.25234          2.7136         6.81056 
        1.61376         6.23188         2.68895         6.77892 
        1.61989         6.18964         2.66459         6.74482 
        1.62604         6.14757         2.64048         6.70334 
        1.63218         6.12792         2.61668         6.66656 
        1.63831         6.08903         2.59323         6.63406 
        1.64444         6.04989         2.57005         6.59108 
        1.65059         5.98525         2.54711         6.55151 
        1.65673         5.98058         2.52447         6.51984 
        1.66285          5.9163         2.50217         6.48804 
        1.66898         5.89001         2.48014         6.45068 
        1.67512         5.86555         2.45832         6.41675 
        1.68127          5.8233         2.43675         6.37929 
         1.6874         5.79977         2.41549         6.34631 
        1.69353         5.75469         2.39449          6.3229 
        1.69967         5.72402         2.37369         6.27992 
        1.70581         5.69385         2.35315         6.24476 
        1.71193         5.65515         2.33293          6.2215 
        1.71806         5.63456          2.3129         6.18674 
        1.72421         5.59167         2.29307         6.15467 
        1.73035         5.57544          2.2735         6.12054 
        1.73649         5.53945         2.25416         6.08481 
        1.74262         5.49666         2.23506         6.06047 
        1.74876         5.47612         2.21617         6.03018 
        1.75489          5.4522         2.19754         5.99156 
        1.76101         5.40316         2.17912         5.95584 
        1.76715          5.3865          2.1609         5.93449 
        1.77329         5.35306         2.14286         5.90685 
        1.77943         5.31177         2.12501         5.87286 
        1.78557         5.29956          2.1074         5.84327 
        1.79171         5.26591         2.08999         5.81132 
        1.79785         5.23355         2.07276         5.78007 
        1.80399         5.19804         2.05574         5.75588 
        1.81012         5.17867         2.03893         5.73436 
        1.81625         5.14522         2.02232         5.70874 
        1.82239         5.12526         2.00586         5.67951 
        1.82853         5.09077          1.9896         5.65248 
        1.83466         5.06806         1.97353         5.62909 
        1.84078         5.04337         1.95766         5.60294 
        1.84692         5.02787         1.94194         5.56675 
        1.85306         4.98405         1.92637         5.53757 
         1.8592         4.95518         1.91099         5.51753 
        1.86533         4.93225          1.8958         5.49282 
        1.87147         4.91122         1.88075         5.46205 
        1.87761         4.88482         1.86585         5.43451 
