# k  (h/Mpc)    P(k)  (Mpc/h)^3    P_linear(k)  (Mpc/h)^3     P_NL(k)  ShotnoiseSubtracted = false
     0.00783031          2347.8         2371.96         2361.62 
       0.013688         2972.95         2969.94         2956.17 
       0.019231         3050.24         3047.95         3031.79 
      0.0249154         2829.34         2852.26         2840.76 
      0.0312784         2485.51         2491.18         2485.81 
      0.0375637         2129.09         2123.37         2119.89 
      0.0433917         1831.36         1837.51          1835.2 
      0.0492413         1624.21         1622.83         1621.14 
      0.0555754         1452.99         1463.19         1460.97 
      0.0619321         1362.56         1354.28         1351.68 
       0.067871         1266.26         1273.33         1270.16 
      0.0738098         1184.49         1192.64         1187.35 
      0.0800417         1084.64         1096.88         1092.36 
      0.0862327          984.03         990.078         988.392 
      0.0921407         884.226         884.747         884.266 
      0.0982031         780.567         783.577         786.287 
       0.104506          702.01         694.968         700.032 
       0.110769          634.68         628.035         631.668 
       0.116806         585.326         582.619         585.763 
       0.122832         557.253         551.596         554.896 
       0.129052         528.346         528.103          530.75 
       0.135211         506.466         506.792         509.358 
       0.141259         485.649          482.99         486.312 
       0.147318         459.004         454.252         459.432 
       0.153489         423.408         420.707         424.651 
       0.159709         390.621         385.396         391.168 
       0.165845         362.506          352.52         361.133 
       0.171974         331.876         324.361         332.638 
       0.178125          311.14         302.122         311.935 
       0.184229         295.853         285.861         295.319 
        0.19034         279.169         274.076         282.879 
       0.196428         273.015         264.889         272.147 
       0.202534         266.425         256.257         263.712 
       0.208729         254.513         246.535         253.753 
       0.214876         241.187         235.195         244.385 
       0.220989         231.722         222.399         232.352 
       0.227147         216.025         208.804         218.991 
        0.23329         203.874         195.628         207.213 
       0.239377         194.195         183.896         195.947 
       0.245482         181.889         174.005         185.038 
       0.251667           176.7         166.004          177.73 
       0.257832         170.337         159.725         170.969 
       0.263955         164.581         154.573         165.271 
       0.270079         159.498         149.851         160.286 
        0.27624         156.108         144.975         154.971 
       0.282372         150.338         139.676         150.204 
        0.28843         143.957         133.969         144.711 
       0.294538         137.745         127.919         139.119 
       0.300721         133.683          121.83         133.684 
        0.30691         126.939         116.097         128.179 
       0.313033         122.369         111.034         122.754 
       0.319153         116.405         106.665          118.61 
       0.325316         114.344         102.925          115.06 
        0.33145         110.248         99.6932         111.176 
       0.337538         107.855         96.7711         107.931 
       0.343633         104.381          93.926         105.281 
       0.349808         101.429         90.9942         102.631 
       0.355968         98.6879         87.9491         100.207 
       0.362074         95.4405         84.8479         96.8879 
       0.368217         92.4096         81.7211         93.2265 
       0.374374         89.3792         78.6867         90.5506 
       0.380519         86.9028         75.8564         87.5064 
       0.386598         84.3692         73.2963         85.0117 
       0.392688          82.544         70.9895         82.7587 
        0.39888          80.157         68.8687         80.3321 
       0.405048         78.2925         66.9203         78.2975 
       0.411186           76.49         65.0803          76.838 
       0.417313         74.1327         63.2793         74.5509 
       0.423458         72.2945         61.4737         72.9013 
       0.429607          70.322         59.6654         70.9789 
       0.435692         68.0958         57.8818         69.3134 
       0.441815         67.0138         56.1236         67.9309 
       0.447964         65.7544         54.4295         65.9305 
       0.454126         62.9749         52.8245         64.0818 
       0.460267         61.9131         51.3267         62.8586 
       0.466387         60.2489         49.9383           61.18 
        0.47254         59.2875         48.6287         59.9712 
       0.478662         58.2515         47.3889         58.6145 
       0.484765         56.5985         46.1968         57.1716 
       0.490885         55.3683         45.0312         56.3241 
       0.497035         54.5572         43.8779         55.2824 
       0.503198         53.1093         42.7377         53.8236 
       0.509342         51.7381         41.6254         52.8337 
       0.515458         50.7018          40.551         52.0456 
       0.521598         49.8548         39.5121         50.5083 
       0.527764         48.8447         38.5127         49.2248 
       0.533884         47.9655         37.5678         48.3126 
           0.54         46.9366         36.6702         47.4053 
       0.546137         46.2221         35.8086         46.6831 
       0.552299         45.4703         34.9747         45.5251 
       0.558452         44.1062         34.1665         44.6269 
       0.564573         43.4087         33.3835         44.0594 
       0.570708         42.7673         32.6182         43.2338 
       0.576825         41.7447         31.8734         42.4147 
       0.582926         40.9413         31.1486         41.6667 
       0.589034         39.8804          30.443         41.0624 
       0.595184         39.3684         29.7554         40.1271 
       0.601379         38.6965         29.0882          39.604 
       0.607522         37.8795         28.4519         38.6942 
       0.613639         37.5754         27.8409         38.0783 
       0.619772         36.6059         27.2482          37.469 
       0.625918         36.3766          26.672         36.9564 
       0.632068         35.7888         26.1112         36.2028 
       0.638161         35.0617         25.5706         35.6375 
         0.6443         34.3914         25.0405         34.9749 
       0.650464         33.7867         24.5226         34.4994 
       0.656582         33.5464         24.0221         33.9909 
       0.662703         32.8781         23.5348         33.3464 
       0.668861         32.2977         23.0582         32.9579 
       0.675024          31.742         22.5946          32.299 
       0.681124         31.1886         22.1492         31.8065 
       0.687237         30.6407          21.716         31.2815 
       0.693381         30.3823         21.2934         30.7897 
       0.699536         29.6433          20.882          30.461 
       0.705665          29.576         20.4837         30.0719 
       0.711789         28.8682         20.0961          29.453 
       0.717957         28.5027         19.7155         29.1155 
        0.72409         28.0848         19.3464         28.7602 
       0.730186         27.6715         18.9885         28.2901 
       0.736317         27.3848         18.6375         27.8694 
       0.742472         26.8939         18.2939         27.5757 
       0.748622         26.6276         17.9593         27.1064 
        0.75476          26.155         17.6341         26.7569 
       0.760888         25.7791         17.3177         26.4349 
       0.767043         25.4653         17.0082         26.1261 
       0.773185         25.0103         16.7072         25.7533 
       0.779291         24.8805         16.4154         25.4627 
       0.785407         24.5882         16.1303         25.0791 
       0.791564         24.1181         15.8502         24.7649 
       0.797719         23.6141          15.577         24.4598 
       0.803834         23.5685         15.3119         24.0947 
       0.809972         23.3166          15.052         23.8597 
       0.816124         22.7652         14.7975         23.5184 
       0.822261         22.6004         14.5495         23.1925 
       0.828378         22.3716          14.308         22.8955 
       0.834502         22.1234         14.0717         22.7248 
       0.840667         21.8295         13.8393         22.3784 
       0.846816         21.4402         13.6128         22.1353 
       0.852925          21.243         13.3929         22.0028 
       0.859047         20.9962         13.1774         21.6347 
       0.865192         20.7756         12.9661         21.3728 
       0.871341         20.6161         12.7592         21.1865 
       0.877463         20.2261         12.5579         20.9199 
       0.883569           19.98         12.3614         20.7049 
       0.889708          19.702         12.1682         20.4362 
       0.895864         19.5492         11.9787         20.1848 
       0.902008         19.3922         11.7936         20.0014 
       0.908149         19.1704         11.6125         19.8036 
       0.914301         19.0459          11.435         19.6588 
       0.920448         18.6538         11.2614         19.3525 
       0.926574         18.5129          11.092         19.1339 
       0.932687         18.2985         10.9265         18.8924 
       0.938823         18.0598         10.7638         18.7181 
       0.944975         17.8643          10.604         18.5312 
       0.951105          17.708         10.4481          18.281 
       0.957225         17.5218         10.2956         18.1695 
       0.963368         17.3582         10.1456         17.9449 
       0.969511         17.2053         9.99866         17.7741 
       0.975621         17.0498         9.85542         17.5918 
       0.981748         16.8094         9.71463         17.4469 
       0.987916         16.6872         9.57573         17.2289 
        0.99406          16.475         9.44009         17.0756 
        1.00019         16.2419         9.30736         16.9205 
        1.00632         16.1922         9.17731         16.7694 
        1.01246         16.0329         9.04958         16.6616 
        1.01859         15.7793          8.9245         16.4636 
        1.02471         15.7153         8.80195         16.2642 
        1.03085         15.5587          8.6813         16.1305 
        1.03698         15.2981         8.56317         15.9885 
        1.04314         15.2148         8.44676           15.81 
        1.04929         15.0224         8.33279         15.6995 
        1.05541          14.859          8.2214         15.5902 
        1.06154         14.7603         8.11178         15.3931 
        1.06769         14.6701         8.00399         15.2431 
        1.07382         14.4858         7.89853         15.1378 
        1.07993         14.3872         7.79522         14.9953 
        1.08607         14.2176         7.69334         14.8621 
        1.09222         14.1106         7.59318         14.7479 
        1.09836          13.935         7.49494         14.5867 
        1.10449         13.8481         7.39855         14.4556 
        1.11063         13.6828         7.30376         14.3578 
        1.11677         13.6239         7.21067         14.2042 
         1.1229         13.5338         7.11938         14.1079 
        1.12903         13.3544         7.02959         14.0147 
        1.13518         13.2002         6.94129         13.8657 
        1.14131         13.1315         6.85455         13.7486 
        1.14745         13.0183         6.76936         13.6299 
        1.15359         12.9267          6.6856         13.5181 
        1.15973         12.8036         6.60323          13.406 
        1.16584         12.6163         6.52262         13.3294 
        1.17197         12.5743         6.44324         13.2395 
        1.17811          12.467         6.36495         13.0722 
        1.18424         12.3496         6.28819         12.9963 
        1.19038         12.2941         6.21249         12.8924 
        1.19652         12.1671         6.13806         12.7729 
        1.20267         12.0424         6.06486         12.6789 
        1.20881         12.0012         5.99287         12.6138 
        1.21495         11.9039         5.92217         12.5024 
        1.22108         11.7614         5.85262         12.4079 
         1.2272         11.6661         5.78436         12.2906 
        1.23334         11.5645         5.71704         12.2261 
        1.23949         11.4627         5.65063         12.1218 
        1.24562         11.4117         5.58547         12.0163 
        1.25174         11.3345         5.52144         11.9427 
        1.25789         11.2398         5.45821         11.8427 
        1.26402         11.1887          5.3961         11.7441 
        1.27014         11.0772         5.33511         11.6699 
        1.27628         10.9375         5.27488         11.5735 
        1.28244         10.8683         5.21546         11.5222 
        1.28858         10.8493         5.15705         11.4167 
        1.29471         10.7258         5.09966         11.3374 
        1.30084          10.622         5.04321          11.296 
        1.30697         10.5834         4.98752         11.1838 
        1.31312         10.4447          4.9326         11.0997 
        1.31925         10.3713         4.87869         11.0548 
        1.32537         10.3253         4.82563         10.9824 
        1.33151         10.2529         4.77318         10.8869 
        1.33765         10.1713         4.72154         10.8006 
        1.34378         10.0917         4.67077         10.7352 
        1.34992         10.0038         4.62072         10.6698 
        1.35606         9.95924         4.57129         10.5833 
         1.3622          9.8954         4.52268         10.5068 
        1.36833         9.79512         4.47489         10.4748 
        1.37445         9.74721         4.42782         10.3817 
        1.38059         9.69489         4.38128          10.293 
        1.38675         9.59303          4.3353         10.2542 
        1.39288          9.5519         4.29016         10.1785 
        1.39901         9.45537         4.24569         10.1144 
        1.40515          9.4147         4.20175          10.051 
         1.4113         9.34466         4.15845         9.98787 
        1.41742         9.27596         4.11593         9.92597 
        1.42355         9.20598         4.07392         9.85132 
         1.4297         9.15006         4.03238          9.7967 
        1.43585         9.11175         3.99143         9.74803 
        1.44198         9.05118         3.95121         9.67474 
        1.44809         8.98031         3.91162         9.62105 
        1.45423         8.90651         3.87242         9.56041 
        1.46036           8.855         3.83384         9.49425 
        1.46649         8.80945         3.79577         9.43964 
        1.47263         8.72438         3.75819         9.39408 
        1.47877         8.67554         3.72114         9.33354 
        1.48491          8.6266         3.68452         9.25989 
        1.49104         8.57125         3.64848         9.21834 
        1.49718         8.52028          3.6129         9.16557 
        1.50333         8.46637         3.57773         9.10816 
        1.50947         8.40233         3.54311         9.06071 
         1.5156         8.35627           3.509         9.01016 
        1.52172         8.31117         3.47533         8.94788 
        1.52787         8.24677         3.44204         8.88552 
          1.534         8.19395         3.40923         8.83985 
        1.54013         8.14711         3.37688         8.77895 
        1.54627         8.07982         3.34489         8.72737 
        1.55241         8.04193         3.31332         8.69248 
        1.55855         8.00512         3.28219         8.63857 
        1.56467         7.93955         3.25156         8.58916 
         1.5708         7.91954         3.22122         8.55534 
        1.57695         7.84283         3.19123         8.50464 
        1.58308         7.79172          3.1617         8.45274 
        1.58922         7.76549         3.13251         8.42083 
        1.59535         7.72802         3.10371         8.37039 
         1.6015         7.66055         3.07523         8.31493 
        1.60764         7.60445         3.04712         8.26787 
        1.61376         7.58626         3.01944         8.22723 
        1.61989         7.52791         2.99209         8.19047 
        1.62604         7.48844         2.96501         8.14622 
        1.63218         7.45679         2.93829         8.10089 
        1.63831         7.41493         2.91195          8.0601 
        1.64444         7.36327         2.88593         8.01454 
        1.65059          7.2975         2.86017         7.96475 
        1.65673         7.28799         2.83475         7.92992 
        1.66285         7.21036         2.80971          7.8948 
        1.66898         7.18268         2.78496          7.8456 
        1.67512         7.15492         2.76047         7.80622 
        1.68127         7.10375         2.73624         7.76146 
         1.6874         7.07425         2.71237         7.72137 
        1.69353         7.02245         2.68879         7.69759 
        1.69967         6.98455         2.66543         7.65019 
        1.70581         6.95159         2.64237          7.6088 
        1.71193          6.9022         2.61966          7.5791 
        1.71806         6.88258         2.59718         7.53708 
        1.72421         6.82918         2.57491         7.50293 
        1.73035         6.81143         2.55293         7.46394 
        1.73649         6.77034         2.53121         7.41981 
        1.74262         6.72156         2.50977         7.39351 
        1.74876         6.69629         2.48855         7.35557 
        1.75489         6.66561         2.46763         7.30694 
        1.76101         6.60805         2.44695         7.26726 
        1.76715         6.59203         2.42649         7.24714 
        1.77329          6.5458         2.40623         7.21268 
        1.77943         6.50473         2.38619         7.16973 
        1.78557         6.48888         2.36642         7.13822 
        1.79171         6.45202         2.34686         7.10058 
        1.79785         6.40781         2.32752          7.0618 
        1.80399         6.36884         2.30841         7.03458 
        1.81012         6.34675         2.28953         7.00885 
        1.81625         6.30446         2.27087         6.97932 
        1.82239         6.28146          2.2524         6.94635 
        1.82853         6.23886         2.23414         6.91191 
        1.83466         6.21059          2.2161         6.88372 
        1.84078         6.17785         2.19827         6.85505 
        1.84692         6.16422         2.18062         6.81284 
        1.85306         6.11356         2.16313         6.78065 
         1.8592         6.08073         2.14587         6.75729 
        1.86533         6.05365          2.1288         6.72367 
        1.87147         6.02734          2.1119         6.68767 
        1.87761         5.99922         2.09518         6.65808 
