# k  (h/Mpc)    P(k)  (Mpc/h)^3    P_linear(k)  (Mpc/h)^3     P_NL(k)  ShotnoiseSubtracted = false
     0.00783031         1616.26         1632.27         1625.11 
       0.013688         2043.99          2044.1         2034.86 
       0.019231         2098.79          2097.9         2087.22 
      0.0249154         1949.78         1963.26            1956 
      0.0312784         1711.87         1714.76         1711.97 
      0.0375637         1465.42         1461.59         1460.08 
      0.0433917         1262.01         1264.84         1264.21 
      0.0492413         1118.39         1117.07          1116.8 
      0.0555754            1002         1007.18          1006.4 
      0.0619321         937.366         932.219         931.128 
       0.067871         872.866         876.494         874.921 
      0.0738098         816.545         820.955         818.288 
      0.0800417         748.313         755.039         752.779 
      0.0862327         678.288         681.522         680.706 
      0.0921407         608.739         609.018           608.9 
      0.0982031         537.589         539.378         540.862 
       0.104506         482.204         478.383         481.025 
       0.110769         435.824          432.31         434.243 
       0.116806         402.053         401.048         402.666 
       0.122832         382.527         379.693         381.344 
       0.129052         363.327         363.522         364.804 
       0.135211         348.227         348.853         350.076 
       0.141259         333.552         332.468         334.051 
       0.147318         315.067         312.686         315.204 
       0.153489         290.809         289.596          291.54 
       0.159709         267.711         265.289         268.141 
       0.165845          247.82         242.659         246.908 
       0.171974         226.699         223.275         227.341 
       0.178125         212.259         207.967         212.766 
       0.184229         201.666         196.774         201.406 
        0.19034         190.793         188.661         192.954 
       0.196428         186.128         182.338         185.842 
       0.202534         181.518         176.396         179.988 
       0.208729         173.499         169.703         173.212 
       0.214876         164.495         161.898          166.38 
       0.220989         157.713          153.09         157.947 
       0.227147         146.928         143.732         148.685 
        0.23329         138.383         134.661         140.309 
       0.239377         131.339         126.586         132.483 
       0.245482         123.323         119.777         125.155 
       0.251667         119.366          114.27         119.988 
       0.257832         114.928         109.948         115.427 
       0.263955         111.091         106.401         111.592 
       0.270079         107.703         103.151         108.195 
        0.27624         105.184         99.7941         104.614 
       0.282372         101.317         96.1465         101.262 
        0.28843         96.8973         92.2186         97.4535 
       0.294538         92.7105          88.054         93.4969 
       0.300721         89.5858         83.8625          89.629 
        0.30691         85.0503         79.9159         85.7841 
       0.313033          81.787          76.431         82.1217 
       0.319153         77.7527         73.4233         79.2447 
       0.325316         76.3957          70.849         76.7622 
        0.33145         73.6627         68.6244         74.2162 
       0.337538         71.8625          66.613         72.0336 
       0.343633         69.5416         64.6545         70.1196 
       0.349808         67.5975         62.6364         68.2556 
       0.355968         65.6253         60.5403         66.5363 
       0.362074         63.3936         58.4056          64.251 
       0.368217         61.3004         56.2532         61.7961 
       0.374374         59.1542         54.1645         59.9292 
       0.380519         57.4504         52.2162         57.8511 
       0.386598         55.7325         50.4539         56.1366 
       0.392688         54.4279         48.8661         54.5665 
        0.39888         52.7833         47.4062         52.9727 
       0.405048         51.5278          46.065         51.5061 
       0.411186         50.2974         44.7984         50.5108 
       0.417313         48.6737         43.5587         49.0283 
       0.423458         47.4334         42.3158           47.87 
       0.429607          46.081         41.0711         46.5317 
       0.435692         44.6646         39.8433         45.3904 
       0.441815         43.7599          38.633         44.3764 
       0.447964         42.8989         37.4669         43.0396 
       0.454126         41.1691         36.3621         41.8312 
       0.460267         40.3606         35.3311         40.9316 
       0.466387         39.1535         34.3754         39.8026 
        0.47254         38.5127         33.4739         38.9569 
       0.478662         37.7789         32.6205         38.0298 
       0.484765         36.6892         31.7998         37.1123 
       0.490885         35.8411         30.9975         36.5079 
       0.497035         35.3045         30.2036         35.7667 
       0.503198         34.3644         29.4188         34.7609 
       0.509342         33.4688         28.6531         34.0707 
       0.515458         32.6978         27.9135          33.494 
       0.521598         32.0885         27.1984         32.4929 
       0.527764         31.3698         26.5104         31.6774 
       0.533884          30.794           25.86         31.0312 
           0.54         30.1084         25.2422         30.3907 
       0.546137         29.5818          24.649         29.8804 
       0.552299         29.0548          24.075          29.114 
       0.558452         28.1565         23.5187         28.5326 
       0.564573         27.7479         22.9797         28.1411 
       0.570708         27.2572          22.453         27.5698 
       0.576825         26.5434         21.9403         27.0122 
       0.582926         26.0533         21.4413         26.5235 
       0.589034         25.3226         20.9556         26.0951 
       0.595184         24.9712         20.4823         25.4219 
       0.601379         24.4743         20.0231         25.0983 
       0.607522         24.0317         19.5851         24.5319 
       0.613639         23.7554         19.1645         24.0805 
       0.619772         23.1252         18.7565         23.7058 
       0.625918         22.9604         18.3598         23.2921 
       0.632068         22.5711         17.9738         22.8135 
       0.638161         22.0444         17.6017         22.4188 
         0.6443         21.5947         17.2368         21.9886 
       0.650464         21.1783         16.8803         21.7028 
       0.656582         21.0249         16.5358         21.3236 
       0.662703         20.6148         16.2003         20.9168 
       0.668861         20.2088         15.8722         20.6481 
       0.675024         19.8233         15.5531         20.2087 
       0.681124         19.4786         15.2465         19.8813 
       0.687237         19.1411         14.9483          19.509 
       0.693381         18.9311         14.6574         19.1887 
       0.699536         18.4294         14.3743         18.9248 
       0.705665         18.2946         14.1001         18.7027 
       0.711789         17.9153         13.8333         18.3266 
       0.717957         17.6447         13.5713         18.0408 
        0.72409         17.3578         13.3172         17.8058 
       0.730186         17.1211         13.0709         17.4921 
       0.736317         16.9108         12.8292          17.217 
       0.742472         16.6196         12.5927         17.0467 
       0.748622          16.399         12.3624          16.739 
        0.75476         16.0599         12.1385         16.4779 
       0.760888         15.8522         11.9207         16.2659 
       0.767043         15.6461         11.7077         16.0569 
       0.773185          15.331         11.5005         15.8187 
       0.779291         15.2274         11.2996         15.6166 
       0.785407         15.0135         11.1034         15.3681 
       0.791564         14.7356         10.9106         15.1647 
       0.797719         14.4379         10.7225         14.9291 
       0.803834         14.3774         10.5401         14.7054 
       0.809972         14.2283         10.3611          14.573 
       0.816124         13.8832         10.1859         14.3267 
       0.822261         13.7283         10.0152         14.1235 
       0.828378         13.5699         9.84899         13.9417 
       0.834502         13.4288         9.68636         13.7888 
       0.840667         13.2123         9.52638         13.5765 
       0.846816          12.967         9.37049         13.4206 
       0.852925         12.8424          9.2191         13.3069 
       0.859047         12.6824         9.07078         13.0955 
       0.865192         12.5557         8.92527         12.9212 
       0.871341         12.4247         8.78289         12.7909 
       0.877463         12.2024          8.6443         12.6064 
       0.883569         12.0193         8.50907         12.4612 
       0.889708         11.8205         8.37607         12.3034 
       0.895864         11.7301          8.2456          12.136 
       0.902008         11.6205         8.11819         12.0145 
       0.908149         11.4809         7.99357         11.8631 
       0.914301         11.3501         7.87138         11.7689 
       0.920448         11.1419         7.75187         11.5699 
       0.926574         11.0269         7.63527         11.4489 
       0.932687         10.9071         7.52132         11.2576 
       0.938823         10.7534         7.40931         11.1714 
       0.944975         10.6113         7.29934         11.0447 
       0.951105         10.5128           7.192         10.8781 
       0.957225         10.4315         7.08703         10.8166 
       0.963368          10.293          6.9838         10.6638 
       0.969511          10.189         6.88264         10.5605 
       0.975621         10.0707         6.78404         10.4188 
       0.981748         9.94435         6.68713         10.3165 
       0.987916         9.85382         6.59152            10.2 
        0.99406         9.70545         6.49814         10.0979 
        1.00019         9.54964         6.40678          10.007 
        1.00632          9.5253         6.31726         9.89086 
        1.01246         9.41297         6.22933         9.82214 
        1.01859         9.26461         6.14323         9.68475 
        1.02471         9.20018         6.05888         9.54685 
        1.03085         9.10164         5.97583         9.46825 
        1.03698         8.95707         5.89451         9.38616 
        1.04314         8.89782         5.81438         9.27327 
        1.04929         8.77516         5.73593         9.19057 
        1.05541         8.67043         5.65925         9.11064 
        1.06154         8.60085         5.58379         9.00561 
        1.06769         8.55278          5.5096         8.91963 
        1.07382         8.41971         5.43701         8.83489 
        1.07993         8.33931         5.36589         8.74306 
        1.08607         8.26733         5.29576         8.65228 
        1.09222         8.18228         5.22682         8.56938 
        1.09836         8.08478         5.15919         8.46565 
        1.10449         8.01072         5.09284         8.39134 
        1.11063         7.92417         5.02759         8.32027 
        1.11677         7.87154         4.96351         8.23625 
         1.1229         7.80187         4.90067         8.16891 
        1.12903         7.70677         4.83887         8.11456 
        1.13518          7.6135         4.77808         8.02688 
        1.14131          7.5391         4.71838         7.93592 
        1.14745         7.46099         4.65973         7.84966 
        1.15359         7.41164         4.60207         7.79147 
        1.15973         7.33761         4.54537         7.71705 
        1.16584          7.2289         4.48989         7.67023 
        1.17197         7.17745         4.43525         7.59444 
        1.17811          7.1349         4.38136         7.50964 
        1.18424         7.06434         4.32852         7.44981 
        1.19038         7.02253          4.2764         7.38079 
        1.19652         6.93949         4.22517         7.32125 
        1.20267         6.85686         4.17478         7.24521 
        1.20881         6.83012         4.12523         7.20399 
        1.21495         6.76681         4.07656         7.13597 
        1.22108         6.68022         4.02869         7.07674 
         1.2272         6.63553          3.9817         6.99773 
        1.23334         6.55113         3.93536         6.95261 
        1.23949         6.49589         3.88965         6.90167 
        1.24562         6.45788         3.84479         6.83282 
        1.25174         6.39595         3.80072         6.77598 
        1.25789         6.34521          3.7572         6.71584 
        1.26402         6.30479         3.71444         6.65223 
        1.27014         6.24326         3.67245          6.6084 
        1.27628         6.17029         3.63099         6.55555 
        1.28244         6.10233          3.5901         6.50643 
        1.28858         6.09241         3.54989         6.44849 
        1.29471         6.01839         3.51039         6.40103 
        1.30084         5.95695         3.47152         6.36305 
        1.30697         5.95064         3.43319          6.2949 
        1.31312         5.83928         3.39539         6.25011 
        1.31925         5.80585         3.35828          6.2161 
        1.32537         5.75748         3.32176         6.16654 
        1.33151         5.73681         3.28565         6.11297 
        1.33765         5.66466          3.2501         6.05668 
        1.34378         5.61851         3.21516         6.01882 
        1.34992         5.58522          3.1807         5.97237 
        1.35606         5.52681         3.14668         5.91494 
         1.3622         5.49518         3.11321         5.87032 
        1.36833         5.44287         3.08032         5.85051 
        1.37445         5.40453         3.04792         5.79693 
        1.38059         5.38306         3.01588         5.74368 
        1.38675         5.32912         2.98423         5.70753 
        1.39288         5.29139         2.95316         5.67123 
        1.39901         5.22947         2.92255         5.62994 
        1.40515         5.20191          2.8923         5.58648 
         1.4113         5.16021          2.8625         5.54484 
        1.41742         5.12109         2.83323         5.50501 
        1.42355         5.07156         2.80431         5.46225 
         1.4297          5.0341         2.77571         5.42821 
        1.43585         5.01307         2.74753         5.39681 
        1.44198         4.98555         2.71984         5.34612 
        1.44809          4.9306         2.69259         5.31801 
        1.45423         4.88913         2.66561         5.27797 
        1.46036         4.85078         2.63905          5.2412 
        1.46649         4.81538         2.61284         5.20904 
        1.47263         4.77344         2.58697         5.17346 
        1.47877         4.73833         2.56147         5.13229 
        1.48491         4.70942         2.53627         5.10128 
        1.49104         4.67654         2.51146         5.06431 
        1.49718         4.64209         2.48696         5.03094 
        1.50333         4.61342         2.46276         5.00014 
        1.50947          4.5717         2.43892         4.96693 
         1.5156         4.54474         2.41544         4.93578 
        1.52172         4.51564         2.39227         4.90461 
        1.52787         4.48606         2.36935         4.85798 
          1.534         4.44606         2.34677          4.8295 
        1.54013         4.42402          2.3245         4.80208 
        1.54627         4.37847         2.30248         4.77145 
        1.55241         4.34885         2.28074         4.74151 
        1.55855         4.33102         2.25932         4.70092 
        1.56467          4.2946         2.23823         4.68102 
         1.5708         4.26867         2.21735          4.6579 
        1.57695          4.2299         2.19671         4.61899 
        1.58308          4.1959         2.17637         4.59187 
        1.58922          4.1832         2.15629          4.5705 
        1.59535         4.15722         2.13646         4.54113 
         1.6015         4.12043         2.11685         4.50698 
        1.60764         4.09025         2.09751         4.47995 
        1.61376         4.06757         2.07845         4.45918 
        1.61989         4.04134         2.05962         4.43138 
        1.62604         4.00925         2.04098         4.39971 
        1.63218         3.99761         2.02259         4.37576 
        1.63831         3.96644         2.00446         4.35346 
        1.64444         3.93987         1.98655         4.31976 
        1.65059         3.89608         1.96882         4.29546 
        1.65673         3.89094         1.95132         4.27023 
        1.66285         3.84899         1.93408         4.24435 
        1.66898         3.83007         1.91705         4.22157 
        1.67512         3.80548         1.90019         4.19685 
        1.68127         3.78077         1.88351          4.1744 
         1.6874         3.76535         1.86707         4.15316 
        1.69353         3.72888         1.85084         4.12722 
        1.69967         3.71112         1.83477         4.09674 
        1.70581         3.68931         1.81889         4.07534 
        1.71193         3.66553         1.80326         4.05955 
        1.71806         3.64546         1.78778         4.03337 
        1.72421         3.61929         1.77246         4.00767 
        1.73035         3.60361         1.75733         3.98391 
        1.73649         3.57677         1.74238          3.9611 
        1.74262         3.54913         1.72761         3.94147 
        1.74876         3.53612         1.71301          3.9227 
        1.75489         3.51675         1.69861         3.89844 
        1.76101         3.48277         1.68438         3.86985 
        1.76715          3.4712         1.67029         3.84949 
        1.77329         3.45308         1.65634         3.83238 
        1.77943         3.41655         1.64255         3.81243 
        1.78557          3.4076         1.62894         3.78944 
        1.79171         3.38565         1.61548         3.76641 
        1.79785         3.36444         1.60217          3.7457 
        1.80399          3.3416         1.58901         3.72797 
        1.81012         3.32519         1.57601         3.71108 
        1.81625         3.30437         1.56317         3.69148 
        1.82239         3.28585         1.55045         3.67148 
        1.82853         3.26309         1.53788         3.65592 
        1.83466         3.25223         1.52546         3.63955 
        1.84078         3.23457          1.5132         3.61822 
        1.84692         3.21852         1.50104         3.59255 
        1.85306         3.18881         1.48901         3.57052 
         1.8592         3.16875         1.47712         3.55564 
        1.86533          3.1527         1.46538         3.54213 
        1.87147          3.1398         1.45374         3.52346 
        1.87761         3.11826         1.44223         3.50383 
