# k  (h/Mpc)    Pcb(k)  (Mpc/h)^3    Pcb_linear(k) (Mpc/h)^3    Pcb_NL(k) (Mpc/h)^3   ShotnoiseSubtracted = false
     0.00783031         16721.5         16965.5         16880.8 
       0.013688         21410.9         21199.2         21048.1 
       0.019231         21772.6         21742.7         21539.6 
      0.0249154         19865.7         20340.7         20121.3 
      0.0312784         17516.1         17762.6         17533.8 
      0.0375637         15104.1         15138.4           14937 
      0.0433917         12824.4         13099.6         12887.6 
      0.0492413         11464.7         11568.6         11372.6 
      0.0555754         10074.5         10430.2         10257.1 
      0.0619321         9651.56         9653.61         9484.42 
       0.067871         8783.04         9076.36          8919.1 
      0.0738098         8218.43          8501.1         8256.86 
      0.0800417         7457.67         7818.43         7603.27 
      0.0862327         6826.26         7057.08         6951.34 
      0.0921407         6237.27         6306.25         6235.26 
      0.0982031         5519.55          5585.1         5635.36 
       0.104506         5095.17         4953.49         5099.59 
       0.110769         4634.63          4476.4         4583.43 
       0.116806         4317.81         4152.67         4249.85 
       0.122832         4096.85         3931.53          4034.9 
       0.129052         3821.44         3764.08         3853.94 
       0.135211         3663.24         3612.17         3688.97 
       0.141259         3545.33         3442.51          3557.7 
       0.147318         3369.46         3237.67         3398.23 
       0.153489         3098.62         2998.58         3129.69 
       0.159709         2923.56         2746.89         2944.53 
       0.165845         2792.72         2512.57         2797.42 
       0.171974         2615.77         2311.86         2608.94 
       0.178125          2473.9         2153.35         2500.29 
       0.184229         2352.59         2037.45         2358.95 
        0.19034         2232.79         1953.45          2262.8 
       0.196428         2193.76         1887.97          2175.7 
       0.202534         2117.65         1826.44         2119.67 
       0.208729          2032.3         1757.15         2026.95 
       0.214876          1958.2         1676.33          1990.1 
       0.220989         1892.34         1585.13         1931.67 
       0.227147         1811.99         1488.23         1863.95 
        0.23329         1737.47         1394.31         1799.58 
       0.239377         1708.02         1310.69         1717.93 
       0.245482         1601.83          1240.2         1634.36 
       0.251667         1591.71         1183.17         1588.79 
       0.257832         1528.66         1138.42         1533.29 
       0.263955         1479.95          1101.7         1491.25 
       0.270079         1431.55         1068.04          1454.9 
        0.27624          1416.2         1033.28         1417.19 
       0.282372          1358.3         995.517          1396.6 
        0.28843         1352.63         954.843         1369.69 
       0.294538         1287.08         911.725         1330.28 
       0.300721         1278.02         868.326         1288.67 
        0.30691         1229.51         827.462         1267.14 
       0.313033         1204.56         791.376         1222.91 
       0.319153         1186.14          760.24          1185.5 
       0.325316          1147.2         733.581         1164.35 
        0.33145         1123.06         710.546         1124.07 
       0.337538         1101.79         689.721         1107.51 
       0.343633         1079.22         669.443         1097.01 
       0.349808         1044.12         648.541          1081.8 
       0.355968         1036.41         626.844         1064.08 
       0.362074         1026.83         604.739         1045.01 
       0.368217         994.356         582.453         1019.25 
       0.374374         958.383         560.829         998.481 
       0.380519         960.312         540.653         977.048 
       0.386598         932.854         522.407         963.368 
       0.392688         929.356         505.965         941.038 
        0.39888         902.546          490.85         925.531 
       0.405048         892.337         476.963         910.278 
       0.411186         879.738         463.848         895.105 
       0.417313         861.339         451.013         884.697 
       0.423458         846.384         438.143         869.769 
       0.429607          835.99         425.252          856.34 
       0.435692         819.087         412.543         838.002 
       0.441815         811.913         400.011         834.627 
       0.447964         794.915         387.937         823.516 
       0.454126         788.751         376.497         799.627 
       0.460267          769.13         365.825         797.537 
       0.466387         759.805         355.925         783.283 
        0.47254         755.957         346.593         772.134 
       0.478662         747.391         337.756         761.048 
       0.484765         726.123         329.259         752.967 
       0.490885          721.95         320.951         739.359 
       0.497035         706.428         312.732         733.074 
       0.503198          702.41         304.606         725.057 
       0.509342          694.88         296.677         712.447 
       0.515458         690.958          289.02         707.478 
       0.521598         673.701         281.615         700.336 
       0.527764          661.91         274.492         693.375 
       0.533884         659.865         267.757         684.939 
           0.54         653.723          261.36         676.451 
       0.546137         647.394         255.219         668.841 
       0.552299         638.873         249.275         659.619 
       0.558452         633.638         243.516         654.538 
       0.564573         625.661         237.935         648.886 
       0.570708         618.952          232.48          640.95 
       0.576825         602.467         227.172         632.347 
       0.582926         605.101         222.006         628.056 
       0.589034         598.506         216.976         618.695 
       0.595184          593.43         212.076          612.45 
       0.601379         584.651         207.321         606.918 
       0.607522         576.726         202.786         597.954 
       0.613639         576.614         198.431         596.558 
       0.619772         564.829         194.207         594.538 
       0.625918         561.265         190.099         586.147 
       0.632068         553.847         186.103         582.896 
       0.638161         551.573          182.25         574.055 
         0.6443         542.169         178.471         569.572 
       0.650464         540.156          174.78         561.652 
       0.656582         535.246         171.213           558.7 
       0.662703         533.398          167.74         554.508 
       0.668861         524.521         164.343         552.039 
       0.675024         520.083         161.039         548.212 
       0.681124         516.445         157.864         539.696 
       0.687237         512.304         154.777          534.87 
       0.693381         505.414         151.764         529.974 
       0.699536         497.322         148.833         526.492 
       0.705665         497.117         145.993         520.093 
       0.711789         494.257         143.231         516.461 
       0.717957         489.591         140.519         515.802 
        0.72409         487.108         137.888         510.035 
       0.730186         479.615         135.337         504.831 
       0.736317         477.012         132.835         501.421 
       0.742472         473.959         130.386         497.938 
       0.748622          469.01         128.001         493.059 
        0.75476         461.969         125.683         493.652 
       0.760888         457.864         123.428         487.519 
       0.767043         458.204         121.223         481.584 
       0.773185         453.624         119.077         478.885 
       0.779291          448.67         116.997         474.832 
       0.785407         445.445         114.965         471.981 
       0.791564         440.516          112.97         470.227 
       0.797719         438.499         111.022          465.68 
       0.803834         433.316         109.133         462.957 
       0.809972         432.436          107.28         460.073 
       0.816124         431.032         105.466          454.59 
       0.822261         424.749         103.699         452.517 
       0.828378         422.858         101.977         449.142 
       0.834502         417.759         100.293         447.635 
       0.840667         414.802          98.637         443.934 
       0.846816         412.791         97.0229         440.621 
       0.852925         409.971         95.4554         438.082 
       0.859047         408.052         93.9196         433.816 
       0.865192         402.771          92.413         430.894 
       0.871341         399.459         90.9388         428.555 
       0.877463         399.243         89.5038         426.197 
       0.883569         395.213         88.1037         424.321 
       0.889708         392.581         86.7266         419.883 
       0.895864         390.988         85.3756         417.742 
       0.902008         387.356         84.0565         414.808 
       0.908149         382.662         82.7661         411.103 
       0.914301         380.685         81.5009          407.88 
       0.920448         378.619         80.2635         406.983 
       0.926574         373.002         79.0562         404.038 
       0.932687         372.761         77.8764         400.777 
       0.938823         368.747         76.7167         399.974 
       0.944975         369.026          75.578         396.878 
       0.951105         364.552         74.4666         393.873 
       0.957225         362.239         73.3797         391.889 
       0.963368         358.101         72.3108         389.427 
       0.969511         357.003         71.2634         387.186 
       0.975621         354.857         70.2425         384.555 
       0.981748          352.57         69.2391         382.492 
       0.987916         350.703         68.2491         380.726 
        0.99406         345.231         67.2823           378.1 
        1.00019         343.776         66.3363         374.823 
        1.00632         342.342         65.4094         372.496 
        1.01246         339.344         64.4991         370.144 
        1.01859         339.416         63.6076         367.926 
        1.02471         334.507         62.7341         366.213 
        1.03085         332.888         61.8742         364.987 
        1.03698         331.559         61.0323         363.487 
        1.04314         328.637         60.2026         360.771 
        1.04929         325.584         59.3903          357.65 
        1.05541         326.198         58.5964         355.545 
        1.06154         320.671          57.815         353.872 
        1.06769         319.731         57.0469          351.44 
        1.07382         317.259         56.2952         349.539 
        1.07993         315.446         55.5589         347.775 
        1.08607         314.531         54.8327         345.331 
        1.09222         311.067         54.1189         343.494 
        1.09836         308.976         53.4186         342.248 
        1.10449         306.676         52.7317         340.551 
        1.11063         303.175         52.0561         337.571 
        1.11677         303.459         51.3926         336.115 
         1.1229         301.081         50.7419          334.05 
        1.12903         299.103          50.102         332.309 
        1.13518         296.252         49.4726         330.032 
        1.14131         294.786         48.8544         328.587 
        1.14745         293.077         48.2472         326.054 
        1.15359         291.242         47.6502         325.429 
        1.15973         289.106         47.0632         323.215 
        1.16584             287         46.4886          322.05 
        1.17197         286.837         45.9229          320.39 
        1.17811         283.307         45.3649         318.011 
        1.18424         281.391         44.8178         316.495 
        1.19038         280.375         44.2782         315.467 
        1.19652          277.99         43.7478         312.895 
        1.20267          277.12          43.226         311.587 
        1.20881         275.037         42.7129         309.902 
        1.21495         272.979          42.209         308.023 
        1.22108          271.37         41.7134         306.112 
         1.2272         269.766         41.2268         304.982 
        1.23334         268.193          40.747         303.124 
        1.23949         265.813         40.2737         301.535 
        1.24562         264.909         39.8093         299.736 
        1.25174          263.24         39.3529          298.33 
        1.25789         260.959         38.9023          296.63 
        1.26402         258.891         38.4596          295.76 
        1.27014         257.352         38.0249         293.558 
        1.27628         255.732         37.5956         292.951 
        1.28244         255.403         37.1721         291.553 
        1.28858         252.928         36.7558         289.782 
        1.29471         251.509         36.3468         287.818 
        1.30084         249.556         35.9444         286.102 
        1.30697         248.265         35.5475         285.079 
        1.31312         245.687         35.1561         283.622 
        1.31925          244.56         34.7718         282.131 
        1.32537         243.851         34.3937         280.313 
        1.33151         241.565         34.0199         279.207 
        1.33765         239.709         33.6518         278.103 
        1.34378         239.032           33.29         276.264 
        1.34992         237.533         32.9332         274.781 
        1.35606         236.709         32.5809         273.153 
         1.3622          234.27         32.2344         272.387 
        1.36833         232.672         31.8938         271.325 
        1.37445         231.506         31.5583          269.12 
        1.38059         229.542         31.2266         268.311 
        1.38675         228.612         30.8989         267.321 
        1.39288         227.283         30.5772         265.475 
        1.39901         226.202         30.2603         263.921 
        1.40515         224.522         29.9471         262.409 
         1.4113          223.14         29.6385         261.077 
        1.41742         221.418         29.3354         260.071 
        1.42355         220.652          29.036          258.62 
         1.4297         218.588         28.7399         257.081 
        1.43585         217.424         28.4481         256.694 
        1.44198         216.442         28.1614         255.103 
        1.44809         214.827         27.8792         253.872 
        1.45423         213.746         27.5999         252.026 
        1.46036         212.358         27.3249         251.099 
        1.46649          210.81         27.0536         250.133 
        1.47263         209.824         26.7857         248.505 
        1.47877         208.204         26.5216         247.081 
        1.48491         206.317         26.2607         245.706 
        1.49104         205.714         26.0038         244.824 
        1.49718         204.007         25.7502         244.368 
        1.50333         203.231         25.4996         242.725 
        1.50947         201.786         25.2528         241.411 
         1.5156         200.088         25.0096         240.484 
        1.52172         199.413         24.7697         239.157 
        1.52787         197.616         24.5324         238.144 
          1.534         197.175         24.2986         236.922 
        1.54013          195.42          24.068         235.865 
        1.54627          194.38           23.84         234.979 
        1.55241         193.098          23.615         233.908 
        1.55855         191.671         23.3931         232.745 
        1.56467         190.754         23.1748           231.3 
         1.5708         189.769         22.9586         230.117 
        1.57695         188.611         22.7449         229.094 
        1.58308         187.378         22.5343          227.87 
        1.58922         185.804         22.3263         226.845 
        1.59535         184.544          22.121         226.068 
         1.6015         183.673         21.9181         225.246 
        1.60764         182.613         21.7177         223.997 
        1.61376         181.665         21.5205         222.659 
        1.61989         180.549         21.3255         221.696 
        1.62604         179.331         21.1325         220.514 
        1.63218         178.249          20.942         219.514 
        1.63831         176.856         20.7543         218.716 
        1.64444         176.111         20.5689         217.572 
        1.65059         175.113         20.3852         216.661 
        1.65673         173.834         20.2041         215.735 
        1.66285         172.564         20.0256         214.602 
        1.66898         171.728         19.8492         213.422 
        1.67512         171.096         19.6746         212.587 
        1.68127         169.258          19.502         211.603 
         1.6874         168.708         19.3318         210.586 
        1.69353         167.401         19.1638         209.853 
        1.69967         166.107         18.9973         208.839 
        1.70581         165.559         18.8329         207.878 
        1.71193         164.252         18.6711         206.969 
        1.71806         163.569         18.5108         205.785 
        1.72421          162.38         18.3521         204.883 
        1.73035          161.59         18.1955         203.989 
        1.73649         160.674         18.0407         202.946 
        1.74262         159.627         17.8878         202.073 
        1.74876          158.32         17.7366         201.176 
        1.75489          157.69         17.5875         200.358 
        1.76101         156.275         17.4401         199.657 
        1.76715         155.868         17.2943         198.763 
        1.77329         154.698         17.1499         197.899 
        1.77943         154.022         17.0071         196.993 
        1.78557         153.043         16.8661         195.923 
        1.79171         152.222         16.7267         195.056 
        1.79785         151.058         16.5889         194.231 
        1.80399         150.245         16.4527         193.256 
        1.81012         149.295         16.3181         192.683 
        1.81625         148.719         16.1852         191.913 
        1.82239         147.445         16.0535         190.789 
        1.82853         146.906         15.9233          189.97 
        1.83466         145.781         15.7947         189.098 
        1.84078         145.098         15.6677         188.211 
        1.84692         143.837         15.5419         187.666 
        1.85306         143.422         15.4173         186.727 
         1.8592         142.419         15.2942         185.671 
        1.86533         141.691         15.1726          185.13 
        1.87147         140.608         15.0521         184.435 
