# k  (h/Mpc)    Pcb(k)  (Mpc/h)^3    Pcb_linear(k) (Mpc/h)^3    Pcb_NL(k) (Mpc/h)^3   ShotnoiseSubtracted = false
     0.00783031          4411.5         4460.74         4441.26 
       0.013688         5601.24         5583.35         5555.61 
       0.019231          5736.7         5729.34          5695.7 
      0.0249154          5303.2         5361.19         5334.51 
      0.0312784         4663.86         4682.34         4665.15 
      0.0375637         4000.71         3990.92         3977.65 
      0.0433917         3432.08         3453.61         3441.76 
      0.0492413         3049.06         3050.08         3039.94 
      0.0555754         2718.18         2750.02         2739.92 
      0.0619321            2562         2545.32         2534.75 
       0.067871         2370.37         2393.16         2382.25 
      0.0738098         2217.17         2241.51         2223.82 
      0.0800417         2026.53         2061.52         2046.15 
      0.0862327         1842.13         1860.79          1854.5 
      0.0921407         1660.33         1662.82         1659.75 
      0.0982031         1464.97         1472.68         1479.94 
       0.104506         1325.33         1306.14         1321.21 
       0.110769         1199.24         1180.35         1190.86 
       0.116806          1106.3         1094.99         1104.38 
       0.122832         1053.92         1036.68         1046.82 
       0.129052         995.307          992.53         1000.88 
       0.135211         954.511         952.477         960.525 
       0.141259         917.295         907.742          918.44 
       0.147318         867.839         853.731         870.164 
       0.153489         799.574         790.685         803.033 
       0.159709           741.6          724.32         742.631 
       0.165845         692.038         662.534         689.984 
       0.171974         635.781         609.609          636.35 
       0.178125         597.523         567.813         599.686 
       0.184229         569.042         537.252         567.711 
        0.19034         534.533         515.103         543.659 
       0.196428          525.17         497.836         521.857 
       0.202534         512.531         481.613         506.337 
       0.208729         489.359         463.341         486.764 
       0.214876         463.822         442.029         471.649 
       0.220989         447.116         417.981         450.189 
       0.227147          418.38          392.43         425.765 
        0.23329         396.633         367.666         405.342 
       0.239377         380.865         345.616         384.446 
       0.245482          355.09         327.029         362.937 
       0.251667         347.558         311.991         350.034 
       0.257832         335.572         300.189         336.709 
       0.263955         324.261         290.507         325.554 
       0.270079         313.829         281.631         316.077 
        0.27624         308.591         272.467         305.713 
       0.282372         296.868         262.508         297.038 
        0.28843         285.627         251.783         286.868 
       0.294538         272.942         240.413         277.097 
       0.300721         267.475         228.969         267.558 
        0.30691         254.149         218.194         257.774 
       0.313033         246.525         208.679         247.121 
       0.319153         235.599         200.468         239.302 
       0.325316         230.452         193.439         232.845 
        0.33145         222.631         187.364         224.691 
       0.337538         218.923         181.873         218.451 
       0.343633         211.885         176.526         214.345 
       0.349808           205.6         171.014         209.556 
       0.355968         201.305         165.293         205.023 
       0.362074         195.375         159.464         198.926 
       0.368217         189.666         153.588         191.829 
       0.374374          183.61         147.886         186.728 
       0.380519         179.386         142.565         180.995 
       0.386598         174.482         137.754         176.457 
       0.392688         171.438         133.419          172.05 
        0.39888          166.87         129.433         167.249 
       0.405048         163.028         125.771         164.125 
       0.411186         159.348         122.313         160.654 
       0.417313          155.47         118.928         156.062 
       0.423458         151.984         115.535          152.99 
       0.429607         148.108         112.135         149.646 
       0.435692         143.488         108.784         146.314 
       0.441815         142.108         105.479         144.072 
       0.447964         139.477         102.296         140.278 
       0.454126         133.353         99.2789         136.286 
       0.460267         131.665         96.4648         134.392 
       0.466387         129.334         93.8544         131.152 
        0.47254         126.865         91.3936         128.776 
       0.478662         125.202         89.0633         126.209 
       0.484765         121.719         86.8228          123.02 
       0.490885         119.537         84.6322         121.421 
       0.497035         117.835         82.4647         119.605 
       0.503198         114.612         80.3219         117.101 
       0.509342         112.275         78.2312         115.203 
       0.515458         110.565         76.2122         113.793 
       0.521598          108.97         74.2595         110.759 
       0.527764          107.16         72.3812         108.193 
       0.533884         105.295         70.6054          106.58 
           0.54         103.287         68.9185         104.862 
       0.546137         102.166         67.2991         103.532 
       0.552299         100.578         65.7317         101.176 
       0.558452         98.1231          64.213         99.3611 
       0.564573         96.3238         62.7414         98.2956 
       0.570708         95.1471         61.3031         96.7001 
       0.576825         93.5323         59.9032         94.9625 
       0.582926         91.7283         58.5411         93.4211 
       0.589034         89.8817         57.2148         92.4005 
       0.595184         88.7682         55.9227         90.7485 
       0.601379         87.6966         54.6689          89.691 
       0.607522         85.4933         53.4729         87.6883 
       0.613639         85.2709         52.3245         86.7234 
       0.619772         83.2559         51.2107         85.2324 
       0.625918         82.4672         50.1276         84.4335 
       0.632068          81.418         49.0738         82.9064 
       0.638161          80.258         48.0578          82.038 
         0.6443         79.1154         47.0614          80.613 
       0.650464         77.9467          46.088         79.1691 
       0.656582          77.044         45.1474         78.5476 
       0.662703         75.5125         44.2316         77.1504 
       0.668861         74.6696         43.3358         76.3405 
       0.675024         73.6605         42.4646         75.1308 
       0.681124         72.6013         41.6275         74.1313 
       0.687237         71.3087         40.8133         73.1444 
       0.693381         70.6472          40.019         72.0832 
       0.699536         69.5173         39.2459         71.6349 
       0.705665         69.7717         38.4973         70.8232 
       0.711789         67.8097         37.7688         69.3386 
       0.717957         67.2847         37.0536         68.8457 
        0.72409         66.3395         36.3599         68.2912 
       0.730186         65.2413         35.6873         67.3514 
       0.736317         65.0088         35.0275          66.341 
       0.742472         64.0154         34.3817         65.6178 
       0.748622         63.4255         33.7529         64.7697 
        0.75476         62.6386         33.1417         64.0384 
       0.760888         61.6973         32.5471         63.2354 
       0.767043         61.0471         31.9654         62.8503 
       0.773185         60.2622         31.3997         62.2208 
       0.779291         59.9063         30.8513         61.5033 
       0.785407         59.3503         30.3155          60.597 
       0.791564         58.3875         29.7891          59.948 
       0.797719         57.4827         29.2756         59.5327 
       0.803834         57.2854         28.7774         58.6906 
       0.809972          56.289         28.2889         58.1098 
       0.816124         55.6287         27.8105         57.6328 
       0.822261         55.2641         27.3445         56.8504 
       0.828378         54.8076         26.8906         56.0784 
       0.834502          54.165         26.4466         55.8816 
       0.840667         53.6486         26.0098          55.309 
       0.846816         52.8975         25.5841         54.7306 
       0.852925         52.4418         25.1708         54.2758 
       0.859047          51.722         24.7658           53.56 
       0.865192         51.3863         24.3686         53.1251 
       0.871341         51.1125         23.9798         52.6133 
       0.877463          50.111         23.6014         52.1467 
       0.883569         49.7482         23.2322          51.786 
       0.889708         49.4365         22.8691          51.187 
       0.895864         48.9334         22.5129         50.6991 
       0.902008         48.5107          22.165          50.231 
       0.908149         48.0807         21.8248         49.8816 
       0.914301         47.7312         21.4911         49.5219 
       0.920448         47.1033         21.1648         48.9454 
       0.926574         46.7271         20.8465         48.4109 
       0.932687         46.3028         20.5354         48.1144 
       0.938823         45.6289         20.2296          47.555 
       0.944975         45.4939         19.9293         47.1354 
       0.951105         45.0125         19.6363         46.8997 
       0.957225         44.4636         19.3496         46.4425 
       0.963368         44.3574         19.0678         45.9442 
       0.969511         43.9576         18.7916         45.5604 
       0.975621         43.5753         18.5224         45.3836 
       0.981748         43.0394         18.2578         44.9434 
       0.987916          42.762         17.9967         44.6043 
        0.99406         42.4811         17.7418          44.228 
        1.00019         41.9123         17.4924         43.8484 
        1.00632         41.7312         17.2479          43.513 
        1.01246         41.3955         17.0079         43.1458 
        1.01859         40.8435         16.7728          42.869 
        1.02471         40.8436         16.5425         42.5542 
        1.03085         40.4153         16.3157         42.1645 
        1.03698         39.9075         16.0937         41.8171 
        1.04314         39.5638         15.8749         41.4121 
        1.04929         39.3446         15.6607         41.2398 
        1.05541         38.9159         15.4514         41.0799 
        1.06154         38.8034         15.2454         40.6081 
        1.06769         38.4303         15.0428         40.3038 
        1.07382          38.172         14.8446         40.0546 
        1.07993         38.0072         14.6504         39.6815 
        1.08607         37.5035         14.4589         39.4251 
        1.09222         37.3756         14.2707          39.209 
        1.09836          37.013         14.0861         38.9219 
        1.10449         36.7601         13.9049         38.5661 
        1.11063         36.2711         13.7268         38.3105 
        1.11677         36.1198         13.5518         38.0333 
         1.1229         36.0027         13.3802          37.786 
        1.12903         35.4759         13.2115         37.5293 
        1.13518         35.3775         13.0455         37.2202 
        1.14131         35.2628         12.8825         37.0196 
        1.14745         34.8301         12.7224         36.7773 
        1.15359          34.734          12.565         36.5565 
        1.15973         34.3218         12.4102         36.3222 
        1.16584         34.0283         12.2587         36.0294 
        1.17197         34.0168         12.1095         35.8149 
        1.17811         33.6087         11.9624         35.4634 
        1.18424         33.3052         11.8181         35.2741 
        1.19038         33.2693         11.6758         35.1894 
        1.19652         33.0608         11.5359         34.8382 
        1.20267         32.7962         11.3984         34.6941 
        1.20881         32.5202         11.2631         34.4416 
        1.21495         32.2828         11.1302         34.3111 
        1.22108         32.0811         10.9995         34.0024 
         1.2272         31.7054         10.8712         33.8578 
        1.23334         31.6235         10.7447         33.6264 
        1.23949         31.4592         10.6199         33.3392 
        1.24562         31.2548         10.4974         33.1893 
        1.25174         31.0988          10.377         33.0049 
        1.25789         30.8588         10.2582         32.7775 
        1.26402         30.6947         10.1415         32.5573 
        1.27014         30.3619         10.0269         32.4039 
        1.27628         30.2149         9.91366         32.1759 
        1.28244         30.0255           9.802         32.0805 
        1.28858         29.9155         9.69222         31.8357 
        1.29471         29.7355         9.58436         31.6609 
        1.30084         29.5212         9.47826         31.4629 
        1.30697         29.2766         9.37361         31.2293 
        1.31312         29.0346         9.27039         31.1053 
        1.31925         28.9166         9.16906         30.9196 
        1.32537         28.8054         9.06935         30.7644 
        1.33151         28.5617         8.97077         30.6083 
        1.33765         28.4986         8.87372         30.4313 
        1.34378         28.3357         8.77831         30.2535 
        1.34992         27.9478         8.68423          30.112 
        1.35606         27.8619         8.59134         29.9649 
         1.3622         27.6955         8.49997         29.8064 
        1.36833         27.5203         8.41016         29.6467 
        1.37445          27.508         8.32169         29.4281 
        1.38059         27.3012         8.23422         29.3115 
        1.38675         27.0173         8.14781         29.1739 
        1.39288         26.9569         8.06298         29.0112 
        1.39901         26.7203          7.9794         28.8633 
        1.40515         26.6123         7.89682         28.6763 
         1.4113         26.4687         7.81544         28.5097 
        1.41742         26.1959         7.73552          28.408 
        1.42355         26.1682         7.65657         28.2291 
         1.4297         25.9804         7.57849         28.0508 
        1.43585         25.9243         7.50153         27.9638 
        1.44198         25.6539         7.42594         27.8109 
        1.44809         25.5579         7.35153         27.6709 
        1.45423          25.446         7.27788         27.4747 
        1.46036         25.3439         7.20536         27.3452 
        1.46649         25.1474         7.13382         27.2486 
        1.47263         24.9924         7.06319         27.1392 
        1.47877         24.8883         6.99354          27.021 
        1.48491          24.735         6.92473         26.8313 
        1.49104         24.6684           6.857         26.7057 
        1.49718         24.4291         6.79012         26.5833 
        1.50333         24.3658         6.72403          26.479 
        1.50947         24.2572         6.65896         26.3735 
         1.5156         24.0582         6.59484         26.2324 
        1.52172         23.8706         6.53158         26.0691 
        1.52787         23.8976         6.46901         25.9398 
          1.534         23.6751         6.40734         25.8366 
        1.54013         23.4932         6.34655         25.6962 
        1.54627         23.4513         6.28643         25.5517 
        1.55241         23.2897         6.22708         25.4438 
        1.55855         23.1602         6.16859         25.3539 
        1.56467         23.0492         6.11101         25.2446 
         1.5708         22.9707           6.054         25.1171 
        1.57695         22.7319         5.99764         24.9755 
        1.58308         22.7828         5.94213         24.8605 
        1.58922         22.6029         5.88728         24.7854 
        1.59535         22.4544         5.83315         24.6761 
         1.6015         22.3468         5.77962         24.5418 
        1.60764         22.2899         5.72679         24.4098 
        1.61376         22.1215         5.67478         24.2991 
        1.61989         21.9406         5.62336         24.2181 
        1.62604         21.9239         5.57247         24.1524 
        1.63218         21.7605         5.52224         24.0594 
        1.63831         21.7124         5.47275         23.9395 
        1.64444         21.5484         5.42385          23.831 
        1.65059         21.4281         5.37543         23.7072 
        1.65673         21.3597         5.32766         23.5978 
        1.66285         21.2255          5.2806         23.5096 
        1.66898         21.1541         5.23409         23.4157 
        1.67512         21.0787         5.18805         23.2912 
        1.68127          20.906         5.14253         23.2059 
         1.6874         20.8116         5.09765         23.1054 
        1.69353         20.7557         5.05334         22.9313 
        1.69967         20.5823         5.00944         22.8641 
        1.70581         20.4972         4.96609         22.8158 
        1.71193         20.3984         4.92342         22.7235 
        1.71806         20.3159         4.88116         22.6187 
        1.72421         20.2098         4.83931         22.5198 
        1.73035          20.126           4.798         22.4392 
        1.73649         20.0122         4.75719         22.3515 
        1.74262         19.9488         4.71688         22.2139 
        1.74876         19.8484         4.67701         22.1188 
        1.75489         19.7397         4.63769         22.0578 
        1.76101         19.6555         4.59883         21.9793 
        1.76715         19.5816         4.56036         21.8677 
        1.77329         19.4984         4.52229         21.7582 
        1.77943         19.3787         4.48464         21.6754 
        1.78557         19.2966         4.44747         21.6094 
        1.79171         19.2295         4.41071         21.5207 
        1.79785         19.0862         4.37437         21.4371 
        1.80399         19.0011         4.33844         21.3814 
        1.81012         18.9732         4.30297         21.2658 
        1.81625         18.8612          4.2679         21.1649 
        1.82239         18.8255         4.23318         21.1117 
        1.82853         18.6474         4.19886         21.0293 
        1.83466         18.5562         4.16495         20.9453 
        1.84078         18.4302         4.13146         20.8705 
        1.84692         18.4321         4.09827         20.7848 
        1.85306         18.3046         4.06542         20.6995 
         1.8592         18.2383         4.03297         20.6213 
        1.86533         18.1578         4.00089         20.5414 
        1.87147         18.0673         3.96913          20.455 
