# k  (h/Mpc)    P(k)  (Mpc/h)^3    P_linear(k)  (Mpc/h)^3     P_NL(k)  ShotnoiseSubtracted = false
     0.00783031         17393.7         17650.8         17561.8 
       0.013688         22279.6         22052.8         21892.5 
       0.019231         22647.2         22617.5         22401.1 
      0.0249154         20649.5         21158.8         20922.7 
      0.0312784         18208.8         18476.8         18228.1 
      0.0375637         15705.7           15747         15527.8 
      0.0433917           13328         13626.2           13395 
      0.0492413         11918.8         12033.6         11819.7 
      0.0555754         10465.5         10849.4         10660.9 
      0.0619321         10033.4         10041.6          9857.6 
       0.067871         9123.04         9441.19         9270.29 
      0.0738098         8537.05          8842.8         8577.59 
      0.0800417         7744.04         8132.68         7899.26 
      0.0862327         7090.86         7340.73         7225.61 
      0.0921407         6483.82         6559.72         6482.43 
      0.0982031         5739.79         5809.58         5863.09 
       0.104506         5303.17         5152.58          5309.7 
       0.110769          4825.6         4656.31         4772.39 
       0.116806         4499.03         4319.57         4425.07 
       0.122832         4267.48         4089.55         4201.41 
       0.129052         3978.87         3915.36         4013.05 
       0.135211         3813.26         3757.35         3840.41 
       0.141259         3691.92         3580.87         3705.84 
       0.147318         3509.96          3367.8         3540.56 
       0.153489         3228.07          3119.1         3261.24 
       0.159709          3047.4         2857.29          3070.9 
       0.165845          2914.9         2613.55         2920.11 
       0.171974          2732.4         2404.78         2725.48 
       0.178125         2585.29          2239.9         2613.53 
       0.184229          2457.3         2119.34         2465.48 
        0.19034         2336.19         2031.96         2365.33 
       0.196428         2293.88         1963.85         2275.41 
       0.202534         2212.51         1899.85         2217.16 
       0.208729         2124.48         1827.77         2120.25 
       0.214876         2049.52          1743.7         2081.85 
       0.220989         1980.43         1648.83         2022.39 
       0.227147         1898.31         1548.04         1953.63 
        0.23329         1821.03         1450.35         1886.51 
       0.239377         1791.72         1363.37         1801.59 
       0.245482         1681.94         1290.04         1714.89 
       0.251667         1671.65         1230.72         1667.12 
       0.257832         1605.49         1184.17         1609.56 
       0.263955         1554.06         1145.98         1566.24 
       0.270079         1503.75         1110.96         1528.27 
        0.27624         1486.99         1074.81         1489.03 
       0.282372         1426.74         1035.53         1469.07 
        0.28843         1422.78         993.222         1442.04 
       0.294538         1354.69         948.368         1400.33 
       0.300721         1344.39         903.224         1356.72 
        0.30691         1295.04         860.718         1334.93 
       0.313033         1268.42         823.184         1288.77 
       0.319153         1250.78          790.79         1249.25 
       0.325316         1209.51         763.063         1227.63 
        0.33145         1184.69         739.104         1185.49 
       0.337538         1161.58         717.441         1168.71 
       0.343633         1139.15         696.347         1157.42 
       0.349808         1102.71         674.611         1141.97 
       0.355968         1094.15         652.035          1123.4 
       0.362074         1084.72         629.044         1103.85 
       0.368217         1050.06         605.862         1077.53 
       0.374374         1013.48         583.366         1055.61 
       0.380519         1015.91         562.383         1033.74 
       0.386598         986.463         543.402         1018.75 
       0.392688         982.444           526.3         996.522 
        0.39888         954.563         510.577         979.675 
       0.405048         944.749         496.132          963.27 
       0.411186          931.29          482.49         948.301 
       0.417313         911.783         469.139         937.848 
       0.423458          896.06         455.752          921.43 
       0.429607          885.55         442.346         907.985 
       0.435692         868.183         429.123         888.373 
       0.441815         860.407         416.088         885.319 
       0.447964         842.662         403.528         874.231 
       0.454126         837.096         391.629         848.793 
       0.460267         816.029         380.524         846.628 
       0.466387         805.594         370.231         831.682 
        0.47254         803.438         360.522         819.789 
       0.478662         792.984         351.331         808.545 
       0.484765         771.306         342.492         800.505 
       0.490885         767.047         333.851         785.777 
       0.497035           750.4           325.3         779.448 
       0.503198         746.393         316.847         771.182 
       0.509342         738.056           308.6         757.524 
       0.515458         734.304         300.636         752.244 
       0.521598         716.247         292.933         745.069 
       0.527764         703.881         285.524         737.913 
       0.533884         701.636         278.518         729.205 
           0.54         695.865         271.864         720.534 
       0.546137         688.085         265.476         712.695 
       0.552299         679.924         259.294         702.979 
       0.558452         673.799         253.302         697.623 
       0.564573         665.629         247.497         691.402 
       0.570708         658.653         241.824         682.577 
       0.576825         641.513         236.302         674.043 
       0.582926         644.497         230.928         669.713 
       0.589034         637.222         225.697         659.941 
       0.595184         631.888         220.599         653.293 
       0.601379         622.776         215.653         647.543 
       0.607522         614.179         210.936         637.864 
       0.613639         614.141         206.406         636.248 
       0.619772         602.229         202.012         634.021 
       0.625918         597.864          197.74         625.612 
       0.632068         590.423         193.582         622.275 
       0.638161         587.784         189.574         612.687 
         0.6443         578.069         185.644         607.718 
       0.650464         576.295         181.804         600.038 
       0.656582          570.58         178.094         596.763 
       0.662703         568.751         174.481         592.111 
       0.668861         559.421         170.948          589.67 
       0.675024         554.566         167.511          585.78 
       0.681124         550.864         164.209         576.957 
       0.687237         546.673         160.997         571.835 
       0.693381         539.389         157.864         566.471 
       0.699536         530.318         154.814         562.801 
       0.705665         530.537         151.861         556.021 
       0.711789         527.376         148.987         552.018 
       0.717957         522.441         146.166         551.427 
        0.72409         519.893          143.43         545.456 
       0.730186         511.864         140.776         539.741 
       0.736317         509.443         138.174         536.321 
       0.742472         505.829         135.626         532.991 
       0.748622          500.68         133.146         527.538 
        0.75476         492.902         130.734         527.891 
       0.760888         488.943         128.389         521.862 
       0.767043         488.813         126.094          515.11 
       0.773185         484.289         123.863         512.251 
       0.779291         479.282           121.7         507.997 
       0.785407          475.31         119.586         504.889 
       0.791564         470.464          117.51         503.444 
       0.797719         468.611         115.484         498.762 
       0.803834         462.769         113.519         495.499 
       0.809972         461.696         111.592         492.447 
       0.816124         460.174         109.705         486.967 
       0.822261         453.354         107.866         484.549 
       0.828378         451.471         106.076         481.022 
       0.834502         446.047         104.324         479.402 
       0.840667         442.907         102.601         475.733 
       0.846816         440.605         100.922         472.118 
       0.852925          437.73         99.2917         469.319 
       0.859047         435.913         97.6943         464.617 
       0.865192         430.029         96.1271         461.794 
       0.871341         426.477         94.5937         459.039 
       0.877463         426.413          93.101         456.709 
       0.883569         421.834         91.6446          454.58 
       0.889708         419.446         90.2121         449.865 
       0.895864         418.014         88.8069         447.541 
       0.902008         414.057         87.4347          444.46 
       0.908149         408.443         86.0925         440.278 
       0.914301         406.902         84.7764         436.912 
       0.920448          404.81         83.4893         436.229 
       0.926574         398.525         82.2335          433.24 
       0.932687         397.952         81.0063         429.423 
       0.938823         393.852         79.7999          428.43 
       0.944975         394.143         78.6154         425.547 
       0.951105         389.458         77.4594         422.272 
       0.957225         386.873         76.3288         420.029 
       0.963368         382.557          75.217         417.287 
       0.969511         381.492         74.1275         414.875 
       0.975621         379.359         73.0656         412.227 
       0.981748         376.487         72.0218         410.037 
       0.987916         374.554          70.992         408.071 
        0.99406         368.915         69.9864         405.281 
        1.00019         367.211         69.0024         401.881 
        1.00632         365.767         68.0383         399.344 
        1.01246         362.549         67.0913         397.045 
        1.01859         362.258         66.1639         394.605 
        1.02471         357.442         65.2554         392.576 
        1.03085         355.759         64.3609         391.401 
        1.03698         354.131         63.4852         389.851 
        1.04314         351.208         62.6221         386.876 
        1.04929          347.72         61.7772          383.52 
        1.05541         348.407         60.9513         381.241 
        1.06154         342.749         60.1386         379.431 
        1.06769         341.445         59.3396         376.807 
        1.07382         338.735         58.5577         374.688 
        1.07993         336.935         57.7918         372.792 
        1.08607         335.974         57.0364         370.352 
        1.09222         332.071         56.2939         368.307 
        1.09836         329.863         55.5655         366.927 
        1.10449         327.694         54.8509           365.4 
        1.11063         323.512         54.1482         362.055 
        1.11677         324.264         53.4581         360.566 
         1.1229         321.605         52.7813         358.239 
        1.12903         319.495         52.1156         356.265 
        1.13518         316.169         51.4609         353.755 
        1.14131         314.814         50.8179          352.52 
        1.14745          312.57         50.1863         349.552 
        1.15359         310.917         49.5653         349.023 
        1.15973         308.714         48.9546         346.595 
        1.16584         306.346          48.357         345.354 
        1.17197         305.958         47.7686         343.531 
        1.17811         302.499         47.1881         340.928 
        1.18424         300.255         46.6191         339.281 
        1.19038         299.022         46.0578         338.167 
        1.19652         296.758          45.506         335.328 
        1.20267         295.579         44.9633         334.085 
        1.20881         293.444         44.4296         332.233 
        1.21495         291.265         43.9054         330.265 
        1.22108         289.504         43.3898         328.194 
         1.2272         287.804         42.8838         327.219 
        1.23334         286.073         42.3846         325.053 
        1.23949         283.333         41.8923         323.199 
        1.24562         282.399         41.4092         321.349 
        1.25174         280.806         40.9345         319.883 
        1.25789         278.108         40.4658         318.036 
        1.26402         276.201         40.0053         317.007 
        1.27014         274.444         39.5531         314.715 
        1.27628         272.524         39.1066         314.014 
        1.28244         272.376         38.6661         312.482 
        1.28858         269.698          38.233         310.655 
        1.29471         268.429         37.8076         308.737 
        1.30084         266.104          37.389          306.65 
        1.30697         264.904         36.9762         305.577 
        1.31312         262.043          36.569         304.146 
        1.31925         260.693         36.1693         302.447 
        1.32537             260          35.776         300.553 
        1.33151         257.566         35.3871         299.438 
        1.33765         255.493         35.0043         298.219 
        1.34378         254.816         34.6279         296.065 
        1.34992         253.197         34.2568         294.608 
        1.35606         251.949         33.8904         292.886 
         1.3622         249.575         33.5299         292.073 
        1.36833         248.145         33.1757         290.928 
        1.37445          246.56         32.8267         288.666 
        1.38059         244.604         32.4816         287.699 
        1.38675         243.512         32.1408         286.549 
        1.39288         242.119         31.8061         284.795 
        1.39901         240.791         31.4764         283.042 
        1.40515         239.284         31.1507         281.376 
         1.4113         237.618         30.8297         279.929 
        1.41742         235.782         30.5144         278.796 
        1.42355          234.98          30.203         277.429 
         1.4297         232.954          29.895         275.607 
        1.43585         231.628         29.5914         275.161 
        1.44198          230.61         29.2932         273.513 
        1.44809         228.556         28.9997         272.118 
        1.45423         227.403         28.7091         270.198 
        1.46036         226.055         28.4231         269.189 
        1.46649         224.533         28.1409         268.081 
        1.47263         223.504         27.8622         266.312 
        1.47877         221.669         27.5875         264.845 
        1.48491         219.576         27.3161          263.36 
        1.49104         218.945         27.0489         262.364 
        1.49718         217.245         26.7851         261.973 
        1.50333          216.39         26.5244         260.028 
        1.50947         214.845         26.2677          258.56 
         1.5156         212.999         26.0148         257.768 
        1.52172         212.306         25.7652         256.499 
        1.52787          210.42         25.5184          255.24 
          1.534         209.891         25.2751         253.886 
        1.54013         207.888         25.0353         252.804 
        1.54627         206.985         24.7982         251.838 
        1.55241         205.615         24.5641         250.704 
        1.55855         203.837         24.3333         249.494 
        1.56467         203.285         24.1062         247.896 
         1.5708         201.979         23.8813         246.581 
        1.57695         200.653          23.659         245.459 
        1.58308         199.363           23.44         244.164 
        1.58922         197.514         23.2236         243.136 
        1.59535         196.384         23.0101          242.25 
         1.6015         195.299         22.7989         241.443 
        1.60764         194.286         22.5906         240.118 
        1.61376         193.274         22.3854         238.526 
        1.61989         192.056         22.1825         237.579 
        1.62604         190.695         21.9818         236.314 
        1.63218         189.593         21.7837         235.211 
        1.63831         188.121         21.5884         234.354 
        1.64444         187.268         21.3955         233.096 
        1.65059         186.363         21.2045         232.187 
        1.65673          184.94         21.0161         231.238 
        1.66285         183.502         20.8304         229.979 
        1.66898           182.7          20.647          228.63 
        1.67512         181.868         20.4654         227.732 
        1.68127         179.905         20.2858         226.686 
         1.6874         179.441         20.1088         225.614 
        1.69353         177.992          19.934         224.884 
        1.69967          176.64         19.7608         223.781 
        1.70581         176.023         19.5898         222.677 
        1.71193          174.58         19.4215         221.677 
        1.71806         173.929         19.2548         220.495 
        1.72421         172.614         19.0897         219.476 
        1.73035         171.771         18.9267         218.496 
        1.73649         170.758         18.7657         217.421 
        1.74262         169.664         18.6067         216.363 
        1.74876         168.197         18.4495         215.417 
        1.75489          167.62         18.2943         214.649 
        1.76101         166.121         18.1411         213.903 
        1.76715         165.551         17.9893         212.819 
        1.77329         164.343         17.8391         211.932 
        1.77943         163.613         17.6906         211.062 
        1.78557         162.483          17.544         209.857 
        1.79171         161.716          17.399         208.856 
        1.79785         160.317         17.2556          207.98 
        1.80399         159.563         17.1139         206.992 
        1.81012         158.598          16.974         206.329 
        1.81625         157.894         16.8357         205.508 
        1.82239         156.539         16.6987         204.386 
        1.82853         155.995         16.5633         203.486 
        1.83466         154.874         16.4295         202.558 
        1.84078         154.056         16.2974         201.633 
        1.84692         152.829         16.1665         200.964 
        1.85306          152.19         16.0369         199.987 
         1.8592          151.18         15.9089         198.912 
        1.86533         150.474         15.7824         198.209 
        1.87147         149.398         15.6571         197.368 
        1.87761          148.39         15.5331         196.478 
