# k  (h/Mpc)    P(k)  (Mpc/h)^3    P_linear(k)  (Mpc/h)^3     P_NL(k)  ShotnoiseSubtracted = false
     0.00783031         1846.87          1865.4         1857.24 
       0.013688         2336.64         2335.92         2325.28 
       0.019231         2398.66         2397.36         2384.99 
      0.0249154         2227.22         2243.48         2234.95 
      0.0312784         1955.83          1959.5         1955.99 
      0.0375637         1674.63         1670.19         1668.15 
      0.0433917         1441.61         1445.35         1444.29 
      0.0492413         1277.88         1276.49         1275.87 
      0.0555754         1144.32         1150.92         1149.77 
      0.0619321         1071.38         1065.26         1063.77 
       0.067871         996.991         1001.58         999.571 
      0.0738098         932.641         938.117         934.725 
      0.0800417         854.481         862.794          859.91 
      0.0862327         774.755         778.784         777.734 
      0.0921407         695.595         695.932         695.729 
      0.0982031         614.204         616.354         618.196 
       0.104506         551.412         546.654         549.987 
       0.110769         498.422         494.006         496.427 
       0.116806         459.741         458.282         460.336 
       0.122832         437.516          433.88         435.999 
       0.129052         415.311         415.401         417.069 
       0.135211         398.069         398.638         400.242 
       0.141259         381.434         379.915         381.988 
       0.147318         360.369          357.31         360.578 
       0.153489         332.555         330.924         333.434 
       0.159709         306.354         303.149         306.824 
       0.165845          283.83         277.289         282.765 
       0.171974         259.692         255.139         260.386 
       0.178125         243.258         237.647          243.85 
       0.184229         231.183         224.856         230.842 
        0.19034         218.521         215.586         221.142 
       0.196428         213.356         208.359         212.912 
       0.202534         208.126         201.569          206.24 
       0.208729          198.89         193.922         198.471 
       0.214876         188.529         185.002         190.806 
       0.220989         180.889         174.937         181.223 
       0.227147         168.544         164.244          170.66 
        0.23329         158.848         153.879         161.188 
       0.239377          150.94         144.651         152.274 
       0.245482         141.609         136.871         143.832 
       0.251667         137.234         130.577         137.978 
       0.257832         132.188         125.638         132.732 
       0.263955         127.752         121.586         128.317 
       0.270079         123.842         117.871          124.42 
        0.27624         121.034         114.036         120.298 
       0.282372         116.579         109.868         116.497 
        0.28843         111.532         105.379         112.156 
       0.294538         106.719          100.62         107.673 
       0.300721          103.27         95.8306         103.301 
        0.30691         98.0467         91.3208         98.9259 
       0.313033         94.3582         87.3385          94.714 
       0.319153         89.7118         83.9016         91.4376 
       0.325316         88.1528         80.9599         88.6155 
        0.33145         84.9921         78.4178         85.6592 
       0.337538         82.9923         76.1194         83.1447 
       0.343633          80.314         73.8814         80.9864 
       0.349808          78.063         71.5753         78.8722 
       0.355968         75.8368           69.18         76.9315 
       0.362074         73.2843         66.7407         74.3175 
       0.368217         70.8951         64.2811         71.4848 
       0.374374         68.4708         61.8943         69.3642 
       0.380519         66.5207          59.668         66.9814 
       0.386598         64.5478         57.6543          65.021 
       0.392688         63.0756         55.8398         63.2354 
        0.39888         61.1961         54.1716         61.3849 
       0.405048         59.7542          52.639         59.7277 
       0.411186         58.3469         51.1916         58.5954 
       0.417313         56.4838          49.775          56.865 
       0.423458         55.0547         48.3547         55.5515 
       0.429607         53.5098         46.9324         54.0245 
       0.435692         51.8467         45.5294         52.7207 
       0.441815          50.874         44.1464         51.5856 
       0.447964         49.8916         42.8138         50.0408 
       0.454126         47.8449         41.5514         48.6378 
       0.460267         46.9517         40.3732         47.6306 
       0.466387         45.5866         39.2811         46.3288 
        0.47254         44.8549          38.251         45.3695 
       0.478662          44.024         37.2758         44.3064 
       0.484765         42.7597          36.338          43.231 
       0.490885         41.7887         35.4212         42.5507 
       0.497035          41.169          34.514         41.7125 
       0.503198         40.0768         33.6172         40.5596 
       0.509342         39.0297         32.7422         39.7757 
       0.515458         38.1701         31.8971         39.1315 
       0.521598         37.4847         31.0799         37.9631 
       0.527764         36.6731         30.2938         37.0045 
       0.533884         36.0041         29.5505         36.2721 
           0.54         35.2128         28.8445         35.5459 
       0.546137          34.623         28.1667         34.9686 
       0.552299         34.0267         27.5108         34.0808 
       0.558452         32.9804         26.8751         33.4026 
       0.564573         32.4913         26.2592         32.9567 
       0.570708         31.9486         25.6572         32.3054 
       0.576825         31.1313         25.0714         31.6666 
       0.582926         30.5483         24.5012         31.0995 
       0.589034         29.7117         23.9462         30.6137 
       0.595184         29.3126         23.4053         29.8522 
       0.601379         28.7556         22.8806         29.4711 
       0.607522         28.2086         22.3801          28.802 
       0.613639         27.9153         21.8994          28.294 
       0.619772         27.1814         21.4332         27.8523 
       0.625918         27.0026           20.98         27.4013 
       0.632068         26.5493         20.5389         26.8387 
       0.638161         25.9553         20.1137         26.3877 
         0.6443         25.4338         19.6967         25.8875 
       0.650464         24.9593         19.2892         25.5502 
       0.656582         24.7846         18.8956         25.1243 
       0.662703         24.2989         18.5123         24.6464 
       0.668861         23.8306         18.1374         24.3411 
       0.675024         23.3914         17.7727         23.8302 
       0.681124         22.9845         17.4224         23.4533 
       0.687237         22.5831         17.0816         23.0311 
       0.693381         22.3591         16.7492           22.66 
       0.699536         21.7799         16.4256         22.3699 
       0.705665         21.6579         16.1123         22.0997 
       0.711789         21.1856         15.8074          21.652 
       0.717957         20.8833         15.5081         21.3437 
        0.72409         20.5562         15.2177         21.0716 
       0.730186         20.2694         14.9362         20.7093 
       0.736317         20.0295         14.6601         20.3908 
       0.742472         19.6792         14.3898         20.1867 
       0.748622         19.4442         14.1267         19.8263 
        0.75476         19.0599         13.8708         19.5361 
       0.760888         18.8049          13.622         19.2916 
       0.767043         18.5647         13.3785         19.0496 
       0.773185         18.2036         13.1417         18.7688 
       0.779291         18.0922         12.9122         18.5405 
       0.785407         17.8534          12.688          18.252 
       0.791564         17.5171         12.4677         18.0157 
       0.797719         17.1541         12.2528         17.7536 
       0.803834         17.1002         12.0442         17.4866 
       0.809972         16.9265         11.8398         17.3267 
       0.816124         16.5135         11.6396         17.0473 
       0.822261         16.3543         11.4445         16.8082 
       0.828378         16.1716         11.2545         16.5938 
       0.834502          16.001         11.0687         16.4315 
       0.840667         15.7597         10.8859         16.1772 
       0.846816         15.4683         10.7078         15.9951 
       0.852925         15.3207         10.5348          15.877 
       0.859047         15.1374         10.3653         15.6169 
       0.865192         14.9828          10.199         15.4157 
       0.871341           14.84         10.0363         15.2685 
       0.877463         14.5695         9.87793         15.0576 
       0.883569         14.3646          9.7234         14.8886 
       0.889708         14.1362         9.57142         14.6996 
       0.895864         14.0307         9.42233         14.5062 
       0.902008         13.9094         9.27674          14.366 
       0.908149         13.7441         9.13434          14.197 
       0.914301         13.6124         8.99471         14.0903 
       0.920448         13.3491         8.85814         13.8564 
       0.926574         13.2253          8.7249         13.7071 
       0.932687         13.0776          8.5947         13.4954 
       0.938823         12.8981          8.4667         13.3857 
       0.944975         12.7353         8.34103          13.243 
       0.951105         12.6209         8.21838         13.0451 
       0.957225         12.5109         8.09842         12.9744 
       0.963368         12.3605         7.98046         12.7966 
       0.969511         12.2443         7.86486         12.6747 
       0.975621         12.1132         7.75219         12.5178 
       0.981748         11.9548         7.64145         12.4026 
       0.987916         11.8545          7.5322         12.2551 
        0.99406         11.6852          7.4255         12.1376 
        1.00019         11.5018         7.32109         12.0291 
        1.00632         11.4753          7.2188         11.9001 
        1.01246         11.3453         7.11833          11.823 
        1.01859         11.1642         7.01994          11.664 
        1.02471         11.0993         6.92354         11.5046 
        1.03085         10.9842         6.82864          11.412 
        1.03698         10.8051         6.73572         11.3129 
        1.04314         10.7406         6.64415         11.1798 
        1.04929         10.5938         6.55451         11.0872 
        1.05541         10.4711         6.46689         10.9966 
        1.06154         10.3917         6.38066         10.8664 
        1.06769         10.3331         6.29588         10.7612 
        1.07382         10.1827         6.21292         10.6687 
        1.07993         10.0952         6.13166          10.563 
        1.08607         9.99748         6.05152         10.4572 
        1.09222         9.90372         5.97274         10.3641 
        1.09836         9.78315         5.89546         10.2412 
        1.10449         9.70325         5.81964         10.1513 
        1.11063         9.59614         5.74508         10.0726 
        1.11677         9.54065         5.67186         9.96718 
         1.1229          9.4642         5.60005         9.89123 
        1.12903           9.346         5.52942         9.82868 
        1.13518         9.23192         5.45996         9.72275 
        1.14131         9.15761         5.39174         9.62176 
        1.14745         9.06925         5.32472         9.52224 
        1.15359         9.00639         5.25884         9.44895 
        1.15973         8.92115         5.19405         9.36238 
        1.16584         8.78459         5.13064         9.30867 
        1.17197          8.7316          5.0682         9.22705 
        1.17811         8.67874         5.00662            9.12 
        1.18424         8.59319         4.94624         9.05411 
        1.19038         8.54737         4.88669         8.97189 
        1.19652         8.44772         4.82815         8.89594 
        1.20267         8.35091         4.77057         8.81418 
        1.20881          8.3248         4.71394         8.76743 
        1.21495         8.25007         4.65833           8.684 
        1.22108         8.14352         4.60362         8.61538 
         1.2272         8.08702         4.54993         8.52306 
        1.23334         7.99367         4.49698         8.47166 
        1.23949          7.9269         4.44474         8.40653 
        1.24562          7.8832         4.39349         8.32475 
        1.25174         7.81769         4.34312         8.26398 
        1.25789         7.75357         4.29339         8.19133 
        1.26402         7.71114         4.24453         8.11777 
        1.27014         7.63662         4.19655         8.06435 
        1.27628         7.54045         4.14918         7.99853 
        1.28244         7.46836         4.10244         7.94765 
        1.28858         7.45955         4.05649         7.87628 
        1.29471         7.37051         4.01135         7.82094 
        1.30084         7.29561         3.96695         7.78018 
        1.30697         7.28431         3.92315         7.69755 
        1.31312         7.15999         3.87995         7.64359 
        1.31925         7.11537         3.83754         7.60583 
        1.32537          7.0646         3.79581         7.54801 
        1.33151         7.03383         3.75455         7.48215 
        1.33765         6.95557         3.71393         7.41576 
        1.34378         6.89731         3.67399         7.37031 
        1.34992         6.85205         3.63462         7.31829 
        1.35606         6.79505         3.59574         7.25231 
         1.3622         6.75364          3.5575         7.19705 
        1.36833         6.68811         3.51991         7.17451 
        1.37445         6.64584         3.48288         7.10947 
        1.38059         6.61807         3.44628         7.04532 
        1.38675         6.55036         3.41011         7.00928 
        1.39288         6.51159         3.37461         6.96095 
        1.39901         6.43674         3.33963         6.91262 
        1.40515         6.40688         3.30506         6.86265 
         1.4113         6.35672         3.27101         6.81316 
        1.41742         6.30858         3.23756          6.7663 
        1.42355         6.25024         3.20451         6.71712 
         1.4297          6.2074         3.17183         6.67508 
        1.43585         6.18177         3.13963         6.63781 
        1.44198         6.14914         3.10799         6.57924 
        1.44809         6.08608         3.07685         6.54437 
        1.45423         6.03487         3.04602          6.4996 
        1.46036         5.99198         3.01567         6.45463 
        1.46649         5.95216         2.98572          6.4154 
        1.47263         5.89836         2.95616         6.37565 
        1.47877         5.85919         2.92702         6.32765 
        1.48491         5.82439         2.89822         6.28696 
        1.49104         5.78346         2.86987         6.24821 
        1.49718          5.7459         2.84188         6.20728 
        1.50333         5.70915         2.81422         6.16897 
        1.50947         5.65987         2.78698         6.13168 
         1.5156         5.62934         2.76015         6.09472 
        1.52172         5.59497         2.73367         6.05459 
        1.52787          5.5562         2.70748         6.00164 
          1.534         5.51148         2.68167         5.96851 
        1.54013         5.48404         2.65623         5.93354 
        1.54627         5.43044         2.63107          5.8973 
        1.55241         5.39754         2.60623         5.86447 
        1.55855         5.37542         2.58175         5.81844 
        1.56467         5.32918         2.55765         5.79124 
         1.5708         5.30431         2.53379         5.76548 
        1.57695         5.25462          2.5102         5.72146 
        1.58308         5.21475         2.48697         5.68666 
        1.58922         5.19935         2.46401         5.66251 
        1.59535         5.17103         2.44135           5.627 
         1.6015         5.12377         2.41895         5.58592 
        1.60764         5.08529         2.39684         5.55329 
        1.61376         5.06263         2.37507         5.52804 
        1.61989         5.03087         2.35355         5.49707 
        1.62604         4.99218         2.33225          5.4599 
        1.63218         4.97829         2.31123         5.43024 
        1.63831         4.94326         2.29052         5.40381 
        1.64444         4.91186         2.27005         5.36477 
        1.65059         4.85523         2.24979         5.33387 
        1.65673         4.85208         2.22979         5.30523 
        1.66285         4.79957         2.21009         5.27628 
        1.66898         4.77671         2.19063         5.24775 
        1.67512         4.75252         2.17136          5.2186 
        1.68127         4.71943         2.15231         5.18902 
         1.6874         4.70019         2.13353         5.16236 
        1.69353         4.66033         2.11498         5.13714 
        1.69967         4.63674         2.09661         5.10033 
        1.70581         4.60981         2.07847         5.07238 
        1.71193         4.58016         2.06061          5.0535 
        1.71806         4.55902         2.04292         5.02391 
        1.72421         4.52518          2.0254         4.99461 
        1.73035         4.50946         2.00811         4.96551 
        1.73649         4.47822         1.99103         4.93688 
        1.74262           4.443         1.97416         4.91479 
        1.74876         4.42642         1.95748         4.89094 
        1.75489         4.40602         1.94102         4.86047 
        1.76101         4.36439         1.92475         4.82836 
        1.76715         4.35026         1.90865         4.80666 
        1.77329         4.32603         1.89272         4.78484 
        1.77943         4.28555         1.87696         4.75884 
        1.78557         4.27548          1.8614          4.7323 
        1.79171         4.24724         1.84602         4.70501 
        1.79785          4.2226         1.83081         4.67965 
        1.80399         4.19289         1.81577         4.65885 
        1.81012         4.17474         1.80093         4.63985 
        1.81625         4.14872         1.78625         4.61741 
        1.82239         4.12973         1.77172         4.59296 
        1.82853         4.10175         1.75735          4.5722 
        1.83466         4.08562         1.74316          4.5525 
        1.84078          4.0654         1.72914         4.52867 
        1.84692         4.04889         1.71526           4.498 
        1.85306          4.0122          1.7015         4.47213 
         1.8592         3.98769         1.68792         4.45487 
        1.86533         3.96847          1.6745         4.43711 
        1.87147         3.95195         1.66121          4.4125 
        1.87761         3.92751         1.64805         4.38843 
