# k  (h/Mpc)    Pcb(k)  (Mpc/h)^3    Pcb_linear(k) (Mpc/h)^3    Pcb_NL(k) (Mpc/h)^3   ShotnoiseSubtracted = false
     0.00783031         11904.6         12064.6         12007.6 
       0.013688         15205.4         15085.3         14990.7 
       0.019231         15500.1           15475         15351.5 
      0.0249154         14204.6         14478.5         14354.6 
      0.0312784         12516.6           12644         12525.7 
      0.0375637         10774.4         10776.3         10673.8 
      0.0433917         9179.47         9325.17         9219.05 
      0.0492413         8189.44          8235.4         8138.18 
      0.0555754         7231.69         7425.08         7337.94 
      0.0619321         6894.27         6872.31         6786.13 
       0.067871         6307.56          6461.4         6380.43 
      0.0738098         5900.58         6051.91         5925.31 
      0.0800417         5367.01         5565.93          5454.2 
      0.0862327         4901.66         5023.94         4970.82 
      0.0921407         4457.58         4489.44         4454.42 
      0.0982031         3937.57         3976.06          4006.9 
       0.104506         3612.75         3526.41         3608.52 
       0.110769         3279.19         3186.77         3244.41 
       0.116806         3041.84         2956.31         3008.51 
       0.122832         2891.81         2798.89         2855.24 
       0.129052         2706.55         2679.68         2727.46 
       0.135211         2596.76         2571.54         2614.06 
       0.141259         2507.26         2450.76         2512.84 
       0.147318         2378.17         2304.93          2395.5 
       0.153489         2187.09         2134.72         2205.54 
       0.159709          2054.5         1955.54         2063.28 
       0.165845         1946.29         1788.73         1947.63 
       0.171974         1812.16         1645.84         1808.03 
       0.178125         1710.01            1533         1724.83 
       0.184229         1629.81         1450.48         1629.21 
        0.19034          1533.5         1390.69         1561.36 
       0.196428         1511.19         1344.07         1497.67 
       0.202534         1465.96         1300.27         1457.42 
       0.208729         1402.84         1250.94         1395.07 
       0.214876          1341.4          1193.4         1367.12 
       0.220989         1297.03         1128.47         1319.77 
       0.227147         1232.52         1059.49         1264.34 
        0.23329         1178.47         992.629         1217.65 
       0.239377         1151.11         933.099         1160.19 
       0.245482         1073.95         882.917         1099.91 
       0.251667         1064.25         842.318         1068.14 
       0.257832         1023.44         810.455         1028.75 
       0.263955         991.465         784.315         997.701 
       0.270079         957.738         760.349         972.307 
        0.27624         948.476         735.609         944.961 
       0.282372         909.043         708.722         925.063 
        0.28843          895.13         679.766         901.741 
       0.294538         850.153          649.07         876.342 
       0.300721         845.224         618.174         849.074 
        0.30691         807.559         589.082         830.201 
       0.313033         791.368         563.392         799.316 
       0.319153         771.893         541.225         775.074 
       0.325316         747.813         522.247         758.648 
        0.33145          728.96         505.848         731.488 
       0.337538         717.865         491.022         717.687 
       0.343633         697.877         476.586         711.096 
       0.349808         674.427         461.706         699.053 
       0.355968         669.774         446.259         686.919 
       0.362074         659.764         430.523         671.926 
       0.368217         640.634         414.657         652.078 
       0.374374         613.927         399.262          637.89 
       0.380519         611.926         384.899         622.109 
       0.386598         596.029         371.909         613.814 
       0.392688         593.499         360.204         596.134 
        0.39888         575.857         349.443         586.632 
       0.405048         565.648         339.557         578.338 
       0.411186         556.473          330.22         564.648 
       0.417313         545.689         321.082         555.014 
       0.423458         535.883         311.921         547.082 
       0.429607         526.698         302.743         536.553 
       0.435692         514.753         293.696         525.291 
       0.441815         510.578         284.774         521.138 
       0.447964         499.406         276.178         511.958 
       0.454126         489.133         268.034          497.81 
       0.460267         480.288         260.436         495.326 
       0.466387         475.038         253.388         485.791 
        0.47254         466.534         246.745         478.976 
       0.478662         464.952         240.453         470.247 
       0.484765         449.889         234.404          462.34 
       0.490885         445.988          228.49          455.59 
       0.497035         437.217         222.638         450.683 
       0.503198          431.84         216.853         444.465 
       0.509342         428.265         211.209         438.393 
       0.515458          424.01         205.758         434.572 
       0.521598         414.125         200.486         427.426 
       0.527764         406.663         195.415         422.478 
       0.533884         404.553          190.62         416.884 
           0.54         399.168         186.066         410.419 
       0.546137         397.232         181.694         405.566 
       0.552299         389.406         177.463           399.8 
       0.558452         387.045         173.362         395.866 
       0.564573          381.22         169.389         392.724 
       0.570708          375.23         165.506         388.829 
       0.576825         367.283         161.727         381.597 
       0.582926         365.727         158.049         377.903 
       0.589034         362.245         154.469         372.866 
       0.595184          358.78          150.98          367.82 
       0.601379         354.125         147.595         364.476 
       0.607522         348.768         144.366         359.837 
       0.613639         347.251         141.266         357.888 
       0.619772         339.175         138.259         356.101 
       0.625918          338.13         135.335         350.256 
       0.632068         332.732          132.49         346.387 
       0.638161         331.431         129.746         343.458 
         0.6443         325.664         127.056         340.292 
       0.650464         322.789         124.428         334.147 
       0.656582         321.009         121.889         331.722 
       0.662703         319.276         119.417         330.087 
       0.668861         313.481         116.998         327.141 
       0.675024         310.108         114.646         324.011 
       0.681124         308.343         112.386         318.937 
       0.687237         305.127         110.188         316.167 
       0.693381          300.66         108.043         313.231 
       0.699536         297.688         105.956         311.029 
       0.705665         295.581         103.935         307.689 
       0.711789         293.192         101.968         305.632 
       0.717957         291.077         100.037         303.686 
        0.72409         288.195         98.1645         300.873 
       0.730186         284.826         96.3485         298.036 
       0.736317         281.928         94.5672         294.951 
       0.742472         280.413         92.8238         292.068 
       0.748622         277.933         91.1262         289.495 
        0.75476         275.236         89.4759         289.212 
       0.760888         271.878         87.8706         285.115 
       0.767043         272.116         86.3002         283.196 
       0.773185          268.43         84.7729         281.023 
       0.779291          264.05         83.2923         278.042 
       0.785407         263.434         81.8456         276.224 
       0.791564         260.341         80.4247         274.103 
       0.797719         257.833         79.0383         272.046 
       0.803834         255.971         77.6932         270.539 
       0.809972         254.627         76.3743         268.316 
       0.816124         254.412         75.0829         265.368 
       0.822261         250.677         73.8247         263.899 
       0.828378         248.745         72.5992         261.619 
       0.834502         247.694         71.4005         259.973 
       0.840667         244.309         70.2212         257.709 
       0.846816          242.86          69.072         256.317 
       0.852925         241.607         67.9561         254.436 
       0.859047         239.564         66.8628         252.685 
       0.865192         236.924         65.7902         250.492 
       0.871341         235.092         64.7407         248.811 
       0.877463         233.507         63.7191         247.387 
       0.883569         232.528         62.7223         246.223 
       0.889708         230.118          61.742         243.699 
       0.895864         227.365         60.7802          242.27 
       0.902008         226.631         59.8411         240.497 
       0.908149         225.598         58.9225         238.441 
       0.914301         222.587         58.0218         236.861 
       0.920448         221.167         57.1408         235.057 
       0.926574         219.648         56.2813         233.474 
       0.932687         219.502         55.4414         232.013 
       0.938823         216.678         54.6158         231.102 
       0.944975          215.33         53.8051         229.608 
       0.951105         214.154         53.0139         227.847 
       0.957225          212.24         52.2401         226.213 
       0.963368         209.524         51.4792         224.631 
       0.969511         208.637         50.7335         222.976 
       0.975621          206.88         50.0067         222.253 
       0.981748         206.852         49.2924         220.925 
       0.987916         204.613         48.5876         219.509 
        0.99406         202.488         47.8993         218.061 
        1.00019         202.475         47.2258         216.329 
        1.00632         200.521          46.566         214.792 
        1.01246         199.043         45.9179         213.093 
        1.01859         198.664         45.2832         212.273 
        1.02471         196.176         44.6614          211.41 
        1.03085         194.383         44.0492         210.206 
        1.03698         193.593         43.4498         209.312 
        1.04314         191.888         42.8591         207.563 
        1.04929         190.621         42.2809         206.132 
        1.05541         190.417         41.7156         205.008 
        1.06154         188.319         41.1594          203.82 
        1.06769         188.028         40.6125          202.85 
        1.07382         186.424         40.0774         201.508 
        1.07993         184.742         39.5532         200.388 
        1.08607         184.163         39.0362         199.174 
        1.09222         183.057         38.5281         198.146 
        1.09836         181.463         38.0295         197.282 
        1.10449         179.582         37.5405         196.214 
        1.11063         178.098         37.0595         194.884 
        1.11677         177.821         36.5872         193.465 
         1.1229         176.382          36.124          192.59 
        1.12903         175.459         35.6684         191.681 
        1.13518         174.541         35.2203         190.478 
        1.14131         172.793         34.7802         189.255 
        1.14745         172.571         34.3479         188.411 
        1.15359          171.15         33.9229         187.306 
        1.15973          170.26          33.505         186.265 
        1.16584         168.545          33.096         184.705 
        1.17197         168.132         32.6932         184.365 
        1.17811         166.781          32.296         183.398 
        1.18424         165.946         31.9065         182.077 
        1.19038         165.505         31.5224         181.574 
        1.19652         164.096         31.1447         180.617 
        1.20267         163.344         30.7733         179.278 
        1.20881         161.754          30.408         178.541 
        1.21495          161.19         30.0493         177.483 
        1.22108         160.183         29.6964         176.629 
         1.2272         158.799           29.35          175.12 
        1.23334         158.222         29.0084         174.748 
        1.23949          156.98         28.6715          174.05 
        1.24562         156.069         28.3408         172.609 
        1.25174         154.573         28.0159         171.994 
        1.25789         153.771         27.6951         170.976 
        1.26402          152.81           27.38         170.172 
        1.27014         151.781         27.0705         169.577 
        1.27628         151.131         26.7649          169.09 
        1.28244         150.731         26.4634         167.869 
        1.28858         149.519          26.167         166.854 
        1.29471         147.975         25.8758         165.869 
        1.30084         147.575         25.5894          165.03 
        1.30697         146.473         25.3068         164.382 
        1.31312         145.765         25.0282         163.221 
        1.31925         144.809         24.7546          162.47 
        1.32537         144.052         24.4854         162.024 
        1.33151         142.641         24.2193         161.049 
        1.33765         142.223         23.9573         160.186 
        1.34378          141.35         23.6996         159.559 
        1.34992         140.833         23.4457          158.45 
        1.35606         140.219         23.1949         157.582 
         1.3622         138.837         22.9482         157.034 
        1.36833         137.942         22.7057         156.137 
        1.37445         137.158         22.4669         155.287 
        1.38059         136.495         22.2307         154.504 
        1.38675         135.674         21.9974         153.835 
        1.39288         135.071         21.7684         152.553 
        1.39901         134.712         21.5428         152.286 
        1.40515          133.35         21.3198         151.846 
         1.4113         132.371         21.1001         151.027 
        1.41742         131.837         20.8843         150.327 
        1.42355         130.965         20.6712         149.663 
         1.4297         130.236         20.4604         148.907 
        1.43585         129.149         20.2526         147.915 
        1.44198         128.831         20.0485         147.434 
        1.44809         128.032         19.8477         146.713 
        1.45423          127.17         19.6488         145.837 
        1.46036         126.557          19.453          145.17 
        1.46649         125.551         19.2599         144.746 
        1.47263         124.958         19.0692         144.233 
        1.47877         124.431         18.8811         143.215 
        1.48491         123.099         18.6954         142.548 
        1.49104         122.955         18.5125         142.269 
        1.49718         121.747          18.332          141.14 
        1.50333          121.32         18.1535         140.407 
        1.50947         120.827         17.9778         139.964 
         1.5156         119.896         17.8047         139.296 
        1.52172         119.166         17.6339         138.505 
        1.52787         118.482          17.465         137.953 
          1.534         117.862         17.2985          137.37 
        1.54013          117.07         17.1344         136.795 
        1.54627         116.595         16.9721          136.23 
        1.55241         115.599         16.8119         135.545 
        1.55855          115.01         16.6539         134.818 
        1.56467         114.704         16.4985         134.194 
         1.5708         113.732         16.3446         133.709 
        1.57695         113.297         16.1924         133.134 
        1.58308          112.55         16.0425         132.452 
        1.58922         112.183         15.8945         131.849 
        1.59535         111.292         15.7483         131.309 
         1.6015         110.785         15.6038         130.604 
        1.60764         110.108         15.4612         129.946 
        1.61376         109.762         15.3207         129.614 
        1.61989         108.844         15.1819         129.154 
        1.62604         108.415         15.0445         128.279 
        1.63218         107.824         14.9089         127.657 
        1.63831         106.926         14.7753         127.284 
        1.64444         106.598         14.6433         126.515 
        1.65059         105.971         14.5126         126.109 
        1.65673         104.898         14.3836         125.514 
        1.66285         104.809         14.2565         124.899 
        1.66898         104.228          14.131         124.529 
        1.67512         103.624         14.0067         123.938 
        1.68127         102.897         13.8838         123.394 
         1.6874         102.161         13.7626         122.942 
        1.69353         101.724          13.643         122.391 
        1.69967          101.29         13.5245          121.74 
        1.70581         100.631         13.4074         121.215 
        1.71193         100.276         13.2922         120.741 
        1.71806         99.5649         13.1781         120.083 
        1.72421         98.8888         13.0652         119.601 
        1.73035         98.5618         12.9536         119.117 
        1.73649         97.8574         12.8434         118.543 
        1.74262         97.2275         12.7346         118.104 
        1.74876         96.9151          12.627         117.601 
        1.75489          96.074         12.5208         117.028 
        1.76101         95.6686         12.4159           116.5 
        1.76715         94.9548         12.3121         116.066 
        1.77329         94.7075         12.2093         115.502 
        1.77943         93.8803         12.1076         114.927 
        1.78557         93.5729         12.0073         114.532 
        1.79171         92.8579          11.908         114.139 
        1.79785         92.4805         11.8099         113.661 
        1.80399         91.9266         11.7129         113.107 
        1.81012         91.5389         11.6171          112.52 
        1.81625         90.9514         11.5225         112.076 
        1.82239         90.6236         11.4287          111.71 
        1.82853         90.1499         11.3361         111.188 
        1.83466         89.3793         11.2445          110.64 
        1.84078         89.2601         11.1541         110.209 
        1.84692         88.5007         11.0645         109.891 
        1.85306         87.9568         10.9758         109.371 
         1.8592         87.5848         10.8882         108.814 
        1.86533          87.021         10.8016         108.461 
        1.87147         86.4198         10.7158          107.95 
