# k  (h/Mpc)    P(k)  (Mpc/h)^3    P_linear(k)  (Mpc/h)^3     P_NL(k)  ShotnoiseSubtracted = false
     0.00783031         6129.81         6202.06         6174.58 
       0.013688         7796.88         7760.92         7720.03 
       0.019231         7975.22          7963.2         7912.51 
      0.0249154         7354.84         7451.21         7407.84 
      0.0312784         6472.37         6507.55         6474.89 
      0.0375637         5557.53         5546.53         5519.89 
      0.0433917         4758.51         4799.74         4774.13 
      0.0492413         4232.51          4238.9         4216.24 
      0.0555754         3763.53         3821.86         3800.49 
      0.0619321         3559.33         3537.37          3515.6 
       0.067871         3282.74         3325.89         3304.47 
      0.0738098         3070.56         3115.13          3080.9 
      0.0800417         2802.77         2864.99         2835.03 
      0.0862327         2551.16         2586.02         2573.04 
      0.0921407         2304.78          2310.9          2303.5 
      0.0982031         2033.53         2046.64          2058.6 
       0.104506         1847.27          1815.2          1841.9 
       0.110769         1672.73         1640.37         1658.82 
       0.116806         1544.55         1521.75         1538.36 
       0.122832         1471.21         1440.72         1458.76 
       0.129052         1385.63         1379.35         1394.33 
       0.135211         1329.21         1323.69         1337.88 
       0.141259         1279.17         1261.52         1280.89 
       0.147318         1210.93         1186.46         1215.96 
       0.153489         1114.89         1098.84         1121.06 
       0.159709         1038.06         1006.61         1039.94 
       0.165845         972.572         920.745         970.708 
       0.171974         896.573         847.195          896.46 
       0.178125         843.763          789.11         847.877 
       0.184229         804.148         746.637         802.378 
        0.19034         754.148         715.855         768.357 
       0.196428         742.567          691.86          736.78 
       0.202534         724.042         669.313         715.527 
       0.208729         691.407          643.92         687.107 
       0.214876         656.119         614.302         668.449 
       0.220989         633.472         580.882         640.007 
       0.227147         595.059         545.373         607.139 
        0.23329         565.754         510.957         580.327 
       0.239377         546.176         480.314         551.324 
       0.245482         508.321         454.481          520.73 
       0.251667         499.746         433.582         503.505 
       0.257832          482.42         417.183         484.381 
       0.263955         466.522         403.727         468.571 
       0.270079          451.09         391.392         455.403 
        0.27624         444.859         378.657          440.87 
       0.282372         427.468         364.816         429.024 
        0.28843         413.398         349.912         415.139 
       0.294538         394.273          334.11         402.164 
       0.300721         388.708         318.206          389.21 
        0.30691         369.627         303.231         376.453 
       0.313033         360.054         290.008         361.264 
       0.319153         345.861         278.595          350.13 
       0.325316         337.058         268.827          341.32 
        0.33145         326.368         260.387         329.137 
       0.337538         321.605         252.755         320.628 
       0.343633         311.263         245.323         315.913 
       0.349808         301.703         237.666         309.381 
       0.355968         296.834         229.712         303.008 
       0.362074         289.161         221.612         294.702 
       0.368217         281.042         213.446         284.716 
       0.374374         271.245          205.52         277.459 
       0.380519         266.428         198.128          269.52 
       0.386598         259.502         191.441         263.743 
       0.392688          255.97         185.416         256.879 
        0.39888         249.169         179.877          250.51 
       0.405048         243.482         174.788         246.736 
       0.411186         238.083         169.982         240.769 
       0.417313         233.346         165.278         234.495 
       0.423458         228.454         160.562         230.267 
       0.429607         223.022         155.839         225.731 
       0.435692          216.63          151.18         220.798 
       0.441815          214.83         146.588          217.99 
       0.447964         210.684         142.163         212.872 
       0.454126         201.972         137.971         206.812 
       0.460267         199.581         134.059         204.563 
       0.466387         196.963         130.433         200.011 
        0.47254         192.726         127.012         196.514 
       0.478662          191.04         123.774         192.782 
       0.484765         185.503          120.66         188.078 
       0.490885         182.665         117.616         185.765 
       0.497035         179.986         114.604         183.268 
       0.503198         175.291         111.626         180.023 
       0.509342         172.728          108.72         177.383 
       0.515458         170.329         105.914         175.375 
       0.521598         167.748         103.201         171.176 
       0.527764          165.15          100.59         167.899 
       0.533884         162.502         98.1224         165.589 
           0.54         159.829         95.7781         162.963 
       0.546137         158.458         93.5275         161.072 
       0.552299         155.736         91.3495         157.721 
       0.558452         152.877         89.2387         155.283 
       0.564573         150.193         87.1936         153.815 
       0.570708         147.931         85.1948         151.588 
       0.576825         145.919         83.2495         148.715 
       0.582926         143.416         81.3562         146.647 
       0.589034         141.181         79.5133         145.215 
       0.595184         139.478         77.7173         142.555 
       0.601379         138.021         75.9748         141.413 
       0.607522         134.743          74.313         138.713 
       0.613639         134.295         72.7169         137.299 
       0.619772         131.321          71.169         135.165 
       0.625918         129.917         69.6639         133.798 
       0.632068         128.446         68.1993         131.601 
       0.638161         127.133         66.7873         130.664 
         0.6443         125.439         65.4027         128.692 
       0.650464         123.888         64.0499         126.214 
       0.656582         122.284         62.7427         125.384 
       0.662703         120.267           61.47         123.525 
       0.668861         118.805         60.2251         122.242 
       0.675024         117.379         59.0143         120.487 
       0.681124         116.321         57.8509          119.21 
       0.687237         114.191         56.7194         117.694 
       0.693381         112.817         55.6157         116.166 
       0.699536         111.717         54.5413         115.274 
       0.705665          111.99         53.5008         114.452 
       0.711789         108.964         52.4885          112.31 
       0.717957          108.48         51.4945         111.317 
        0.72409         106.896         50.5304         110.716 
       0.730186         105.095         49.5957         109.443 
       0.736317         104.812         48.6787         107.856 
       0.742472         103.705         47.7813         106.831 
       0.748622         102.741         46.9075         105.553 
        0.75476         101.651         46.0579         104.353 
       0.760888         100.187         45.2316         103.029 
       0.767043         99.3462         44.4233         102.553 
       0.773185         98.2242         43.6371         101.825 
       0.779291         97.2494         42.8749         100.644 
       0.785407         96.5475         42.1303         99.2671 
       0.791564         95.3277         41.3989         98.4882 
       0.797719          93.994         40.6852         97.8576 
       0.803834         93.5666         39.9928         96.4524 
       0.809972         92.0075         39.3139         95.6404 
       0.816124         91.6029         38.6491          95.051 
       0.822261         90.7856         38.0015         93.9372 
       0.828378         89.9246         37.3706         92.6887 
       0.834502         89.2329         36.7536         92.2801 
       0.840667         88.2239         36.1466         91.7641 
       0.846816         87.2151          35.555         90.7251 
       0.852925         86.4723         34.9806         89.8371 
       0.859047         85.3357         34.4178         88.9399 
       0.865192         84.9444         33.8657         88.3946 
       0.871341         84.2825         33.3255         87.4316 
       0.877463         83.0615         32.7996         86.8563 
       0.883569         82.5212         32.2865         86.2497 
       0.889708         82.0098         31.7819         85.4648 
       0.895864         81.2555         31.2868         84.8608 
       0.902008         80.5801         30.8034          83.946 
       0.908149         80.0163         30.3305         83.3367 
       0.914301         79.1371         29.8669         82.8231 
       0.920448         78.5988         29.4134         82.1279 
       0.926574         77.8988          28.971         81.1889 
       0.932687         77.5178         28.5386         80.6539 
       0.938823         76.2854         28.1136         79.9552 
       0.944975         75.9429         27.6963         79.3574 
       0.951105         75.2502         27.2891         78.8393 
       0.957225          74.328         26.8908         78.3081 
       0.963368         74.1457         26.4991         77.3949 
       0.969511         73.6766         26.1152         76.9071 
       0.975621         73.1699         25.7411         76.9176 
       0.981748         72.4197         25.3734         76.0528 
       0.987916         71.8149         25.0106         75.6689 
        0.99406         71.4097         24.6563         74.9201 
        1.00019         70.5793         24.3096         74.2868 
        1.00632         70.2856           23.97         73.8346 
        1.01246         69.6126         23.6364          73.202 
        1.01859         68.7283         23.3097         72.8526 
        1.02471         68.9063         22.9896         72.4899 
        1.03085         68.1156         22.6745         71.8168 
        1.03698         67.5671         22.3659         71.2375 
        1.04314          66.903         22.0619         70.7542 
        1.04929         66.5534         21.7642         70.4573 
        1.05541         65.9351         21.4733         70.1423 
        1.06154         65.7612         21.1869         69.6048 
        1.06769         65.1682         20.9054         69.1467 
        1.07382            64.9           20.63         68.6471 
        1.07993         64.5155         20.3601         68.1925 
        1.08607         63.8747          20.094          67.752 
        1.09222         63.5513         19.8324         67.1552 
        1.09836         63.0838         19.5758         66.7619 
        1.10449         62.6231         19.3241          66.379 
        1.11063         62.0512         19.0765           65.78 
        1.11677         61.6754         18.8334          65.359 
         1.1229         61.3046         18.5949         65.2229 
        1.12903         60.4787         18.3604         64.7175 
        1.13518         60.6648         18.1298         64.2921 
        1.14131         60.2725         17.9032         63.9178 
        1.14745          59.459         17.6807         63.5612 
        1.15359          59.331         17.4619         63.1919 
        1.15973         58.7762         17.2468         62.8442 
        1.16584         58.3951         17.0363         62.3184 
        1.17197         58.0625         16.8289         62.0721 
        1.17811          57.746         16.6245         61.5884 
        1.18424         57.1857          16.424          61.263 
        1.19038         56.9764         16.2262         60.9977 
        1.19652         56.7146         16.0318         60.4948 
        1.20267          56.228         15.8406         60.2676 
        1.20881         55.8697         15.6526         59.8633 
        1.21495         55.4047         15.4679         59.5423 
        1.22108         55.1012         15.2863         59.2543 
         1.2272         54.5796          15.108          58.934 
        1.23334         54.3932         14.9322         58.5619 
        1.23949          54.253         14.7587          58.127 
        1.24562         53.8009         14.5885         57.8719 
        1.25174         53.5489         14.4213         57.6427 
        1.25789         53.2495         14.2562         57.2334 
        1.26402         52.8111         14.0939         56.8975 
        1.27014         52.3296         13.9346         56.7115 
        1.27628          52.178         13.7773         56.3691 
        1.28244         51.7061         13.6221         55.9775 
        1.28858         51.5141         13.4696         55.7159 
        1.29471         51.3681         13.3197         55.5269 
        1.30084         50.9948         13.1722         55.0085 
        1.30697         50.5877         13.0268         54.7176 
        1.31312         50.2534         12.8833         54.6107 
        1.31925         50.1076         12.7425         54.2472 
        1.32537         49.8374         12.6039         53.9569 
        1.33151          49.391         12.4669         53.6852 
        1.33765         49.2811         12.3321         53.4052 
        1.34378         48.9706         12.1995         53.1202 
        1.34992         48.4946         12.0687         52.8953 
        1.35606         48.2588         11.9396          52.664 
         1.3622         47.9488         11.8127         52.3586 
        1.36833         47.7567         11.6878          52.061 
        1.37445         47.5994         11.5649         51.8255 
        1.38059         47.2837         11.4433         51.7384 
        1.38675         46.9337         11.3232          51.313 
        1.39288         46.7543         11.2054         51.1504 
        1.39901         46.4074         11.0892         50.8668 
        1.40515         46.1949         10.9744         50.6273 
         1.4113         46.0374         10.8613         50.4032 
        1.41742          45.668         10.7503         50.0977 
        1.42355         45.4366         10.6406         49.8381 
         1.4297         45.1395         10.5321         49.5676 
        1.43585         45.0046         10.4251         49.4211 
        1.44198         44.6956           10.32         49.2397 
        1.44809         44.4935         10.2166         48.8268 
        1.45423         44.3064         10.1143         48.6229 
        1.46036         44.0408         10.0135         48.4569 
        1.46649          43.765         9.91407         48.2824 
        1.47263         43.5258         9.81592         48.0756 
        1.47877         43.3855         9.71913         47.7711 
        1.48491         43.1925         9.62351         47.5591 
        1.49104         42.8709         9.52937         47.2836 
        1.49718          42.487         9.43643         47.1035 
        1.50333         42.3951         9.34459         46.8989 
        1.50947         42.1818         9.25415         46.6913 
         1.5156         41.9171         9.16505         46.5104 
        1.52172         41.6841         9.07712         46.3126 
        1.52787         41.6727         8.99018         46.0886 
          1.534         41.3173         8.90447          45.884 
        1.54013         41.0823         8.81998         45.6694 
        1.54627         40.9604         8.73644         45.4457 
        1.55241         40.6735         8.65396         45.2324 
        1.55855         40.4435         8.57267         45.0196 
        1.56467         40.1061         8.49265         44.8332 
         1.5708         40.1037         8.41342         44.6959 
        1.57695         39.7977          8.3351         44.5337 
        1.58308         39.7124         8.25795         44.3043 
        1.58922         39.5989         8.18173         44.0769 
        1.59535         39.3086          8.1065         43.8918 
         1.6015         39.0251         8.03211         43.6799 
        1.60764         38.8874         7.95869         43.4949 
        1.61376         38.6878          7.8864         43.3581 
        1.61989         38.3558         7.81495          43.141 
        1.62604         38.3119         7.74423         42.9301 
        1.63218         38.1338         7.67443         42.7701 
        1.63831         37.9061         7.60565         42.6224 
        1.64444         37.7542         7.53769         42.4279 
        1.65059         37.4187          7.4704         42.2361 
        1.65673         37.2767           7.404         42.0486 
        1.66285         37.1299          7.3386         41.8942 
        1.66898         36.9167         7.27397         41.7762 
        1.67512         36.7685         7.20999         41.6107 
        1.68127         36.5061         7.14672          41.369 
         1.6874         36.4265         7.08435         41.1326 
        1.69353         36.1848         7.02277         40.9946 
        1.69967          36.026         6.96177         40.8806 
        1.70581         35.9353         6.90153         40.7807 
        1.71193         35.7018         6.84222         40.6198 
        1.71806         35.4716         6.78349         40.3239 
        1.72421         35.2823         6.72533         40.1421 
        1.73035         35.1077         6.66793         40.0967 
        1.73649         34.9473          6.6112         40.0056 
        1.74262         34.7813         6.55519         39.6738 
        1.74876         34.7661         6.49978         39.4782 
        1.75489         34.4738         6.44513         39.3951 
        1.76101         34.3075         6.39113         39.2644 
        1.76715         34.1525         6.33767         39.1098 
        1.77329         33.9707         6.28476         38.9499 
        1.77943         33.8716         6.23243         38.7892 
        1.78557         33.6647         6.18078         38.6292 
        1.79171         33.4869          6.1297         38.4715 
        1.79785          33.325         6.07919          38.353 
        1.80399         33.2044         6.02926         38.2592 
        1.81012         33.0806         5.97996         38.0167 
        1.81625         32.8544         5.93123         37.8049 
        1.82239         32.7644         5.88298          37.724 
        1.82853         32.4857         5.83528         37.6173 
        1.83466         32.3977         5.78816         37.4489 
        1.84078          32.156          5.7416         37.2777 
        1.84692         32.0615         5.69549         37.1815 
        1.85306         31.9053         5.64983         37.0557 
         1.8592          31.761         5.60473         36.8974 
        1.86533         31.5612         5.56016         36.7766 
        1.87147         31.4649         5.51602         36.6449 
        1.87761         31.3783         5.47234         36.4812 
