# k  (h/Mpc)    P(k)  (Mpc/h)^3    P_linear(k)  (Mpc/h)^3     P_NL(k)  ShotnoiseSubtracted = false
     0.00783031         6591.23         6669.93         6640.24 
       0.013688         8387.28         8345.84         8301.21 
       0.019231         8576.45          8563.2         8507.58 
      0.0249154         7904.69         8012.56         7964.14 
      0.0312784         6957.25         6997.76         6960.16 
      0.0375637         5975.28         5964.33         5933.36 
      0.0433917         5113.83         5161.27         5131.16 
      0.0492413         4549.85         4558.18         4531.39 
      0.0555754         4043.16         4109.73         4084.66 
      0.0619321         3826.82         3803.81         3778.39 
       0.067871         3526.76          3576.4         3551.57 
      0.0738098         3298.81         3349.76         3310.21 
      0.0800417         3010.13         3080.78         3046.11 
      0.0862327         2740.78          2780.8          2765.6 
      0.0921407         2477.54         2484.95         2476.07 
      0.0982031         2186.04         2200.79         2214.09 
       0.104506         1987.74         1951.91         1982.14 
       0.110769         1800.27         1763.92         1784.79 
       0.116806         1662.83         1636.36         1655.17 
       0.122832         1583.73         1549.23         1569.67 
       0.129052         1490.65         1483.24         1500.23 
       0.135211         1430.03         1423.39          1439.4 
       0.141259         1376.64         1356.53         1378.55 
       0.147318          1303.4         1275.82         1309.27 
       0.153489         1199.84          1181.6         1206.83 
       0.159709         1118.18         1082.43         1120.37 
       0.165845         1048.67         990.092         1046.94 
       0.171974         967.589         911.002         967.237 
       0.178125         910.859         848.542         915.614 
       0.184229         868.204          802.87         866.365 
        0.19034         814.087          769.77         829.648 
       0.196428         801.883         743.968         795.426 
       0.202534          781.63         719.723         772.646 
       0.208729         746.469         692.417         741.735 
       0.214876         708.676         660.568         722.236 
       0.220989         684.419         624.631         692.036 
       0.227147         643.581         586.448         657.029 
        0.23329         612.267          549.44         628.569 
       0.239377         591.806         516.489         597.362 
       0.245482         550.685         488.711         564.332 
       0.251667         541.908         466.237         545.969 
       0.257832          523.01         448.603         525.253 
       0.263955         505.892         434.134         508.191 
       0.270079         489.064          420.87         494.045 
        0.27624         482.613         407.175         478.421 
       0.282372         463.606         392.292         465.748 
        0.28843         448.996         376.266         450.911 
       0.294538         427.996         359.273         437.076 
       0.300721         422.493         342.171         423.155 
        0.30691         401.848         326.069         409.696 
       0.313033         391.801          311.85         393.274 
       0.319153         376.868         299.578         381.202 
       0.325316         366.986         289.074         371.764 
        0.33145         355.557         279.998          358.45 
       0.337538         350.473         271.791         349.386 
       0.343633         339.219           263.8         344.553 
       0.349808         328.717         255.566         337.556 
       0.355968         323.784         247.013         330.697 
       0.362074          315.73         238.303         321.808 
       0.368217         306.914         229.521         311.031 
       0.374374         295.923         220.999         303.199 
       0.380519         291.084          213.05          294.66 
       0.386598         283.605         205.859         288.629 
       0.392688         280.032         199.381         280.989 
        0.39888          272.54         193.424         274.294 
       0.405048         266.358         187.952         270.321 
       0.411186         260.527         182.784         263.623 
       0.417313         255.532         177.726         256.948 
       0.423458         250.258         172.654         252.431 
       0.429607         244.432         167.576         247.519 
       0.435692         237.617         162.566         242.132 
       0.441815         235.664         157.628         239.187 
       0.447964         231.047          152.87          233.73 
       0.454126         221.772         148.363         227.096 
       0.460267         219.125         144.156          224.77 
       0.466387          216.39         140.256         219.858 
        0.47254         211.661         136.578         216.075 
       0.478662          210.04         133.096         211.984 
       0.484765         203.863         129.748         206.891 
       0.490885          200.87         126.474         204.366 
       0.497035         197.862         123.235         201.674 
       0.503198         192.846         120.033         198.215 
       0.509342         190.281         116.909         195.388 
       0.515458         187.673         113.891         193.209 
       0.521598         184.733         110.973         188.707 
       0.527764         181.876         108.166         185.291 
       0.533884         179.082         105.512         182.767 
           0.54         176.242         102.992         179.867 
       0.546137         174.829         100.572         177.806 
       0.552299         171.717         98.2295         174.217 
       0.558452         168.839         95.9597         171.633 
       0.564573          165.93         93.7606         170.046 
       0.570708         163.286         91.6112         167.675 
       0.576825         161.128         89.5194         164.452 
       0.582926          158.49         87.4835         162.261 
       0.589034         156.177         85.5018         160.681 
       0.595184         154.321         83.5706         157.697 
       0.601379         152.742         81.6969         156.553 
       0.607522         149.214         79.9098          153.72 
       0.613639         148.641         78.1936         152.162 
       0.619772         145.383         76.5291         149.915 
       0.625918         143.865         74.9107         148.339 
       0.632068         142.223         73.3358         145.932 
       0.638161         140.911         71.8174         144.983 
         0.6443         138.992         70.3285         142.892 
       0.650464         137.342         68.8738         140.151 
       0.656582         135.637         67.4682         139.205 
       0.662703         133.552         66.0997         137.284 
       0.668861         131.815         64.7609         135.844 
       0.675024         130.241          63.459         133.945 
       0.681124          129.24          62.208         132.581 
       0.687237         126.888         60.9913         130.919 
       0.693381         125.288         59.8044         129.267 
       0.699536         124.196          58.649         128.212 
       0.705665         124.396         57.5302         127.398 
       0.711789         121.163         56.4416         125.135 
       0.717957         120.686         55.3728         123.976 
        0.72409         118.933         54.3361         123.333 
       0.730186         116.955          53.331         121.978 
       0.736317         116.565          52.345         120.247 
       0.742472         115.467           51.38         119.132 
       0.748622         114.409         50.4403         117.711 
        0.75476         113.243         49.5268         116.433 
       0.760888         111.612         48.6383         114.956 
       0.767043         110.765          47.769         114.403 
       0.773185         109.538         46.9236          113.64 
       0.779291         108.308         46.1041         112.335 
       0.785407         107.597         45.3033         110.842 
       0.791564         106.317         44.5168         110.037 
       0.797719         104.822         43.7494         109.347 
       0.803834         104.334         43.0049         107.804 
       0.809972          102.71         42.2748         106.914 
       0.816124         102.361           41.56         106.257 
       0.822261         101.361         40.8636         105.072 
       0.828378         100.385         40.1852         103.702 
       0.834502         99.7562         39.5217         103.207 
       0.840667         98.5242         38.8689         102.683 
       0.846816         97.4625         38.2329         101.529 
       0.852925         96.6625         37.6152         100.554 
       0.859047          95.414           37.01         99.6103 
       0.865192         94.9747         36.4163         98.9939 
       0.871341         94.1672         35.8354         97.9234 
       0.877463         92.9582         35.2699         97.3103 
       0.883569         92.3371         34.7182         96.6322 
       0.889708         91.7326         34.1755         95.7948 
       0.895864         90.8957         33.6432         95.1655 
       0.902008          90.172         33.1233         94.1123 
       0.908149         89.5699         32.6149         93.4132 
       0.914301         88.5665         32.1163         92.8554 
       0.920448         88.0019         31.6287         92.1448 
       0.926574         87.2619         31.1529         91.0872 
       0.932687         86.8741          30.688         90.4579 
       0.938823          85.501          30.231         89.7661 
       0.944975         85.0202         29.7823         89.1031 
       0.951105          84.327         29.3444         88.4662 
       0.957225         83.3035          28.916         87.9082 
       0.963368         83.0357         28.4949         86.8952 
       0.969511         82.5899         28.0821         86.3765 
       0.975621         82.0741         27.6798          86.443 
       0.981748         81.2748         27.2844         85.4683 
       0.987916         80.5263         26.8943         85.0275 
        0.99406         80.0655         26.5133         84.1898 
        1.00019         79.2261         26.1405         83.4687 
        1.00632         78.8623         25.7753          82.983 
        1.01246         78.1249         25.4165          82.277 
        1.01859         77.1193         25.0652         81.9243 
        1.02471         77.3085          24.721         81.5525 
        1.03085         76.4457         24.3822         80.7984 
        1.03698         75.8677         24.0504          80.132 
        1.04314         75.1278         23.7235          79.647 
        1.04929         74.7196         23.4034         79.3091 
        1.05541         74.0667         23.0905         78.9295 
        1.06154         73.8241         22.7826         78.3806 
        1.06769         73.2409         22.4799          77.866 
        1.07382         72.9489         22.1837         77.3228 
        1.07993         72.4702         21.8936         76.8274 
        1.08607         71.7899         21.6074         76.3356 
        1.09222         71.4185         21.3261         75.6666 
        1.09836         70.8853         21.0502         75.2014 
        1.10449         70.4064         20.7795         74.8121 
        1.11063         69.8277         20.5133           74.13 
        1.11677         69.4008         20.2518         73.6758 
         1.1229         68.8901         19.9954         73.5414 
        1.12903         68.0403         19.7432         72.9525 
        1.13518         68.2612         19.4952         72.4933 
        1.14131         67.7691         19.2516         72.0577 
        1.14745         66.9074         19.0123          71.687 
        1.15359         66.7227         18.7771         71.2257 
        1.15973         66.1923         18.5457         70.9252 
        1.16584         65.7482         18.3193         70.3078 
        1.17197         65.3409         18.0964         70.0478 
        1.17811         64.9864         17.8765          69.529 
        1.18424         64.3997         17.6609         69.1951 
        1.19038         64.1016         17.4483         68.8316 
        1.19652         63.8283         17.2393         68.2997 
        1.20267         63.2675         17.0337         68.0162 
        1.20881         62.8998         16.8315         67.5942 
        1.21495         62.3788         16.6329         67.1863 
        1.22108         62.0399         16.4376         66.9265 
         1.2272         61.4885         16.2459         66.5322 
        1.23334         61.2564         16.0568         66.1552 
        1.23949         61.0523         15.8703         65.6516 
        1.24562         60.5951         15.6873         65.3734 
        1.25174         60.2939         15.5074         65.1112 
        1.25789         59.9738         15.3299         64.6683 
        1.26402         59.5208         15.1554         64.3154 
        1.27014         58.9459         14.9841         64.1286 
        1.27628         58.7873         14.8149         63.7402 
        1.28244         58.2466         14.6481          63.233 
        1.28858         58.0113          14.484         62.9474 
        1.29471         57.8491         14.3228         62.7652 
        1.30084         57.4234         14.1643         62.1882 
        1.30697         56.9925         14.0079          61.889 
        1.31312         56.6423         13.8536         61.7523 
        1.31925         56.4692         13.7022         61.3459 
        1.32537          56.158         13.5532         61.0249 
        1.33151         55.6271         13.4059         60.7074 
        1.33765         55.4657         13.2609         60.4015 
        1.34378         55.1233         13.1183         60.0869 
        1.34992         54.6904         12.9777         59.8366 
        1.35606         54.4079         12.8389          59.545 
         1.3622         54.0087         12.7023         59.2167 
        1.36833          53.836         12.5681         58.8685 
        1.37445         53.5947         12.4359         58.6114 
        1.38059         53.2103         12.3052         58.5106 
        1.38675         52.8788         12.1761         58.0159 
        1.39288         52.6258         12.0493         57.8541 
        1.39901         52.3294         11.9244         57.5375 
        1.40515         52.0622          11.801         57.3034 
         1.4113         51.8466         11.6794         57.0637 
        1.41742         51.5188         11.5599         56.6602 
        1.42355         51.1814          11.442         56.3664 
         1.4297         50.8821         11.3253         56.0911 
        1.43585         50.6641         11.2103         55.9203 
        1.44198         50.3777         11.0973          55.725 
        1.44809         50.1375         10.9861         55.2487 
        1.45423         49.9166          10.876         55.0421 
        1.46036         49.6128         10.7677         54.8608 
        1.46649         49.3192         10.6608         54.6634 
        1.47263         49.0229         10.5552         54.4256 
        1.47877         48.8735         10.4511         54.0541 
        1.48491         48.6709         10.3483         53.8495 
        1.49104         48.2884         10.2471         53.5254 
        1.49718         47.8748         10.1471         53.3309 
        1.50333         47.7544         10.0484         53.0734 
        1.50947         47.5131         9.95113         52.8288 
         1.5156          47.228         9.85532         52.6444 
        1.52172         46.9957         9.76077         52.4327 
        1.52787         46.9331         9.66727         52.1882 
          1.534           46.57         9.57512         51.9523 
        1.54013         46.3099         9.48426         51.7034 
        1.54627         46.1482         9.39442         51.4622 
        1.55241         45.8104         9.30573         51.2243 
        1.55855          45.546         9.21832         50.9558 
        1.56467         45.1688         9.13227          50.751 
         1.5708         45.1721         9.04708         50.6101 
        1.57695         44.8819         8.96285         50.4392 
        1.58308         44.6961          8.8799         50.1929 
        1.58922           44.62         8.79793         49.9208 
        1.59535         44.3234         8.71704         49.7003 
         1.6015         43.9565         8.63705         49.4589 
        1.60764         43.8079          8.5581         49.2706 
        1.61376         43.5826         8.48037         49.1381 
        1.61989         43.2264         8.40354         48.8734 
        1.62604         43.1634         8.32749         48.6088 
        1.63218         43.0006         8.25243         48.4158 
        1.63831         42.7248         8.17847         48.2596 
        1.64444         42.5218         8.10539         48.0487 
        1.65059         42.1635         8.03303         47.8126 
        1.65673         42.0043         7.96163         47.6151 
        1.66285         41.8292          7.8913         47.4534 
        1.66898         41.5921          7.8218         47.2971 
        1.67512         41.3979         7.75301         47.1219 
        1.68127         41.1281         7.68497          46.849 
         1.6874         41.0439         7.61791         46.5753 
        1.69353         40.7488         7.55169         46.4386 
        1.69967         40.5838          7.4861         46.3108 
        1.70581         40.5035         7.42132         46.1778 
        1.71193         40.2205         7.35755          45.988 
        1.71806         39.9222         7.29439         45.6843 
        1.72421         39.7624         7.23185         45.4757 
        1.73035         39.5457         7.17012         45.4133 
        1.73649          39.308         7.10913         45.3164 
        1.74262          39.202         7.04889         44.9421 
        1.74876         39.1367         6.98931          44.716 
        1.75489         38.8108         6.93055         44.6167 
        1.76101         38.6537         6.87248         44.4631 
        1.76715           38.45         6.81499          44.279 
        1.77329         38.2254          6.7581         44.1042 
        1.77943         38.1352         6.70183          43.927 
        1.78557           37.92         6.64628          43.732 
        1.79171         37.6836         6.59136         43.5511 
        1.79785         37.5161         6.53704         43.4161 
        1.80399         37.3888         6.48336         43.2991 
        1.81012         37.2232         6.43034         43.0527 
        1.81625         36.9381         6.37794         42.8268 
        1.82239         36.8398         6.32605         42.7203 
        1.82853         36.5383         6.27476         42.6094 
        1.83466         36.4659         6.22409         42.4063 
        1.84078         36.1754         6.17403          42.189 
        1.84692         36.0511         6.12445         42.1031 
        1.85306         35.8816         6.07534         41.9588 
         1.8592         35.7158         6.02685         41.7625 
        1.86533         35.5133         5.97892         41.6445 
        1.87147         35.3988         5.93146         41.4982 
        1.87761          35.273         5.88449         41.2976 
