# k  (h/Mpc)    P(k)  (Mpc/h)^3    P_linear(k)  (Mpc/h)^3     P_NL(k)  ShotnoiseSubtracted = false
     0.00783031         211.989         213.847         212.866 
       0.013688         267.023         267.968         266.802 
       0.019231         274.829         275.078         273.785 
      0.0249154         256.501         257.451         256.648 
      0.0312784         224.762         224.877         224.712 
      0.0375637         192.022         191.684         191.699 
      0.0433917         165.957         165.884         166.028 
      0.0492413         146.734         146.506         146.668 
      0.0555754         132.023         132.096         132.161 
      0.0619321         122.581         122.265         122.266 
       0.067871         114.823         114.957         114.878 
      0.0738098         107.457         107.673          107.54 
      0.0800417         98.7032         99.0286         98.9183 
      0.0862327         89.2329         89.3867         89.3412 
      0.0921407         79.8485         79.8774         79.8888 
      0.0982031         70.6516         70.7438         70.8181 
       0.104506         62.9034          62.744         62.8513 
       0.110769         56.8324         56.7012           56.79 
       0.116806         52.5674          52.601         52.6547 
       0.122832         49.8609         49.8001         49.8365 
       0.129052         47.5984         47.6791          47.687 
       0.135211         45.6265         45.7552         45.7499 
       0.141259         43.5554         43.6062          43.608 
       0.147318         41.0409         41.0117         41.0415 
       0.153489          37.962         37.9832         38.0146 
       0.159709         34.7984         34.7952          34.857 
       0.165845         31.9699         31.8271         31.9239 
       0.171974         29.3003         29.2847         29.3779 
       0.178125         27.3297         27.2769          27.382 
       0.184229         25.8969         25.8088         25.9054 
        0.19034         24.7116         24.7448         24.8279 
       0.196428         23.9392         23.9153         23.9754 
       0.202534         23.2441          23.136         23.1951 
       0.208729         22.2907         22.2582         22.3169 
       0.214876          21.206         21.2345         21.3165 
       0.220989         20.1656         20.0792         20.1732 
       0.227147         18.8431         18.8518         18.9499 
        0.23329         17.6676         17.6622          17.777 
       0.239377         16.6326          16.603         16.7244 
       0.245482         15.7156           15.71         15.8189 
       0.251667         15.0556         14.9876         15.1026 
       0.257832         14.4609         14.4207         14.5287 
       0.263955         14.0016         13.9556          14.055 
       0.270079          13.576         13.5292         13.6238 
        0.27624         13.1748          13.089         13.1783 
       0.282372         12.6907         12.6106         12.7088 
        0.28843         12.1374         12.0954          12.198 
       0.294538         11.5976         11.5492         11.6562 
       0.300721         11.0895         10.9994         11.1139 
        0.30691         10.5384         10.4818         10.5984 
       0.313033         10.0884         10.0247         10.1377 
       0.319153         9.63519         9.63021         9.74662 
       0.325316         9.38339         9.29256         9.41039 
        0.33145         9.07422         9.00079         9.11096 
       0.337538         8.80373         8.73697         8.84262 
       0.343633          8.5281         8.48009          8.5839 
       0.349808         8.27752          8.2154         8.32371 
       0.355968         8.00865         7.94047         8.06152 
       0.362074         7.71915         7.66048         7.77575 
       0.368217         7.44118         7.37818          7.4847 
       0.374374         7.14525         7.10422         7.21832 
       0.380519         6.91484         6.84869          6.9586 
       0.386598         6.69195         6.61755         6.73009 
       0.392688         6.49757         6.40928         6.52057 
        0.39888         6.29278         6.21781         6.32815 
       0.405048         6.12077          6.0419         6.14448 
       0.411186         5.95719         5.87577         5.98787 
       0.417313         5.77786         5.71317         5.82122 
       0.423458         5.62654         5.55015         5.65961 
       0.429607         5.44849         5.38689         5.49254 
       0.435692         5.28867         5.22586         5.33524 
       0.441815         5.13254         5.06712         5.18192 
       0.447964         4.99989         4.91417         5.02456 
       0.454126         4.83267         4.76926         4.87802 
       0.460267         4.69824         4.63403         4.74552 
       0.466387         4.56335         4.50868         4.61444 
        0.47254         4.45286         4.39045         4.49688 
       0.478662         4.34673         4.27851         4.38223 
       0.484765         4.22865         4.17087         4.27455 
       0.490885          4.1258         4.06564         4.17659 
       0.497035         4.04198         3.96151          4.0737 
       0.503198         3.92797         3.85858         3.96162 
       0.509342         3.83365         3.75814         3.86341 
       0.515458         3.72661         3.66115         3.77108 
       0.521598         3.63549         3.56735         3.66881 
       0.527764         3.53658         3.47712         3.57797 
       0.533884         3.46613         3.39181         3.49218 
           0.54         3.38026         3.31077         3.40922 
       0.546137         3.30625         3.23298         3.33392 
       0.552299         3.22885         3.15769         3.25107 
       0.558452         3.14472         3.08472         3.17976 
       0.564573         3.08217         3.01403         3.11627 
       0.570708         3.01263         2.94494         3.04456 
       0.576825         2.93897         2.87769         2.97495 
       0.582926         2.88192         2.81225         2.91103 
       0.589034         2.79985         2.74854         2.85054 
       0.595184         2.74307         2.68646         2.77782 
       0.601379          2.6827         2.62623          2.7254 
       0.607522         2.63303         2.56878         2.66567 
       0.613639         2.58529         2.51362         2.60861 
       0.619772         2.51813         2.46011         2.55809 
       0.625918         2.47119         2.40808         2.50186 
       0.632068         2.42631         2.35745         2.44925 
       0.638161         2.36984         2.30865         2.40049 
         0.6443         2.32126         2.26078         2.35036 
       0.650464         2.26766         2.21402         2.30762 
       0.656582          2.2302         2.16883         2.26058 
       0.662703           2.186         2.12484         2.21466 
       0.668861         2.14864         2.08181         2.17439 
       0.675024         2.10014         2.03996         2.13021 
       0.681124         2.05509         1.99974         2.08808 
       0.687237         2.02205         1.96063         2.04524 
       0.693381         1.98444         1.92247          2.0049 
       0.699536         1.93514         1.88533         1.96887 
       0.705665         1.90183         1.84937         1.93836 
       0.711789         1.87086         1.81438         1.90134 
       0.717957         1.83196         1.78002         1.86372 
        0.72409         1.79978         1.74669         1.83091 
       0.730186         1.76636         1.71438         1.79586 
       0.736317          1.7427         1.68268         1.76283 
       0.742472         1.70959         1.65166         1.73615 
       0.748622           1.676         1.62146         1.70612 
        0.75476         1.64107         1.59209         1.67264 
       0.760888         1.61256         1.56353         1.64434 
       0.767043         1.59353         1.53559         1.61714 
       0.773185         1.55931         1.50841         1.59081 
       0.779291         1.53451         1.48206         1.56363 
       0.785407         1.50844         1.45632         1.53618 
       0.791564         1.48396         1.43104         1.51072 
       0.797719         1.46119         1.40637         1.48278 
       0.803834         1.43771         1.38244         1.45973 
       0.809972         1.41249         1.35897         1.43867 
       0.816124         1.38653         1.33599          1.4123 
       0.822261         1.36127          1.3136         1.38884 
       0.828378         1.34302          1.2918         1.36708 
       0.834502         1.32434         1.27047         1.34388 
       0.840667         1.29688         1.24948         1.32382 
       0.846816         1.27682         1.22904         1.30628 
       0.852925         1.26181         1.20918         1.28384 
       0.859047         1.24132         1.18973         1.26662 
       0.865192         1.21958         1.17064         1.24526 
       0.871341         1.20079         1.15197         1.22545 
       0.877463         1.18637         1.13379         1.20585 
       0.883569         1.16443         1.11605         1.18951 
       0.889708         1.14666         1.09861          1.1716 
       0.895864         1.12916          1.0815         1.15311 
       0.902008          1.1108         1.06478          1.1362 
       0.908149         1.09461         1.04844         1.11985 
       0.914301         1.07373         1.03241         1.10229 
       0.920448            1.06         1.01674         1.08583 
       0.926574         1.04385         1.00144         1.07118 
       0.932687          1.0285          0.9865         1.05341 
       0.938823         1.01777        0.971808         1.04219 
       0.944975         1.00195        0.957384         1.02387 
       0.951105        0.988152        0.943306          1.0097 
       0.957225        0.976942        0.929537        0.997434 
       0.963368         0.96151        0.915998        0.982206 
       0.969511        0.945744        0.902729        0.968984 
       0.975621        0.931179        0.889797        0.953038 
       0.981748        0.922218        0.877087        0.940381 
       0.987916        0.907843        0.864546        0.930371 
        0.99406         0.89399        0.852299        0.918352 
        1.00019        0.884457        0.840315        0.905661 
        1.00632        0.869019        0.828574        0.892018 
        1.01246        0.857535        0.817042        0.879774 
        1.01859        0.847657        0.805749        0.869231 
        1.02471        0.835222        0.794685        0.857831 
        1.03085        0.826738        0.783792        0.844711 
        1.03698        0.813584        0.773127        0.833377 
        1.04314        0.803741        0.762616        0.823223 
        1.04929        0.791955        0.752327         0.81279 
        1.05541        0.783415         0.74227        0.803391 
        1.06154        0.771596        0.732372        0.793013 
        1.06769        0.761053        0.722641         0.78278 
        1.07382        0.752284         0.71312        0.772694 
        1.07993        0.740782        0.703792        0.762846 
        1.08607         0.73494        0.694594        0.753993 
        1.09222        0.723384        0.685551        0.743382 
        1.09836        0.717249        0.676681         0.73503 
        1.10449        0.707894        0.667979        0.726073 
        1.11063         0.69642        0.659421        0.715953 
        1.11677        0.687129        0.651016        0.708471 
         1.1229        0.679834        0.642774        0.699831 
        1.12903        0.670673        0.634668        0.691117 
        1.13518         0.66418        0.626695         0.68284 
        1.14131        0.654671        0.618864        0.674938 
        1.14745        0.643543        0.611172        0.665579 
        1.15359        0.638605         0.60361        0.658852 
        1.15973        0.628664        0.596173        0.651547 
        1.16584        0.624975        0.588895        0.642894 
        1.17197        0.616156        0.581729         0.63595 
        1.17811        0.609792         0.57466        0.629143 
        1.18424        0.604143         0.56773        0.620706 
        1.19038        0.594888        0.560895        0.613843 
        1.19652        0.586708        0.554175        0.607406 
        1.20267        0.582467        0.547566         0.59895 
        1.20881        0.574103        0.541067        0.593163 
        1.21495        0.569293        0.534683        0.587937 
        1.22108        0.562205        0.528404        0.579915 
         1.2272        0.556759        0.522242        0.572818 
        1.23334         0.54927        0.516163        0.567059 
        1.23949        0.543239        0.510168        0.561545 
        1.24562        0.537434        0.504285        0.555213 
        1.25174        0.531815        0.498503        0.548457 
        1.25789        0.526456        0.492795          0.5425 
        1.26402        0.518596        0.487187        0.536714 
        1.27014        0.513439        0.481681        0.530646 
        1.27628        0.509343        0.476243        0.524682 
        1.28244         0.50139        0.470879         0.51927 
        1.28858        0.496934        0.465605        0.513051 
        1.29471        0.492907        0.460424        0.508146 
        1.30084        0.486217        0.455326        0.503912 
        1.30697        0.481068        0.450299         0.49813 
        1.31312         0.47416        0.445341        0.492623 
        1.31925        0.470402        0.440473        0.488076 
        1.32537        0.466172        0.435683         0.48309 
        1.33151        0.461962        0.430947        0.478019 
        1.33765        0.456712        0.426285        0.473074 
        1.34378        0.450603        0.421701        0.468274 
        1.34992        0.446936        0.417182        0.463606 
        1.35606        0.441944         0.41272         0.45816 
         1.3622        0.437584         0.40833        0.453742 
        1.36833        0.432817        0.404016        0.449669 
        1.37445        0.427143        0.399766         0.44539 
        1.38059         0.42319        0.395564        0.440541 
        1.38675        0.421509        0.391413        0.435913 
        1.39288        0.415753        0.387338        0.431498 
        1.39901        0.411668        0.383323         0.42752 
        1.40515        0.407976        0.379356        0.423105 
         1.4113        0.402832        0.375446        0.419417 
        1.41742        0.398989        0.371607        0.416231 
        1.42355        0.396555        0.367814        0.410476 
         1.4297        0.391156        0.364064        0.407771 
        1.43585        0.387765        0.360367         0.40348 
        1.44198        0.385273        0.356735        0.398363 
        1.44809        0.380173        0.353161        0.396204 
        1.45423        0.376854        0.349622        0.391013 
        1.46036        0.372998        0.346139        0.387808 
        1.46649        0.370048        0.342702        0.385034 
        1.47263        0.365943        0.339309        0.380989 
        1.47877        0.361841        0.335963        0.377447 
        1.48491        0.358982        0.332658        0.374415 
        1.49104        0.354599        0.329404        0.369894 
        1.49718        0.351808        0.326191        0.367587 
        1.50333        0.349007        0.323016        0.363068 
        1.50947        0.345464         0.31989        0.359545 
         1.5156        0.341935         0.31681        0.357126 
        1.52172        0.338977        0.313771        0.353365 
        1.52787         0.33567        0.310765        0.350068 
          1.534        0.332544        0.307803        0.347408 
        1.54013        0.328926        0.304882        0.344191 
        1.54627        0.326678        0.301994        0.340835 
        1.55241        0.323128        0.299143        0.337777 
        1.55855        0.319813        0.296333        0.334767 
        1.56467        0.318512        0.293567        0.332127 
         1.5708        0.314738        0.290829        0.328755 
        1.57695        0.312136        0.288121        0.325539 
        1.58308        0.308975        0.285454        0.323265 
        1.58922        0.306527        0.282819        0.320595 
        1.59535        0.303511        0.280219         0.31753 
         1.6015        0.300757        0.277648        0.314392 
        1.60764        0.298394         0.27511        0.312098 
        1.61376        0.294888        0.272611        0.310172 
        1.61989        0.293003        0.270141        0.307224 
        1.62604        0.290578        0.267696        0.304399 
        1.63218        0.288182        0.265284        0.301938 
        1.63831         0.28573        0.262906        0.299381 
        1.64444        0.282973        0.260557        0.296535 
        1.65059        0.280575        0.258231        0.294017 
        1.65673        0.278223        0.255936        0.291746 
        1.66285        0.276104        0.253675        0.289363 
        1.66898        0.273828        0.251441        0.286736 
        1.67512        0.270789        0.249229        0.284329 
        1.68127        0.268363        0.247042        0.282125 
         1.6874        0.266957        0.244886        0.280032 
        1.69353        0.264023        0.242758        0.277812 
        1.69967        0.262449        0.240649        0.275097 
        1.70581        0.259494        0.238567        0.272773 
        1.71193        0.257646        0.236517        0.270813 
        1.71806        0.255177        0.234486        0.268465 
        1.72421         0.25366        0.232476        0.266601 
        1.73035        0.251094        0.230492        0.264416 
        1.73649        0.249576        0.228531        0.261727 
        1.74262        0.247251        0.226595        0.259721 
        1.74876        0.245092        0.224679        0.258118 
        1.75489        0.243378         0.22279        0.256158 
        1.76101        0.240835        0.220924        0.253827 
        1.76715        0.239103        0.219076        0.252062 
        1.77329        0.236966        0.217247        0.250285 
        1.77943        0.235034        0.215438        0.248174 
        1.78557        0.233654        0.213652        0.245952 
        1.79171        0.231694        0.211887        0.243815 
        1.79785        0.229757        0.210141        0.242042 
        1.80399        0.227874        0.208415        0.240509 
        1.81012        0.226237        0.206711        0.238123 
        1.81625        0.224308        0.205026         0.23613 
        1.82239        0.222757        0.203358        0.234985 
        1.82853        0.220424        0.201709        0.233387 
        1.83466         0.21907        0.200081        0.231348 
        1.84078        0.217202        0.198471          0.2294 
        1.84692        0.215485        0.196877        0.227947 
        1.85306        0.214288        0.195299        0.225989 
         1.8592        0.212181         0.19374        0.223899 
        1.86533        0.210898        0.192199        0.222527 
        1.87147        0.209094        0.190674        0.221017 
        1.87761        0.207808        0.189164        0.219489 
