# k  (h/Mpc)    P(k)  (Mpc/h)^3    P_linear(k)  (Mpc/h)^3     P_NL(k)  ShotnoiseSubtracted = false
     0.00783031         7851.77         7948.62         7912.79 
       0.013688         10001.8         9944.11         9888.77 
       0.019231         10219.1         10202.6         10132.7 
      0.0249154         9404.42         9546.26         9482.78 
      0.0312784         8280.12          8337.1         8284.22 
      0.0375637         7115.74          7105.8          7061.4 
      0.0433917         6082.56         6149.02         6104.78 
      0.0492413         5415.73         5430.49         5390.69 
      0.0555754         4804.67          4896.2         4859.58 
      0.0619321         4556.72         4531.72         4494.92 
       0.067871         4191.22         4260.79         4225.38 
      0.0738098         3920.36         3990.77         3934.75 
      0.0800417         3574.26         3670.32         3621.07 
      0.0862327         3257.11         3312.93         3290.75 
      0.0921407         2948.83         2960.46         2946.85 
      0.0982031         2602.31         2621.93         2639.08 
       0.104506         2372.13         2325.43         2366.18 
       0.110769         2149.52         2101.46         2129.59 
       0.116806         1987.27         1949.49         1974.89 
       0.122832         1892.08         1845.68         1873.29 
       0.129052         1778.04         1767.07          1790.1 
       0.135211         1705.91         1695.76         1717.17 
       0.141259         1643.56         1616.11         1646.09 
       0.147318         1556.74         1519.95         1565.11 
       0.153489         1432.57         1407.71         1441.98 
       0.159709         1338.17         1289.55         1341.39 
       0.165845         1258.22         1179.55         1257.02 
       0.171974          1163.7         1085.33         1162.59 
       0.178125         1096.24         1010.91         1102.97 
       0.184229         1045.14         956.502         1043.22 
        0.19034          980.01         917.069         999.126 
       0.196428         965.965         886.328         957.688 
       0.202534         940.627         857.445         930.739 
       0.208729         898.631         824.914         892.798 
       0.214876         854.324          786.97         871.171 
       0.220989         825.601         744.156         836.412 
       0.227147         778.472         698.666         795.868 
        0.23329         741.709         654.577         763.012 
       0.239377         719.123         615.321         725.711 
       0.245482         669.121         582.227         686.069 
       0.251667         659.936         555.453          664.61 
       0.257832         636.416         534.444         639.498 
       0.263955         615.968         517.207         619.029 
       0.270079         595.223         501.405         602.226 
        0.27624         588.223         485.089         583.689 
       0.282372         564.623         467.358         568.862 
        0.28843         549.065         448.265         551.581 
       0.294538         522.655         428.021         535.323 
       0.300721         517.448         407.647         518.614 
        0.30691         492.527         388.463         503.454 
       0.313033         481.213         371.523         483.638 
       0.319153         464.573         356.903         468.896 
       0.325316         451.586         344.389         457.744 
        0.33145         438.197         333.576         441.261 
       0.337538         432.102         323.799         430.801 
       0.343633         418.399         314.279          425.69 
       0.349808         405.149         304.469         417.434 
       0.355968          400.21          294.28         409.286 
       0.362074         391.316         283.903         398.827 
       0.368217         380.453         273.441         385.854 
       0.374374         365.865         263.288         376.479 
       0.380519         361.259         253.817         366.277 
       0.386598         352.192         245.251         359.688 
       0.392688         348.688         237.532         349.717 
        0.39888         339.096         230.436         342.314 
       0.405048         331.631         223.917         337.678 
       0.411186         324.737          217.76         328.976 
       0.417313          318.86         211.734         321.324 
       0.423458         312.557         205.692         316.064 
       0.429607         305.712         199.642         309.972 
       0.435692         297.814         193.674         303.291 
       0.441815         295.374         187.791         299.988 
       0.447964         289.345         182.122         293.635 
       0.454126         278.924         176.752         285.386 
       0.460267         275.388          171.74         282.899 
       0.466387         272.218         167.095         276.975 
        0.47254         266.189         162.713         272.468 
       0.478662         264.812         158.564         267.304 
       0.484765         256.731         154.575         261.231 
       0.490885         253.367         150.675         258.041 
       0.497035         249.287         146.816         254.802 
       0.503198         243.639         143.001         250.707 
       0.509342         241.094         139.279         247.372 
       0.515458         237.915         135.685         244.725 
       0.521598         233.759         132.208         239.404 
       0.527764         230.054         128.864         235.672 
       0.533884         227.075         125.702         232.512 
           0.54         223.739         122.699         228.802 
       0.546137         222.263         119.816         226.222 
       0.552299         217.962         117.026         222.074 
       0.558452         215.172         114.322         219.122 
       0.564573         211.654         111.702         217.175 
       0.570708         207.894         109.141         214.482 
       0.576825         205.151         106.649         210.254 
       0.582926         202.301         104.224         207.726 
       0.589034         199.773         101.863          205.62 
       0.595184         197.515         99.5621         201.773 
       0.601379          195.52         97.3298         200.517 
       0.607522         191.409         95.2008         197.393 
       0.613639         190.432         93.1561         195.469 
       0.619772         186.282         91.1731         193.078 
       0.625918         184.658          89.245         190.793 
       0.632068         182.349         87.3687          187.77 
       0.638161         181.111         85.5598         186.761 
         0.6443         178.409          83.786         184.372 
       0.650464         176.461         82.0529          180.92 
       0.656582         174.698         80.3783         179.577 
       0.662703         172.559          78.748         177.653 
       0.668861         169.904         77.1531         175.723 
       0.675024         167.853          75.602          173.48 
       0.681124         167.012         74.1116           171.7 
       0.687237          164.18         72.6621          169.69 
       0.693381         161.911         71.2481         167.704 
       0.699536         160.738         69.8716         166.215 
       0.705665         160.499         68.5387         165.278 
       0.711789          157.03         67.2418         162.829 
       0.717957         156.481         65.9686         161.265 
        0.72409          154.33         64.7335         160.395 
       0.730186         151.942          63.536         158.804 
       0.736317         151.034         62.3613         156.689 
       0.742472         149.971         61.2116         155.271 
       0.748622         148.668         60.0922         153.464 
        0.75476         147.302         59.0039         152.148 
       0.760888         145.198         57.9453         150.174 
       0.767043          144.43         56.9097         149.358 
       0.773185         142.862         55.9025         148.421 
       0.779291         140.744         54.9262         146.749 
       0.785407         140.082         53.9722         145.018 
       0.791564         138.629         53.0352         144.077 
       0.797719         136.688          52.121         143.239 
       0.803834         136.023         51.2339         141.449 
       0.809972         134.341         50.3642         140.294 
       0.816124         134.115         49.5126         139.348 
       0.822261         132.489         48.6829         137.977 
       0.828378          131.21         47.8747         136.314 
       0.834502         130.871         47.0843          135.53 
       0.840667         128.877         46.3066         134.828 
       0.846816         127.702         45.5488         133.466 
       0.852925         126.854         44.8129          132.32 
       0.859047         125.285          44.092         131.248 
       0.865192         124.569         43.3847         130.314 
       0.871341          123.38         42.6926         129.004 
       0.877463         122.245         42.0189         128.269 
       0.883569         121.406         41.3616         127.439 
       0.889708         120.508         40.7151         126.375 
       0.895864           119.3         40.0808         125.676 
       0.902008         118.511         39.4615          124.28 
       0.908149         117.833         38.8558         123.273 
       0.914301         116.523         38.2618         122.587 
       0.920448         115.739         37.6809         121.754 
       0.926574         114.963         37.1141         120.441 
       0.932687         114.484         36.5602         119.585 
       0.938823          112.76         36.0158         118.896 
       0.944975         111.853         35.4812         118.083 
       0.951105         111.224         34.9595         117.105 
       0.957225         109.919         34.4492         116.354 
       0.963368         109.246         33.9474         115.127 
       0.969511         108.896         33.4557         114.484 
       0.975621         108.317         32.9764         114.599 
       0.981748         107.466         32.5053         113.398 
       0.987916         106.242         32.0406         112.738 
        0.99406         105.641         31.5867         111.743 
        1.00019         104.926         31.1426         110.797 
        1.00632         104.199         30.7074         110.078 
        1.01246         103.386           30.28          109.16 
        1.01859         102.126         29.8615          108.85 
        1.02471         102.081         29.4515         108.443 
        1.03085         101.068         29.0478         107.483 
        1.03698         100.397         28.6525         106.584 
        1.04314         99.4853          28.263         106.027 
        1.04929         98.8956         27.8817         105.553 
        1.05541         98.1574         27.5089         104.988 
        1.06154         97.6504         27.1421         104.376 
        1.06769           97.24         26.7815         103.717 
        1.07382          96.714         26.4286         103.065 
        1.07993           95.94         26.0829          102.39 
        1.08607         95.1644          25.742         101.808 
        1.09222         94.7216         25.4069         101.106 
        1.09836         93.9463         25.0782         100.368 
        1.10449         93.3562         24.7557         99.8432 
        1.11063         92.7217         24.4385          98.963 
        1.11677         92.2436          24.127         98.4683 
         1.1229         91.2972         23.8216          98.163 
        1.12903         90.4871         23.5211         97.4182 
        1.13518         90.6959         23.2257         96.8697 
        1.14131         89.8709         22.9354         96.2158 
        1.14745         89.0237         22.6504         95.7807 
        1.15359         88.5818         22.3701         95.1002 
        1.15973         88.1763         22.0945         94.9163 
        1.16584         87.4903         21.8248         94.0138 
        1.17197          86.943         21.5592         93.6758 
        1.17811         86.3643         21.2972         93.1507 
        1.18424         85.7967         21.0404         92.6935 
        1.19038         85.3396         20.7871         92.1188 
        1.19652         84.8983          20.538         91.5212 
        1.20267         84.1555         20.2931         91.0641 
        1.20881         83.6769         20.0522         90.6016 
        1.21495         83.0999         19.8157         89.9253 
        1.22108         82.6319          19.583         89.7106 
         1.2272         81.9569         19.3546         89.0969 
        1.23334          81.634         19.1293         88.7609 
        1.23949         81.0626         18.9071         88.0179 
        1.24562         80.7038         18.6891         87.6211 
        1.25174         80.1762         18.4748         87.2303 
        1.25789         79.7863         18.2633          86.747 
        1.26402         79.3982         18.0554         86.3311 
        1.27014         78.6165         17.8513         86.1759 
        1.27628         78.3911         17.6498         85.6953 
        1.28244         77.6792          17.451         84.8527 
        1.28858         77.3722         17.2556         84.4355 
        1.29471          76.989         17.0635         84.2088 
        1.30084         76.4509         16.8746         83.5674 
        1.30697         75.9842         16.6883         83.2451 
        1.31312         75.6011         16.5046         82.9016 
        1.31925         75.2203         16.3242         82.3993 
        1.32537         74.8664         16.1466         82.0386 
        1.33151         74.1207         15.9711         81.5784 
        1.33765         73.7686         15.7984         81.2139 
        1.34378         73.3285         15.6285          80.801 
        1.34992         73.0807          15.461         80.4235 
        1.35606         72.6475         15.2956         79.9744 
         1.3622         71.9543         15.1329         79.6158 
        1.36833         71.8459          14.973         79.1471 
        1.37445         71.3402         14.8155         78.7517 
        1.38059         70.8157         14.6598         78.5313 
        1.38675         70.4367          14.506         77.9322 
        1.39288         70.0126         14.3549         77.7325 
        1.39901         69.8474         14.2061          77.358 
        1.40515         69.4272         14.0591         77.0834 
         1.4113         68.9456         13.9142         76.7731 
        1.41742         68.8067          13.772         76.2081 
        1.42355         68.1594         13.6314         75.7787 
         1.4297         67.8498         13.4924         75.4704 
        1.43585         67.3608         13.3554         75.1534 
        1.44198         67.1113         13.2208         74.9023 
        1.44809          66.749         13.0883         74.3632 
        1.45423         66.3738         12.9572         74.0572 
        1.46036         66.1021         12.8281         73.7963 
        1.46649         65.6825         12.7007         73.5445 
        1.47263         65.2562          12.575         73.2097 
        1.47877         65.0665          12.451         72.6527 
        1.48491         64.7113         12.3285         72.4915 
        1.49104         64.2768         12.2079          72.112 
        1.49718         63.8212         12.0888         71.7617 
        1.50333         63.5456         11.9711          71.394 
        1.50947         63.1938         11.8553         71.0543 
         1.5156         62.9246         11.7411         70.7946 
        1.52172         62.5796         11.6285         70.5337 
        1.52787         62.4083         11.5171          70.197 
          1.534         61.9851         11.4073         69.8998 
        1.54013         61.5868         11.2991         69.5299 
        1.54627         61.3499         11.1921         69.2237 
        1.55241         60.9051         11.0864         68.9671 
        1.55855         60.5853         10.9823         68.5506 
        1.56467         60.1308         10.8797         68.2919 
         1.5708         60.0612         10.7783         68.0816 
        1.57695         59.7877         10.6779         67.8091 
        1.58308         59.3077         10.5791         67.5242 
        1.58922         59.2175         10.4814         67.1726 
        1.59535          58.973         10.3851          66.856 
         1.6015         58.3906         10.2898         66.5241 
        1.60764         58.2432         10.1957         66.3232 
        1.61376         57.8483         10.1031         66.1964 
        1.61989         57.5166         10.0116         65.8087 
        1.62604         57.3661         9.92096         65.4015 
        1.63218         57.1584         9.83154         65.1262 
        1.63831          56.776         9.74343         64.9589 
        1.64444         56.4594         9.65637         64.6763 
        1.65059         56.0408         9.57016         64.2525 
        1.65673         55.8597          9.4851         64.0501 
        1.66285         55.5552         9.40132         63.8879 
        1.66898         55.3091         9.31852         63.5528 
        1.67512         54.9515         9.23656         63.3446 
        1.68127         54.6314         9.15551         63.0174 
         1.6874         54.4685         9.07561         62.6594 
        1.69353         54.1247         8.99672          62.509 
        1.69967          53.878         8.91857         62.3061 
        1.70581         53.7454          8.8414         62.0238 
        1.71193          53.468         8.76542          61.752 
        1.71806         52.9451         8.69018         61.5472 
        1.72421         52.8588         8.61568         61.2554 
        1.73035         52.5418         8.54214          61.012 
        1.73649         52.1463         8.46947         60.8314 
        1.74262         52.0756         8.39771         60.5127 
        1.74876         51.8152         8.32673         60.2227 
        1.75489         51.4674         8.25672         60.0076 
        1.76101         51.3042         8.18754         59.7857 
        1.76715         50.9361         8.11905         59.4804 
        1.77329         50.6934         8.05127           59.26 
        1.77943         50.4613         7.98423         59.0478 
        1.78557          50.292         7.91806         58.7264 
        1.79171         49.9757         7.85263         58.4827 
        1.79785         49.7741         7.78792         58.3091 
        1.80399           49.53         7.72396         58.1005 
        1.81012         49.3404          7.6608         57.8676 
        1.81625         48.8865         7.59837         57.6103 
        1.82239         48.7592         7.53655         57.3915 
        1.82853         48.3685         7.47545          57.259 
        1.83466         48.2796         7.41508         56.9863 
        1.84078         47.8931         7.35545         56.6642 
        1.84692         47.6825         7.29637         56.5823 
        1.85306          47.501         7.23787         56.3704 
         1.8592         47.1878          7.1801         56.0577 
        1.86533         47.0357           7.123         55.8969 
        1.87147         46.7922         7.06645         55.6515 
        1.87761         46.6042          7.0105         55.3698 
