# k  (h/Mpc)    P(k)  (Mpc/h)^3    P_linear(k)  (Mpc/h)^3     P_NL(k)  ShotnoiseSubtracted = false
     0.00783031         7427.54         7518.19         7484.45 
       0.013688         9458.19         9406.16         9354.51 
       0.019231         9666.22          9650.8         9585.84 
      0.0249154         8900.07         9030.07         8971.86 
      0.0312784          7835.2         7886.32         7838.88 
      0.0375637         6732.05         6721.62         6682.01 
      0.0433917         5756.85         5816.58         5777.39 
      0.0492413         5124.49          5136.9         5101.76 
      0.0555754         4548.77          4631.5         4599.01 
      0.0619321         4311.22         4286.74         4253.99 
       0.067871         3967.95         4030.45         3998.81 
      0.0738098         3711.51         3775.03         3724.87 
      0.0800417         3384.79         3471.91         3427.84 
      0.0862327         3083.62         3133.83         3114.16 
      0.0921407         2790.33         2800.42         2788.52 
      0.0982031         2462.27         2480.19         2496.02 
       0.104506         2242.67         2199.72         2236.79 
       0.110769         2031.85         1987.86         2013.44 
       0.116806         1877.87          1844.1         1867.19 
       0.122832         1788.15         1745.91         1771.01 
       0.129052         1681.25         1671.54         1692.45 
       0.135211         1612.99         1604.09         1623.62 
       0.141259         1553.63         1528.75         1555.93 
       0.147318         1471.36         1437.79         1478.86 
       0.153489         1354.14         1331.61         1362.71 
       0.159709         1263.96         1219.84          1266.8 
       0.165845         1187.43         1115.79         1186.03 
       0.171974         1097.36         1026.66         1096.52 
       0.178125         1033.52         956.266         1039.55 
       0.184229         985.287         904.796         983.372 
        0.19034         923.817         867.494         941.763 
       0.196428         910.418         838.416         902.748 
       0.202534         886.853         811.093         877.201 
       0.208729         847.144         780.321         841.663 
       0.214876         804.973         744.429         820.729 
       0.220989         777.766         703.929         787.465 
       0.227147         732.702         660.898         748.733 
        0.23329         697.768         619.192         717.343 
       0.239377         675.852         582.058         682.105 
       0.245482         628.827         550.753          644.68 
       0.251667         619.758         525.427         624.263 
       0.257832         597.846         505.554         600.637 
       0.263955         578.521         489.248         581.312 
       0.270079          559.11           474.3           565.4 
        0.27624          552.29         458.867         547.833 
       0.282372         530.262         442.094          533.71 
        0.28843         514.937         424.033         517.224 
       0.294538         490.389         404.884         501.798 
       0.300721          485.07         385.611         486.052 
        0.30691         461.584         367.464         471.429 
       0.313033         450.698         351.439          452.76 
       0.319153         434.582          337.61         438.933 
       0.325316         422.662         325.773         428.358 
        0.33145         409.923         315.544         412.953 
       0.337538         404.193         306.295         402.942 
       0.343633         391.301          297.29         397.922 
       0.349808         379.005          288.01         390.089 
       0.355968         374.044         278.372         382.367 
       0.362074         365.401         268.556         372.432 
       0.368217         355.253         258.659         360.203 
       0.374374          341.92         249.055         351.343 
       0.380519          337.19         240.097         341.705 
       0.386598         328.675         231.993         335.284 
       0.392688         325.121         224.692         326.127 
        0.39888         316.269          217.98         318.937 
       0.405048         309.222         211.813         314.546 
       0.411186         302.664         205.989         306.513 
       0.417313         297.117         200.288         299.169 
       0.423458         291.158         194.573         294.153 
       0.429607         284.646          188.85         288.483 
       0.435692         277.106         183.204         282.245 
       0.441815         274.839         177.639         279.061 
       0.447964         269.304         172.277         273.005 
       0.454126           259.2         167.197         265.308 
       0.460267         255.997         162.457         262.867 
       0.466387         252.992         158.062         257.289 
        0.47254         247.387         153.917         253.016 
       0.478662         245.926         149.993         248.227 
       0.484765         238.509         146.219         242.468 
       0.490885          235.26          142.53         239.517 
       0.497035         231.569          138.88         236.465 
       0.503198         226.089         135.271         232.591 
       0.509342         223.542          131.75          229.43 
       0.515458         220.551          128.35          226.94 
       0.521598         216.843         125.061         221.891 
       0.527764         213.447         121.898         218.259 
       0.533884         210.492         118.907         215.322 
           0.54         207.333         116.067         211.892 
       0.546137         205.873         113.339         209.496 
       0.552299         201.986           110.7         205.524 
       0.558452         199.147         108.142         202.692 
       0.564573         195.836         105.664         200.869 
       0.570708         192.454         103.241         198.275 
       0.576825         189.944         100.884          194.39 
       0.582926         187.139         98.5897         191.977 
       0.589034         184.684         96.3564         190.069 
       0.595184         182.561           94.18         186.499 
       0.601379         180.723         92.0684         185.308 
       0.607522         176.792         90.0545         182.274 
       0.613639         175.954         88.1204         180.464 
       0.619772         172.126         86.2446         178.095 
       0.625918         170.502         84.4206         176.072 
       0.632068         168.453         82.6458         173.257 
       0.638161          167.18         80.9347         172.278 
         0.6443         164.767         79.2568         169.988 
       0.650464         162.925         77.6174         166.777 
       0.656582         161.152         76.0333         165.575 
       0.662703          159.01         74.4911         163.625 
       0.668861         156.685         72.9824         161.868 
       0.675024         154.804         71.5152         159.732 
       0.681124         153.917         70.1054         158.129 
       0.687237         151.218         68.7342         156.224 
       0.693381         149.184         67.3966         154.351 
       0.699536         148.059         66.0946         152.998 
       0.705665         148.009         64.8337         152.135 
       0.711789         144.558         63.6069         149.725 
       0.717957         144.054         62.4025         148.284 
        0.72409         142.025         61.2342         147.512 
       0.730186         139.761         60.1014         146.004 
       0.736317         139.062         58.9902         144.017 
       0.742472          137.99         57.9027         142.713 
       0.748622         136.766         56.8438         141.029 
        0.75476         135.469         55.8143         139.697 
       0.760888         133.524         54.8129         137.906 
       0.767043         132.714         53.8333          137.18 
       0.773185         131.275         52.8806         136.319 
       0.779291         129.481          51.957         134.778 
       0.785407         128.791         51.0546          133.11 
       0.791564         127.401         50.1683         132.229 
       0.797719         125.605         49.3034          131.44 
       0.803834         125.003         48.4644          129.71 
       0.809972         123.326         47.6416         128.652 
       0.816124         123.063         46.8361         127.819 
       0.822261         121.664         46.0513          126.51 
       0.828378         120.484         45.2868         124.938 
       0.834502         120.039          44.539         124.258 
       0.840667         118.316         43.8034         123.644 
       0.846816         117.177         43.0866         122.331 
       0.852925         116.325         42.3905         121.237 
       0.859047         114.867         41.7085         120.209 
       0.865192          114.27         41.0394           119.4 
       0.871341           113.2         40.3847         118.162 
       0.877463         112.044         39.7475          117.47 
       0.883569         111.271         39.1257         116.682 
       0.889708         110.476         38.5141         115.714 
       0.895864         109.419         37.9142          115.04 
       0.902008         108.639         37.3284         113.749 
       0.908149         107.982         36.7554         112.854 
       0.914301         106.776         36.1935         112.213 
       0.920448         106.086          35.644         111.442 
       0.926574         105.315         35.1078           110.2 
       0.932687         104.874         34.5839          109.41 
       0.938823         103.263         34.0689         108.728 
       0.944975         102.499         33.5632         107.957 
       0.951105         101.845         33.0697         107.094 
       0.957225         100.636         32.5869         106.427 
       0.963368         100.126         32.1123         105.264 
       0.969511         99.7458         31.6472         104.672 
       0.975621         99.1995         31.1938         104.793 
       0.981748         98.3502         30.7482         103.653 
       0.987916         97.2914         30.3085         103.072 
        0.99406         96.7363         29.8792         102.117 
        1.00019         95.9597         29.4591         101.242 
        1.00632         95.3858         29.0475         100.627 
        1.01246         94.5821         28.6432         99.7828 
        1.01859         93.3821         28.2473         99.4522 
        1.02471         93.4677         27.8594         99.0605 
        1.03085         92.5029         27.4775         98.1666 
        1.03698         91.8592         27.1036         97.3377 
        1.04314         91.0013         26.7352         96.8224 
        1.04929         90.4787         26.3745         96.4007 
        1.05541         89.7651         26.0219         95.8968 
        1.06154         89.3553         25.6749         95.3138 
        1.06769         88.8672         25.3338         94.6984 
        1.07382         88.4522              25         94.0856 
        1.07993           87.78          24.673         93.4802 
        1.08607         87.0349         24.3505         92.9194 
        1.09222         86.6058         24.0335         92.2046 
        1.09836         85.9193         23.7225         91.5636 
        1.10449         85.3864         23.4174         91.1042 
        1.11063         84.7779         23.1174          90.288 
        1.11677         84.3053         22.8228         89.8041 
         1.1229            83.5         22.5338         89.5788 
        1.12903         82.6689         22.2496         88.8723 
        1.13518         82.8975         21.9701         88.3546 
        1.14131         82.1985         21.6956         87.7837 
        1.14745          81.318          21.426         87.3746 
        1.15359         80.9798         21.1609         86.7554 
        1.15973          80.533         20.9001         86.5531 
        1.16584         79.9405          20.645         85.7451 
        1.17197         79.4277         20.3938         85.4394 
        1.17811         78.9318          20.146         84.9024 
        1.18424         78.3496          19.903         84.5102 
        1.19038         77.9269         19.6634         83.9871 
        1.19652         77.5686         19.4278         83.4093 
        1.20267         76.8764         19.1961         83.0113 
        1.20881         76.4531         18.9683         82.5659 
        1.21495         75.8842         18.7445         81.9784 
        1.22108          75.463         18.5244         81.7548 
         1.2272         74.8361         18.3083          81.219 
        1.23334         74.5403         18.0952         80.8655 
        1.23949         74.1154          17.885         80.2058 
        1.24562         73.7181         17.6788         79.8641 
        1.25174         73.2825         17.4761         79.5148 
        1.25789         72.9132          17.276         79.0408 
        1.26402         72.5036         17.0794         78.6555 
        1.27014          71.765         16.8864         78.4845 
        1.27628         71.5788         16.6957         78.0233 
        1.28244         70.9154         16.5077         77.2924 
        1.28858         70.6181         16.3228         76.9279 
        1.29471         70.3499         16.1411         76.7296 
        1.30084         69.8347         15.9625         76.0998 
        1.30697         69.3798         15.7862         75.7867 
        1.31312         69.0069         15.6124         75.5307 
        1.31925         68.7243         15.4417         75.0555 
        1.32537         68.3702         15.2738         74.7016 
        1.33151         67.6892         15.1078         74.2942 
        1.33765         67.3987         14.9443         73.9469 
        1.34378         66.9965         14.7837         73.5699 
        1.34992         66.6904         14.6252         73.2452 
        1.35606         66.3115         14.4688         72.8429 
         1.3622         65.7144         14.3149          72.496 
        1.36833         65.5873         14.1636         72.0644 
        1.37445         65.1711         14.0147         71.7207 
        1.38059         64.6704         13.8674         71.5532 
        1.38675          64.341         13.7218         70.9786 
        1.39288         63.9541          13.579          70.805 
        1.39901         63.7654         13.4382         70.4418 
        1.40515         63.3959         13.2991         70.1921 
         1.4113         63.0125         13.1621         69.9115 
        1.41742         62.8115         13.0275         69.3736 
        1.42355         62.2583         12.8945         68.9922 
         1.4297         61.9605          12.763         68.7018 
        1.43585          61.558         12.6334         68.4509 
        1.44198         61.3034         12.5061         68.2225 
        1.44809         60.9859         12.3808         67.6836 
        1.45423         60.6749         12.2568         67.4292 
        1.46036         60.3728         12.1346         67.2017 
        1.46649         60.0084         12.0141         66.9661 
        1.47263         59.6158         11.8952         66.6653 
        1.47877         59.4415         11.7779         66.1698 
        1.48491         59.1594          11.662         65.9964 
        1.49104         58.7263          11.548          65.619 
        1.49718         58.2776         11.4353         65.3438 
        1.50333         58.0684          11.324         65.0015 
        1.50947         57.7557         11.2144         64.6889 
         1.5156         57.4751         11.1065         64.4667 
        1.52172         57.1945         10.9999         64.2242 
        1.52787         57.0405         10.8945         63.9308 
          1.534         56.6494         10.7907           63.65 
        1.54013         56.3126         10.6883         63.3168 
        1.54627          56.094         10.5871         63.0366 
        1.55241         55.6736         10.4871         62.7842 
        1.55855         55.3579         10.3886          62.412 
        1.56467          54.933         10.2916         62.1749 
         1.5708         54.9063         10.1956         61.9987 
        1.57695         54.6309         10.1007         61.7681 
        1.58308         54.2534         10.0072         61.4981 
        1.58922         54.1795         9.91484         61.1711 
        1.59535         53.9151         9.82367         60.8828 
         1.6015         53.3941         9.73353         60.5811 
        1.60764         53.2516         9.64456          60.391 
        1.61376         52.9152         9.55696         60.2661 
        1.61989         52.5679         9.47037          59.914 
        1.62604          52.456         9.38467         59.5525 
        1.63218         52.2793         9.30008         59.3038 
        1.63831         51.9381         9.21673         59.1389 
        1.64444         51.6447         9.13437         58.8854 
        1.65059         51.2475         9.05283         58.5292 
        1.65673         51.0762         8.97237         58.3289 
        1.66285         50.8177         8.89311         58.1675 
        1.66898         50.5725         8.81479         57.8972 
        1.67512          50.269         8.73726         57.7043 
        1.68127         49.9665         8.66059         57.3947 
         1.6874         49.8427         8.58501         57.0618 
        1.69353         49.4995         8.51038         56.9164 
        1.69967         49.2977         8.43646         56.7462 
        1.70581         49.1904         8.36346         56.5203 
        1.71193         48.8908         8.29159          56.274 
        1.71806         48.4452         8.22042         56.0267 
        1.72421         48.3442         8.14994         55.7613 
        1.73035         48.0563         8.08038         55.5964 
        1.73649         47.6897         8.01164         55.4595 
        1.74262         47.6439         7.94375         55.0959 
        1.74876         47.4442         7.87661         54.8222 
        1.75489         47.0993         7.81038         54.6593 
        1.76101           46.95         7.74494         54.4649 
        1.76715         46.6349         7.68016          54.198 
        1.77329         46.3855         7.61604         53.9908 
        1.77943         46.2302         7.55263         53.7906 
        1.78557         46.0405         7.49003         53.5126 
        1.79171         45.7324         7.42814         53.2895 
        1.79785          45.548         7.36693         53.1292 
        1.80399         45.3517         7.30642         52.9555 
        1.81012         45.1618         7.24668         52.7239 
        1.81625         44.7605         7.18763         52.4788 
        1.82239          44.645         7.12915         52.2973 
        1.82853           44.28         7.07135         52.1752 
        1.83466         44.2169         7.01425         51.9222 
        1.84078         43.8475         6.95783         51.6299 
        1.84692         43.6695         6.90195         51.5539 
        1.85306         43.4914         6.84661         51.3656 
         1.8592         43.2339         6.79197         51.0912 
        1.86533         43.0685         6.73795         50.9573 
        1.87147         42.8793         6.68446         50.7533 
        1.87761         42.7044         6.63153         50.4911 
