#  k  (h/Mpc)          P(k)  (Mpc/h)^3     P_linear(k)   P_NL(k) (Mpc/h)^3
     0.00783031         7865.51         7962.14         7955.54 
       0.013688         10700.9         10641.7         10589.3 
       0.019231         11491.6         11494.1         11405.1 
      0.0249154         11087.8         11289.1         11188.5 
      0.0312784         10269.8         10385.2         10272.5 
      0.0375637         9249.88         9289.22         9172.06 
      0.0433917         8197.11         8361.06          8233.2 
      0.0492413         7530.78         7618.46         7489.21 
      0.0555754         6811.68         7027.28            6898 
      0.0619321         6545.79         6586.68         6452.74 
       0.067871         6040.55         6230.35         6097.11 
      0.0738098         5670.79         5862.55         5694.17 
      0.0800417         5188.79         5430.44         5266.23 
      0.0862327         4783.73         4960.25         4833.93 
      0.0921407         4397.47         4505.81         4386.49 
      0.0982031         3959.96         4074.18         4000.24 
       0.104506         3688.13         3696.37         3661.25 
       0.110769         3400.81         3406.64          3356.1 
       0.116806         3176.88         3201.63         3152.64 
       0.122832          3041.1         3049.39         3012.09 
       0.129052         2855.01         2919.63         2884.34 
       0.135211         2732.56         2792.72         2757.06 
       0.141259         2629.48         2653.39         2635.04 
       0.147318         2494.04         2495.14         2495.36 
       0.153489         2302.69         2321.73         2302.54 
       0.159709         2174.68         2148.31         2159.94 
       0.165845         2079.29          1992.6         2051.69 
       0.171974         1946.48          1861.8          1928.3 
       0.178125         1848.49         1758.19         1859.39 
       0.184229         1778.19         1679.39         1776.72 
        0.19034         1674.26         1616.85         1715.33 
       0.196428         1653.01         1561.64         1644.97 
       0.202534         1604.66         1505.31          1595.5 
       0.208729          1535.9         1442.14         1522.13 
       0.214876         1464.16          1372.6         1480.55 
       0.220989         1422.61         1299.38          1423.8 
       0.227147         1347.58         1226.28         1361.69 
        0.23329         1294.13         1158.79         1318.18 
       0.239377         1269.94         1100.59         1268.72 
       0.245482         1189.64         1051.97         1212.65 
       0.251667         1181.09         1011.62         1185.97 
       0.257832         1140.23         977.719          1149.9 
       0.263955         1105.78         947.106         1116.95 
       0.270079         1072.09         916.634         1085.65 
        0.27624         1062.21         884.362         1051.57 
       0.282372         1017.04         850.148         1023.35 
        0.28843         1001.16         815.067         992.237 
       0.294538         954.042         779.925         966.411 
       0.300721          950.65         746.234         940.141 
        0.30691         908.892         715.699         921.293 
       0.313033         892.096         689.136         892.241 
       0.319153         870.846         666.048         870.674 
       0.325316         844.489         645.441         856.921 
        0.33145         823.986          626.53         827.743 
       0.337538          814.93         608.285         811.515 
       0.343633         791.726         589.867         801.976 
       0.349808         767.425         570.756          786.36 
       0.355968         762.867         551.391         771.694 
       0.362074         750.249         532.365         753.847 
       0.368217         730.089         513.912         732.272 
       0.374374         701.846         496.616         719.161 
       0.380519         697.724         480.765         703.769 
       0.386598          682.61         466.492         693.595 
       0.392688         679.822          453.39          678.03 
        0.39888         660.356         440.915         667.905 
       0.405048         649.746         429.003         660.771 
       0.411186         638.641         417.352         644.159 
       0.417313          627.49          405.75         630.872 
       0.423458         617.673         394.183          621.61 
       0.429607         605.634         382.752         608.939 
       0.435692         592.934         371.754         598.614 
       0.441815         589.802         361.181         594.418 
       0.447964         577.761         351.159         583.663 
       0.454126         563.118         341.726         569.994 
       0.460267          555.92         332.911         567.295 
       0.466387         549.958         324.598          556.43 
        0.47254         539.431         316.571         549.961 
       0.478662         538.184         308.808         540.405 
       0.484765         523.611         301.237         530.115 
       0.490885         518.438         293.769         523.559 
       0.497035          509.23         286.394         518.427 
       0.503198         501.623         279.195         510.714 
       0.509342         497.546         272.267         504.745 
       0.515458         493.219         265.647          501.41 
       0.521598         484.131         259.284         492.622 
       0.527764         474.235         253.182         485.905 
       0.533884         472.393         247.394          480.53 
           0.54         466.372         241.831         474.477 
       0.546137         464.639         236.418         469.181 
       0.552299         455.891         231.119         462.747 
       0.558452         452.707         225.955         458.169 
       0.564573           445.3         220.944         454.279 
       0.570708         439.012         216.051         450.075 
       0.576825         431.411         211.307         442.115 
       0.582926         429.432         206.717         437.333 
       0.589034         424.788         202.273         432.129 
       0.595184         420.939         197.959         426.669 
       0.601379         416.886         193.773         424.352 
       0.607522          410.13          189.76         419.567 
       0.613639         408.835         185.882         415.675 
       0.619772         398.391         182.098         413.195 
       0.625918         397.496           178.4         408.751 
       0.632068         392.132         174.793         402.973 
       0.638161         390.632         171.313         399.659 
         0.6443         383.353         167.902         396.507 
       0.650464         380.978         164.572         390.114 
       0.656582         379.962          161.36          386.88 
       0.662703         376.304         158.236         385.294 
       0.668861         369.908         155.181          381.45 
       0.675024         366.621         152.208          377.66 
       0.681124         365.196         149.347         372.982 
       0.687237         360.807         146.558         369.585 
       0.693381         355.982         143.829         366.518 
       0.699536          353.07         141.166         364.008 
       0.705665         351.078         138.582         361.391 
       0.711789         347.048         136.065         357.438 
       0.717957         344.479         133.591         355.042 
        0.72409         341.093         131.193          352.82 
       0.730186         337.553         128.867         349.855 
       0.736317         334.759         126.585         345.951 
       0.742472         333.393         124.351         342.884 
       0.748622         330.428         122.174         339.826 
        0.75476         327.374         120.055          338.69 
       0.760888         323.231         117.992         334.634 
       0.767043         322.848          115.97         332.706 
       0.773185         318.682         114.002         330.265 
       0.779291         313.802         112.091         327.153 
       0.785407         312.905         110.222         324.694 
       0.791564          309.95         108.384         322.567 
       0.797719         307.333          106.59         320.458 
       0.803834         305.312         104.848         317.908 
       0.809972         302.754         103.139         315.575 
       0.816124         303.208         101.465         312.726 
       0.822261         297.952         99.8325         310.635 
       0.828378         296.378         98.2416         307.937 
       0.834502         295.633         96.6844         306.588 
       0.840667         290.755         95.1514         304.469 
       0.846816           289.9         93.6563         302.133 
       0.852925         287.505         92.2033         299.734 
       0.859047         285.859         90.7785         297.777 
       0.865192         283.658         89.3795         295.979 
       0.871341         280.787         88.0095         293.676 
       0.877463         279.075         86.6749         292.156 
       0.883569         276.868         85.3717         290.305 
       0.889708         274.762          84.089         287.976 
       0.895864         271.475         82.8297         286.432 
       0.902008         271.169         81.5992         283.952 
       0.908149         269.471         80.3947         281.574 
       0.914301         266.317          79.213         280.592 
       0.920448         264.086         78.0564           277.9 
       0.926574          262.82         76.9273         275.971 
       0.932687         262.167         75.8232         273.773 
       0.938823         259.104         74.7371         273.311 
       0.944975         257.677           73.67         271.922 
       0.951105         256.178         72.6279         269.757 
       0.957225         253.409          71.608         267.769 
       0.963368         250.685         70.6044         265.385 
       0.969511         249.507         69.6203         264.027 
       0.975621         247.605         68.6604         263.724 
       0.981748         247.801         67.7164         261.375 
       0.987916         244.524         66.7844          260.19 
        0.99406         242.722         65.8736         258.677 
        1.00019         242.437         64.9819         256.368 
        1.00632         240.068         64.1076         254.374 
        1.01246          238.33         63.2483         252.739 
        1.01859         237.295         62.4064         251.904 
        1.02471         235.403          61.581         250.919 
        1.03085         232.841         60.7678         249.207 
        1.03698          231.69         59.9713         247.724 
        1.04314         230.351         59.1858         246.216 
        1.04929          228.31         58.4164         244.553 
        1.05541         227.471         57.6639         243.226 
        1.06154         225.722         56.9229         241.996 
        1.06769         225.189          56.194         240.718 
        1.07382         223.477         55.4804          239.09 
        1.07993         221.691         54.7809          237.78 
        1.08607          220.51         54.0908         236.794 
        1.09222         219.042          53.412         235.358 
        1.09836          216.97         52.7457         234.235 
        1.10449         215.114         52.0918         232.606 
        1.11063         213.811         51.4483         231.042 
        1.11677          213.25          50.816         229.924 
         1.1229         211.266         50.1956         228.867 
        1.12903         210.178         49.5851         227.637 
        1.13518         209.287         48.9844         226.275 
        1.14131         207.433         48.3941         224.918 
        1.14745         206.848          47.814         223.742 
        1.15359         204.955         47.2433         222.445 
        1.15973         204.555         46.6819         221.201 
        1.16584         202.196         46.1321         219.631 
        1.17197         201.639         45.5906         218.499 
        1.17811         200.211         45.0561         217.955 
        1.18424         198.896         44.5319         216.593 
        1.19038         198.266         44.0146         215.514 
        1.19652         196.823         43.5058         214.636 
        1.20267         195.602         43.0051         213.134 
        1.20881         194.207         42.5125         212.451 
        1.21495         193.008         42.0284         210.567 
        1.22108         192.298         41.5521         210.114 
         1.2272         190.622         41.0843         208.416 
        1.23334         189.469         40.6227         207.709 
        1.23949         187.648         40.1672         206.789 
        1.24562         187.138           39.72         205.416 
        1.25174          184.77         39.2804         204.629 
        1.25789         184.173         38.8461         203.528 
        1.26402         183.357         38.4193         202.166 
        1.27014         182.036         37.9999          201.95 
        1.27628         181.214         37.5856         201.155 
        1.28244         180.387         37.1767         199.328 
        1.28858          179.15         36.7746         198.315 
        1.29471         177.251         36.3793         197.556 
        1.30084         176.392         35.9902         196.461 
        1.30697         175.456         35.6063         195.481 
        1.31312         174.883         35.2275         194.153 
        1.31925         173.473         34.8555         193.281 
        1.32537         172.778         34.4893         192.562 
        1.33151         171.034          34.127         191.568 
        1.33765         170.521         33.7702         190.627 
        1.34378         169.239         33.4193         189.469 
        1.34992         168.566         33.0732         188.656 
        1.35606         167.454         32.7313         187.475 
         1.3622         166.487         32.3948         186.631 
        1.36833         165.331          32.064         185.698 
        1.37445         163.947          31.738         184.575 
        1.38059         163.729         31.4155         184.069 
        1.38675          162.33         31.0968         182.965 
        1.39288         161.732         30.7838         181.981 
        1.39901          161.04         30.4754         181.357 
        1.40515         159.942         30.1705          180.55 
         1.4113         158.061         29.8699         179.611 
        1.41742         157.794         29.5746         178.877 
        1.42355          156.52         29.2827          178.13 
         1.4297          155.58          28.994         177.072 
        1.43585          154.32         28.7093         176.171 
        1.44198         154.091         28.4295         175.378 
        1.44809         152.888         28.1541         174.417 
        1.45423         151.572         27.8813         173.509 
        1.46036         151.172         27.6126         172.745 
        1.46649         150.315         27.3475          172.18 
        1.47263         149.692         27.0856         171.551 
        1.47877          148.59         26.8273         170.449 
        1.48491         147.384          26.572         169.734 
        1.49104         146.657         26.3206         169.041 
        1.49718         145.341         26.0723         167.718 
        1.50333         144.715         25.8268         167.168 
        1.50947         143.846          25.585         166.508 
         1.5156         143.273         25.3466         165.672 
        1.52172         142.177         25.1114         165.119 
        1.52787         141.593         24.8787         164.074 
          1.534         140.833         24.6492         163.293 
        1.54013         139.494         24.4229         162.611 
        1.54627         139.015          24.199          161.91 
        1.55241         138.063         23.9779         161.224 
        1.55855         137.464         23.7599          160.24 
        1.56467         136.618         23.5453         159.452 
         1.5708         135.648         23.3327         159.031 
        1.57695         135.001         23.1224         158.299 
        1.58308         134.081         22.9153         157.327 
        1.58922         133.785         22.7105         156.632 
        1.59535         132.669         22.5084         155.964 
         1.6015         132.087         22.3084         155.233 
        1.60764          131.09          22.111         154.582 
        1.61376         130.491         21.9166         154.031 
        1.61989         129.812         21.7243         153.317 
        1.62604         128.878          21.534         152.456 
        1.63218          128.26          21.346         151.763 
        1.63831         127.359         21.1608         151.246 
        1.64444         126.665         20.9777         150.502 
        1.65059         126.002         20.7963         149.703 
        1.65673         124.989         20.6173         149.077 
        1.66285         124.829          20.441         148.498 
        1.66898         123.765         20.2666         147.827 
        1.67512         123.138          20.094         147.232 
        1.68127         122.269         19.9232         146.509 
         1.6874         121.282         19.7548         145.788 
        1.69353         120.782         19.5885         145.269 
        1.69967          120.27         19.4237          144.57 
        1.70581         119.529         19.2609         143.839 
        1.71193         118.912         19.1005         143.228 
        1.71806         117.939         18.9417         142.693 
        1.72421         117.621         18.7844          142.04 
        1.73035         116.625         18.6291         141.328 
        1.73649         115.987         18.4755         140.701 
        1.74262         115.484         18.3239         140.225 
        1.74876         114.789         18.1738          139.55 
        1.75489         113.865         18.0258         138.789 
        1.76101         113.571         17.8794          138.13 
        1.76715         112.472         17.7345         137.513 
        1.77329         112.159          17.591         137.015 
        1.77943         111.525         17.4491         136.504 
        1.78557         110.906          17.309         135.868 
        1.79171         110.197         17.1704         135.328 
        1.79785         109.576         17.0332         134.811 
        1.80399             109         16.8977         134.162 
        1.81012         108.435         16.7638         133.543 
        1.81625         107.643         16.6314          132.98 
        1.82239         107.367         16.5002         132.432 
        1.82853         106.837         16.3706         131.883 
        1.83466         105.889         16.2424         131.245 
        1.84078         105.639         16.1158         130.659 
        1.84692         104.701         15.9904         130.326 
        1.85306         103.984         15.8661         129.734 
         1.8592         103.334         15.7433         129.074 
        1.86533         102.916          15.622         128.643 
        1.87147         101.999         15.5017         127.802 
        1.87761         101.715         15.3827         127.109 
