#  k  (h/Mpc)          P(k)  (Mpc/h)^3     P_linear(k)   P_NL(k) (Mpc/h)^3
     0.00783031         17134.8         17392.3         17230.8 
       0.013688         19592.2         19392.2         19246.2 
       0.019231         17994.8         17907.2         17777.1 
      0.0249154         14825.1         15076.9         14986.8 
      0.0312784         11779.9         11829.3         11787.7 
      0.0375637         9401.15         9313.64          9300.6 
      0.0433917         7711.71         7751.03         7735.68 
      0.0492413         6821.17         6794.82         6784.29 
      0.0555754         6081.67         6189.09         6178.47 
      0.0619321         5824.38         5751.56         5737.54 
       0.067871         5239.93         5311.61         5302.76 
      0.0738098         4717.33         4769.36         4732.58 
      0.0800417         4063.75         4121.29         4115.87 
      0.0862327         3504.81          3489.8         3541.23 
      0.0921407         3075.45         2981.62         3050.82 
      0.0982031         2671.53         2599.03         2710.05 
       0.104506         2488.28         2347.52         2481.35 
       0.110769          2319.9          2206.8         2303.12 
       0.116806         2214.03         2122.46         2196.79 
       0.122832         2124.39         2040.06         2106.12 
       0.129052         1962.27         1923.24         1978.93 
       0.135211         1821.06         1767.86         1830.75 
       0.141259         1693.26         1591.96         1680.47 
       0.147318         1547.22         1418.14         1540.73 
       0.153489         1388.52         1266.88         1380.06 
       0.159709         1294.54         1153.19         1283.46 
       0.165845         1234.18         1078.74         1228.53 
       0.171974         1173.83         1032.01         1165.67 
       0.178125         1125.41         998.531         1135.65 
       0.184229         1079.59         964.898         1085.77 
        0.19034         1011.09         921.802         1032.69 
       0.196428         979.446         867.342         972.476 
       0.202534         933.575         805.129         920.285 
       0.208729          872.88         741.619         856.724 
       0.214876         823.275          685.25         823.337 
       0.220989         786.323         639.921         786.427 
       0.227147         751.099         605.697         753.815 
        0.23329         719.986         580.647          731.85 
       0.239377          703.79         560.901         703.178 
       0.245482         656.486         542.133          672.12 
       0.251667         649.911         521.178         653.946 
       0.257832         622.041         497.271         624.299 
       0.263955         597.713         471.277         597.826 
       0.270079          570.94         444.852         574.614 
        0.27624         560.475         419.944          549.97 
       0.282372          537.62         398.241         532.999 
        0.28843         523.596         380.354         517.014 
       0.294538         495.923         365.476         500.866 
       0.300721         491.561         352.614         486.474 
        0.30691         469.322          340.73         476.143 
       0.313033         458.785         328.949         458.455 
       0.319153         443.973         316.652         444.176 
       0.325316         430.961         303.745         431.722 
        0.33145         416.515         290.801         414.421 
       0.337538         408.219         278.408          402.76 
       0.343633         395.149         266.917         396.433 
       0.349808         379.957         256.494         387.252 
       0.355968         375.607         247.261         378.419 
       0.362074          369.17         239.059          368.77 
       0.368217         358.022         231.402         356.862 
       0.374374         341.718          224.01         347.989 
       0.380519          339.41         216.708         338.498 
       0.386598         329.677         209.469         334.199 
       0.392688         326.035         202.285         323.254 
        0.39888         316.782          195.17         316.472 
       0.405048         308.914         188.412         310.525 
       0.411186         303.387         182.134         301.771 
       0.417313         296.981         176.319          295.02 
       0.423458         289.756         170.897         289.764 
       0.429607         285.099         165.812         283.955 
       0.435692         277.027         161.009         276.137 
       0.441815         273.807         156.316         272.919 
       0.447964         267.224         151.715         267.766 
       0.454126         260.221         147.209         259.798 
       0.460267         255.157         142.833         257.672 
       0.466387         251.726         138.627         252.579 
        0.47254          246.27         134.592         247.669 
       0.478662         245.343         130.778         242.527 
       0.484765         236.017         127.164         237.366 
       0.490885         233.133         123.716         233.458 
       0.497035         228.635         120.404         229.993 
       0.503198         224.594         117.208         226.306 
       0.509342           222.6         114.118         222.684 
       0.515458         219.075         111.128          219.67 
       0.521598         213.352         108.217         215.346 
       0.527764          210.78          105.39         212.902 
       0.533884         207.967         102.683          209.67 
           0.54         204.637         100.078         205.472 
       0.546137         203.023         97.5639         202.938 
       0.552299         198.693         95.1398         199.253 
       0.558452         197.246         92.8137         196.316 
       0.564573         194.203         90.5812          194.49 
       0.570708         189.719         88.4153         192.064 
       0.576825         186.663         86.3205         187.873 
       0.582926         184.124         84.2927         185.773 
       0.589034         182.037         82.3245         183.621 
       0.595184         180.109          80.406         179.905 
       0.601379         176.971         78.5374         177.921 
       0.607522         174.426         76.7458           175.1 
       0.613639         172.615         75.0195         174.237 
       0.619772           169.2         73.3436          172.35 
       0.625918         168.007         71.7168         169.012 
       0.632068         165.019         70.1391         166.636 
       0.638161         163.928         68.6233         165.696 
         0.6443         161.316         67.1418         163.474 
       0.650464         159.546         65.6986         160.013 
       0.656582         157.141         64.3081         158.782 
       0.662703         156.665         62.9572         157.001 
       0.668861         153.924         61.6373         155.576 
       0.675024         151.405         60.3542         153.759 
       0.681124         150.253         59.1207         151.348 
       0.687237         148.327         57.9195          149.68 
       0.693381         145.824         56.7465         147.748 
       0.699536         144.598         55.6044         146.382 
       0.705665         143.208          54.499         144.713 
       0.711789         141.448         53.4251         143.595 
       0.717957         140.958         52.3731         142.169 
        0.72409          138.88         51.3555         140.688 
       0.730186         136.874         50.3712         139.134 
       0.736317         135.363         49.4076         137.455 
       0.742472         134.187         48.4657         135.947 
       0.748622         132.977         47.5494         134.516 
        0.75476         131.506         46.6588         133.726 
       0.760888         130.032         45.7925         131.579 
       0.767043          129.42         44.9449          130.68 
       0.773185         128.187         44.1206         129.639 
       0.779291         125.642         43.3218         127.964 
       0.785407         125.154         42.5417         126.624 
       0.791564         124.074          41.776         125.554 
       0.797719          121.61         41.0297         124.743 
       0.803834         121.019         40.3064         123.516 
       0.809972         120.233          39.598         122.331 
       0.816124         119.277         38.9053          121.27 
       0.822261          118.26          38.231         120.268 
       0.828378         117.084         37.5749         118.855 
       0.834502         116.531         36.9336         117.656 
       0.840667          114.65         36.3033         116.768 
       0.846816         113.519         35.6895         115.945 
       0.852925         112.775         35.0938          115.01 
       0.859047         111.754         34.5105         114.043 
       0.865192         110.334         33.9386         112.732 
       0.871341          109.47         33.3794         111.784 
       0.877463          108.32         32.8354         111.126 
       0.883569         108.148         32.3049         110.536 
       0.889708         106.843         31.7835         109.221 
       0.895864         105.647         31.2722         108.532 
       0.902008           104.9         30.7734         107.439 
       0.908149          104.45         30.2857         106.594 
       0.914301         103.053         29.8079         105.662 
       0.920448         102.364         29.3409         104.918 
       0.926574         101.437         28.8856         104.004 
       0.932687         101.341         28.4409         103.425 
       0.938823         99.7286          28.004         102.485 
       0.944975          98.976         27.5754         101.706 
       0.951105         98.2233         27.1573          100.86 
       0.957225         97.5787         26.7486         100.111 
       0.963368         96.0116          26.347         99.3311 
       0.969511          95.875         25.9536         98.4583 
       0.975621         95.0379         25.5704         98.2014 
       0.981748         94.7509         25.1941         97.4738 
       0.987916         93.6695         24.8229         96.6741 
        0.99406         92.8529         24.4607         95.8306 
        1.00019         92.6114         24.1064         95.0634 
        1.00632         91.4302         23.7595         94.3438 
        1.01246         91.0291          23.419         93.4393 
        1.01859         90.3664         23.0856         93.1502 
        1.02471         89.2481         22.7593         92.6769 
        1.03085         88.5213         22.4381         92.0205 
        1.03698         88.2106         22.1238         91.5025 
        1.04314         87.2229         21.8143         90.6586 
        1.04929         86.9676         21.5114         90.1543 
        1.05541         86.0523         21.2154         89.6713 
        1.06154         85.6803         20.9243           89.01 
        1.06769         85.2728         20.6383         88.4685 
        1.07382           84.39         20.3585         87.9229 
        1.07993         83.9072         20.0846         87.3079 
        1.08607         83.1329         19.8146         86.6907 
        1.09222          82.982         19.5493         86.2279 
        1.09836         82.1717         19.2892         85.5593 
        1.10449         81.4009         19.0341         85.2165 
        1.11063         80.8809         18.7834         84.4385 
        1.11677         80.2767         18.5373         83.8665 
         1.1229         79.7661          18.296         83.4698 
        1.12903         79.3234         18.0588         82.8487 
        1.13518         78.9574         17.8257         82.3868 
        1.14131         78.2235         17.5968         81.6915 
        1.14745         77.8674         17.3721         81.3236 
        1.15359         77.2469         17.1512         80.9156 
        1.15973         76.8646         16.9341         80.4874 
        1.16584         76.1206         16.7218         79.7524 
        1.17197         75.5972         16.5128         79.5293 
        1.17811         75.2235         16.3067         78.9232 
        1.18424         74.7776         16.1048         78.3725 
        1.19038         74.5502         15.9057         78.1191 
        1.19652         73.9111           15.71         77.6031 
        1.20267          73.141         15.5177         77.1737 
        1.20881         72.9186         15.3286         76.5717 
        1.21495         72.1619          15.143         76.2645 
        1.22108          71.999         14.9605         75.8372 
         1.2272         71.2348         14.7814         75.3126 
        1.23334         70.8248         14.6049         75.1048 
        1.23949         70.5418         14.4308         74.5434 
        1.24562          69.952         14.2601         73.8965 
        1.25174         69.6815         14.0923         73.5494 
        1.25789         69.2599         13.9268         73.1352 
        1.26402         68.4074         13.7642         72.9001 
        1.27014         68.2788         13.6047         72.5582 
        1.27628         67.9063         13.4471         72.2301 
        1.28244         67.4804         13.2918         71.6431 
        1.28858         67.2014         13.1391         71.2238 
        1.29471         66.6709         12.9892          70.895 
        1.30084         66.4158         12.8418         70.3406 
        1.30697          65.776         12.6964         70.0669 
        1.31312         65.4022         12.5531         69.7513 
        1.31925         65.0121         12.4124         69.3881 
        1.32537         64.5994          12.274         69.1019 
        1.33151         64.0997         12.1373          68.679 
        1.33765         63.8564         12.0027         68.3263 
        1.34378         63.5262         11.8704         67.9763 
        1.34992         63.1774         11.7401         67.5287 
        1.35606         62.7219         11.6114         67.1909 
         1.3622         62.2294         11.4849         66.9076 
        1.36833         62.0553         11.3605         66.4605 
        1.37445         61.6425         11.2381         66.2583 
        1.38059         61.0657         11.1171         65.7122 
        1.38675         60.7295         10.9976         65.4322 
        1.39288         60.6197         10.8803         64.9903 
        1.39901         60.1503         10.7648         64.7895 
        1.40515         59.6966         10.6507         64.6198 
         1.4113          59.459         10.5384         64.3422 
        1.41742         59.1742          10.428         63.9394 
        1.42355         58.8315         10.3191         63.5338 
         1.4297         58.6011         10.2113         63.3017 
        1.43585         58.1481         10.1052         62.8335 
        1.44198         57.7008         10.0009         62.6754 
        1.44809         57.5452         9.89836         62.3443 
        1.45423         57.2638         9.79685         61.9398 
        1.46036         56.8179         9.69695         61.6541 
        1.46649         56.4407         9.59841          61.454 
        1.47263         56.0894         9.50117         61.1923 
        1.47877         55.8359         9.40531         60.7519 
        1.48491         55.5159         9.31063         60.4985 
        1.49104         55.3072         9.21745         60.3198 
        1.49718         54.9327         9.12548         59.8907 
        1.50333         54.7784         9.03461         59.6033 
        1.50947         54.3058         8.94517         59.3768 
         1.5156         54.1604         8.85708         59.0842 
        1.52172         53.7418         8.77017          58.778 
        1.52787         53.5001         8.68425         58.5147 
          1.534         53.1119         8.59958         58.3006 
        1.54013         52.7853         8.51613          58.033 
        1.54627         52.6379         8.43363         57.7215 
        1.55241         52.2051         8.35222         57.4339 
        1.55855         51.9777         8.27199          57.182 
        1.56467         51.7667         8.19304         56.9453 
         1.5708         51.4635          8.1149         56.6679 
        1.57695         51.3772         8.03766         56.4227 
        1.58308         50.9483          7.9616         56.1846 
        1.58922         50.5845         7.88648         55.8993 
        1.59535         50.4758         7.81235         55.6884 
         1.6015          50.015         7.73908         55.3859 
        1.60764         49.8527         7.66677         55.0983 
        1.61376         49.5898          7.5956         54.9665 
        1.61989         49.3087         7.52527         54.7199 
        1.62604          49.048         7.45567         54.3378 
        1.63218         48.9091           7.387         54.0756 
        1.63831         48.3608         7.31935         53.9547 
        1.64444         48.1575         7.25252         53.6951 
        1.65059         48.0792         7.18637         53.4284 
        1.65673         47.6817         7.12111          53.155 
        1.66285         47.4346         7.05685         52.9485 
        1.66898         47.3349         6.99336            52.8 
        1.67512         46.8789         6.93053         52.5172 
        1.68127         46.7601         6.86841         52.2661 
         1.6874         46.4733         6.80719         52.0656 
        1.69353         46.2192         6.74675         51.8238 
        1.69967         46.0111          6.6869          51.597 
        1.70581          45.805         6.62781         51.3912 
        1.71193          45.584         6.56965         51.1918 
        1.71806         45.2522         6.51207          50.981 
        1.72421          45.109         6.45506          50.748 
        1.73035         44.8708          6.3988         50.5037 
        1.73649         44.6043         6.34322         50.2755 
        1.74262          44.343         6.28835         50.0883 
        1.74876          44.144         6.23409         49.8813 
        1.75489         43.9493         6.18059         49.6467 
        1.76101         43.7705         6.12772         49.4089 
        1.76715          43.423         6.07541         49.1895 
        1.77329         43.1783         6.02364         49.0025 
        1.77943         43.0003         5.97245         48.8209 
        1.78557         42.7784         5.92193         48.6215 
        1.79171         42.5977         5.87199         48.4256 
        1.79785         42.2685         5.82261         48.2123 
        1.80399         42.2082         5.77381          47.973 
        1.81012         41.8995         5.72564         47.7931 
        1.81625         41.7013         5.67803         47.6127 
        1.82239         41.4515          5.6309         47.4102 
        1.82853         41.2718         5.58432         47.2471 
        1.83466          41.045         5.53831         47.0374 
        1.84078          40.763         5.49287         46.8143 
        1.84692         40.6337         5.44787          46.687 
        1.85306         40.4018         5.40331         46.4865 
         1.8592         40.2429         5.35932         46.2364 
        1.86533         39.9887         5.31584         46.0595 
        1.87147         39.6865          5.2728         45.8517 
        1.87761         39.6216         5.23021         45.6609 
