# k  (h/Mpc)    Pcb(k)  (Mpc/h)^3    Pcb_linear(k) (Mpc/h)^3    Pcb_NL(k) (Mpc/h)^3   ShotnoiseSubtracted = false
     0.00783031         23719.9           24100           24100 
       0.013688         28403.8         28049.1         28049.1 
       0.019231           27141         27045.8         27045.8 
      0.0249154           23303         23873.8         23873.8 
      0.0312784         19545.8         19775.5         19775.5 
      0.0375637         16390.5         16335.1         16335.1 
      0.0433917         13798.2         14029.6         14029.6 
      0.0492413         12426.5         12484.1         12484.1 
      0.0555754         11009.7         11376.5         11376.5 
      0.0619321         10552.6           10503           10503 
       0.067871         9398.78         9664.58         9664.58 
      0.0738098         8509.33         8715.33         8715.33 
      0.0800417         7417.75         7644.01         7644.01 
      0.0862327         6572.63          6624.5          6624.5 
      0.0921407         5938.49         5800.76         5800.76 
      0.0982031         5272.69         5161.67         5161.67 
       0.104506         4984.29         4710.57         4710.57 
       0.110769         4642.99         4419.01         4419.01 
       0.116806         4411.74         4209.54         4209.54 
       0.122832         4186.93         4002.32         4002.32 
       0.129052         3841.33         3747.19         3747.19 
       0.135211         3582.86         3447.33         3447.33 
       0.141259          3388.2         3131.79         3131.79 
       0.147318         3158.67         2831.05         2831.05 
       0.153489         2876.91         2571.52         2571.52 
       0.159709         2720.24         2372.26         2372.26 
       0.165845         2631.34         2232.83         2232.83 
       0.171974          2507.7         2133.09         2133.09 
       0.178125         2389.78         2050.17         2050.17 
       0.184229         2273.24         1965.17         1965.17 
        0.19034         2157.24         1866.21         1866.21 
       0.196428         2092.14         1753.24         1753.24 
       0.202534         1995.89          1633.3          1633.3 
       0.208729          1896.3         1516.28         1516.28 
       0.214876         1825.23         1414.52         1414.52 
       0.220989         1756.38         1332.18         1332.18 
       0.227147         1691.59         1267.51         1267.51 
        0.23329         1625.75         1216.36         1216.36 
       0.239377         1600.33         1172.16         1172.16 
       0.245482         1503.55         1128.22         1128.22 
       0.251667         1492.33         1080.39         1080.39 
       0.257832          1428.6         1028.78         1028.78 
       0.263955         1377.27         975.636         975.636 
       0.270079         1328.78          923.91          923.91 
        0.27624         1309.05         876.319         876.319 
       0.282372         1256.07         835.147         835.147 
        0.28843         1250.42         800.626         800.626 
       0.294538         1187.98         770.749         770.749 
       0.300721         1177.32         743.595         743.595 
        0.30691         1135.24         717.479         717.479 
       0.313033         1110.05           691.4           691.4 
       0.319153         1092.82         664.612         664.612 
       0.325316         1057.15         637.369         637.369 
        0.33145         1033.43         610.827         610.827 
       0.337538          1009.7         585.985         585.985 
       0.343633         991.208          563.23          563.23 
       0.349808         956.698          542.49          542.49 
       0.355968         948.321          523.86          523.86 
       0.362074         939.915         506.831         506.831 
       0.368217         908.094         490.574         490.574 
       0.374374         876.181         474.636         474.636 
       0.380519         877.613         458.863         458.863 
       0.386598          849.24         443.436         443.436 
       0.392688          844.98         428.314         428.314 
        0.39888         820.305         413.579         413.579 
       0.405048         811.781         399.757         399.757 
       0.411186         799.823          386.91          386.91 
       0.417313         783.116         374.977         374.977 
       0.423458         766.459         363.751         363.751 
       0.429607         759.625         353.048         353.048 
       0.435692          742.03         342.833         342.833 
       0.441815         733.503         332.834         332.834 
       0.447964         719.866         323.012         323.012 
       0.454126         714.621         313.434         313.434 
       0.460267         695.383         304.228         304.228 
       0.466387         685.977         295.444         295.444 
        0.47254         685.328         287.022         287.022 
       0.478662         674.081         279.062         279.062 
       0.484765          654.41         271.516         271.516 
       0.490885         649.687         264.276         264.276 
       0.497035         636.248         257.261         257.261 
       0.503198         631.674         250.455         250.455 
       0.509342         625.672         243.879         243.879 
       0.515458         621.422         237.533         237.533 
       0.521598         604.665         231.359         231.359 
       0.527764         596.475         225.369         225.369 
       0.533884         591.644         219.646         219.646 
           0.54         586.395         214.156         214.156 
       0.546137          579.27         208.864         208.864 
       0.552299         572.696         203.748         203.748 
       0.558452         566.652         198.814         198.814 
       0.564573           560.8         194.062         194.062 
       0.570708         553.234         189.446         189.446 
       0.576825         540.847         184.988         184.988 
       0.582926         541.407          180.68          180.68 
       0.589034         534.532           176.5           176.5 
       0.595184         530.106         172.425         172.425 
       0.601379         521.582         168.453         168.453 
       0.607522         514.776          164.64          164.64 
       0.613639         512.177         160.968         160.968 
       0.619772         504.794         157.404         157.404 
       0.625918         500.898         153.945         153.945 
       0.632068         493.484          150.59          150.59 
       0.638161         490.164         147.364         147.364 
         0.6443         483.911         144.207         144.207 
       0.650464         481.252         141.128         141.128 
       0.656582         474.689          138.16          138.16 
       0.662703         473.857         135.275         135.275 
       0.668861         466.999         132.457         132.457 
       0.675024         462.444         129.718         129.718 
       0.681124         458.366         127.086         127.086 
       0.687237         455.405         124.523         124.523 
       0.693381         448.215         122.021         122.021 
       0.699536         441.362         119.584         119.584 
       0.705665         440.416         117.225         117.225 
       0.711789          438.17         114.932         114.932 
       0.717957         433.965         112.684         112.684 
        0.72409         431.866         110.508         110.508 
       0.730186         425.506         108.403         108.403 
       0.736317         422.919         106.341         106.341 
       0.742472         418.847         104.325         104.325 
       0.748622         414.967         102.363         102.363 
        0.75476         408.846         100.456         100.456 
       0.760888         405.229         98.6012         98.6012 
       0.767043         404.905         96.7857         96.7857 
       0.773185         401.213           95.02           95.02 
       0.779291         396.645         93.3086         93.3086 
       0.785407         393.911          91.637          91.637 
       0.791564         390.025         89.9962         89.9962 
       0.797719         388.178         88.3964         88.3964 
       0.803834         382.211         86.8459         86.8459 
       0.809972         381.924         85.3271         85.3271 
       0.816124         380.137         83.8414         83.8414 
       0.822261         375.487         82.3952         82.3952 
       0.828378         373.167         80.9876         80.9876 
       0.834502         368.296         79.6117         79.6117 
       0.840667         365.861          78.259          78.259 
       0.846816         364.175         76.9417         76.9417 
       0.852925         361.932         75.6631         75.6631 
       0.859047         359.207         74.4109         74.4109 
       0.865192         354.612         73.1831         73.1831 
       0.871341         351.783         71.9823         71.9823 
       0.877463         351.661         70.8139         70.8139 
       0.883569         347.707         69.6745         69.6745 
       0.889708         345.587         68.5544         68.5544 
       0.895864         345.253         67.4561         67.4561 
       0.902008         341.466         66.3843         66.3843 
       0.908149         336.395         65.3365         65.3365 
       0.914301         335.036         64.3096         64.3096 
       0.920448         333.081         63.3058         63.3058 
       0.926574         328.857         62.3271         62.3271 
       0.932687         327.612         61.3711         61.3711 
       0.938823         324.239         60.4318         60.4318 
       0.944975         324.279           59.51           59.51 
       0.951105         320.964         58.6107         58.6107 
       0.957225         318.833         57.7317         57.7317 
       0.963368          314.61         56.8676         56.8676 
       0.969511         313.729         56.0213         56.0213 
       0.975621          312.14         55.1968         55.1968 
       0.981748         309.325         54.3867         54.3867 
       0.987916         307.822         53.5879         53.5879 
        0.99406         304.422         52.8081         52.8081 
        1.00019         302.129         52.0454         52.0454 
        1.00632         301.011         51.2985         51.2985 
        1.01246         298.328         50.5651         50.5651 
        1.01859         297.509         49.8473         49.8473 
        1.02471         293.854         49.1443         49.1443 
        1.03085         292.632         48.4524         48.4524 
        1.03698         290.455         47.7753         47.7753 
        1.04314         288.914         47.1082         47.1082 
        1.04929         286.437         46.4555         46.4555 
        1.05541         285.833         45.8178         45.8178 
        1.06154         281.634         45.1904         45.1904 
        1.06769         281.077         44.5739         44.5739 
        1.07382         278.455          43.971          43.971 
        1.07993         277.219         43.3805         43.3805 
        1.08607         276.143         42.7985         42.7985 
        1.09222         272.857         42.2266         42.2266 
        1.09836         270.604         41.6658         41.6658 
        1.10449         269.159         41.1159         41.1159 
        1.11063         266.161         40.5753         40.5753 
        1.11677          266.25         40.0447         40.0447 
         1.1229         263.412         39.5244         39.5244 
        1.12903         262.232          39.013          39.013 
        1.13518         260.058         38.5102         38.5102 
        1.14131         258.468         38.0165         38.0165 
        1.14745          257.22         37.5317         37.5317 
        1.15359         255.384         37.0554         37.0554 
        1.15973         253.736         36.5871         36.5871 
        1.16584         251.639          36.129          36.129 
        1.17197         251.222         35.6781         35.6781 
        1.17811          248.55         35.2335         35.2335 
        1.18424         246.712         34.7978         34.7978 
        1.19038         245.598         34.3682         34.3682 
        1.19652         243.523         33.9461         33.9461 
        1.20267         243.472          33.531          33.531 
        1.20881         240.589         33.1229         33.1229 
        1.21495         239.412         32.7223         32.7223 
        1.22108         237.492         32.3283         32.3283 
         1.2272         236.077         31.9418         31.9418 
        1.23334         235.668         31.5606         31.5606 
        1.23949          232.43         31.1848         31.1848 
        1.24562         231.406         30.8161         30.8161 
        1.25174         230.628         30.4539         30.4539 
        1.25789         228.752         30.0965         30.0965 
        1.26402         226.918         29.7454         29.7454 
        1.27014         225.681         29.4007         29.4007 
        1.27628         223.467         29.0605         29.0605 
        1.28244         223.525          28.725          28.725 
        1.28858         221.443         28.3953         28.3953 
        1.29471         220.764         28.0714         28.0714 
        1.30084         218.291         27.7529         27.7529 
        1.30697         217.552         27.4389         27.4389 
        1.31312         215.453         27.1293         27.1293 
        1.31925         214.027         26.8254         26.8254 
        1.32537         213.624         26.5265         26.5265 
        1.33151         211.597          26.231          26.231 
        1.33765         209.712         25.9403         25.9403 
        1.34378         209.257         25.6545         25.6545 
        1.34992          208.22         25.3728         25.3728 
        1.35606         206.971         25.0947         25.0947 
         1.3622         204.481         24.8213         24.8213 
        1.36833         204.001         24.5527         24.5527 
        1.37445         202.296         24.2881         24.2881 
        1.38059         201.174         24.0266         24.0266 
        1.38675          200.23         23.7683         23.7683 
        1.39288         198.991         23.5149         23.5149 
        1.39901         197.151         23.2652         23.2652 
        1.40515          196.64         23.0187         23.0187 
         1.4113         195.077         22.7758         22.7758 
        1.41742         193.775         22.5373         22.5373 
        1.42355         192.551         22.3018         22.3018 
         1.4297         191.248         22.0689         22.0689 
        1.43585             190         21.8395         21.8395 
        1.44198          189.94         21.6142         21.6142 
        1.44809         187.902         21.3924         21.3924 
        1.45423         186.953          21.173          21.173 
        1.46036         185.487          20.957          20.957 
        1.46649         184.777          20.744          20.744 
        1.47263         183.697         20.5338         20.5338 
        1.47877         182.391         20.3265         20.3265 
        1.48491         180.604         20.1218         20.1218 
        1.49104          180.13         19.9203         19.9203 
        1.49718         178.222         19.7214         19.7214 
        1.50333         177.751         19.5249         19.5249 
        1.50947         176.274         19.3315         19.3315 
         1.5156         175.316          19.141          19.141 
        1.52172         174.559         18.9531         18.9531 
        1.52787         172.888         18.7672         18.7672 
          1.534         172.469         18.5841         18.5841 
        1.54013         170.948         18.4037         18.4037 
        1.54627         170.122         18.2253         18.2253 
        1.55241         168.945         18.0492         18.0492 
        1.55855         167.481         17.8757         17.8757 
        1.56467         166.972         17.7049         17.7049 
         1.5708         165.617         17.5359         17.5359 
        1.57695         165.131         17.3689         17.3689 
        1.58308         163.725         17.2044         17.2044 
        1.58922         162.723         17.0419         17.0419 
        1.59535         161.682         16.8816         16.8816 
         1.6015         160.385         16.7231         16.7231 
        1.60764         160.071         16.5667         16.5667 
        1.61376         158.852         16.4127         16.4127 
        1.61989         157.925         16.2606         16.2606 
        1.62604          156.85           16.11           16.11 
        1.63218         156.174         15.9615         15.9615 
        1.63831         154.624         15.8151         15.8151 
        1.64444         154.026         15.6706         15.6706 
        1.65059           153.1         15.5275         15.5275 
        1.65673         152.407         15.3863         15.3863 
        1.66285         151.083         15.2473         15.2473 
        1.66898         150.463         15.1099         15.1099 
        1.67512         149.247          14.974          14.974 
        1.68127         148.348         14.8396         14.8396 
         1.6874         147.951         14.7071         14.7071 
        1.69353         146.622         14.5764         14.5764 
        1.69967         145.641         14.4469         14.4469 
        1.70581         144.754         14.3191         14.3191 
        1.71193         143.554         14.1932         14.1932 
        1.71806          143.19         14.0687         14.0687 
        1.72421         142.205         13.9453         13.9453 
        1.73035         141.645         13.8236         13.8236 
        1.73649         140.567         13.7034         13.7034 
        1.74262         139.873         13.5846         13.5846 
        1.74876         138.436         13.4672         13.4672 
        1.75489          137.99         13.3515         13.3515 
        1.76101         136.944         13.2371         13.2371 
        1.76715         136.407         13.1239         13.1239 
        1.77329         135.254         13.0119         13.0119 
        1.77943         134.775         12.9011         12.9011 
        1.78557         134.012         12.7918         12.7918 
        1.79171         133.014         12.6837         12.6837 
        1.79785         132.193         12.5769         12.5769 
        1.80399         131.392         12.4713         12.4713 
        1.81012          130.91          12.367          12.367 
        1.81625         130.016          12.264          12.264 
        1.82239          129.13          12.162          12.162 
        1.82853         128.224         12.0612         12.0612 
        1.83466         127.802         11.9617         11.9617 
        1.84078         126.778         11.8633         11.8633 
        1.84692         125.813         11.7659         11.7659 
        1.85306         125.767         11.6695         11.6695 
         1.8592         124.668         11.5743         11.5743 
        1.86533         124.246         11.4803         11.4803 
        1.87147         123.178         11.3871         11.3871 
