# k  (h/Mpc)    P(k)  (Mpc/h)^3    P_linear(k)  (Mpc/h)^3     P_NL(k)  ShotnoiseSubtracted = false
     0.00783031         1404.03          1418.8          1418.8 
       0.013688         1651.59         1652.72         1652.72 
       0.019231         1595.31         1594.17         1594.17 
      0.0249154         1400.31         1407.48         1407.48 
      0.0312784         1166.45         1166.01         1166.01 
      0.0375637         967.068         963.232         963.232 
      0.0433917         827.072         827.326         827.326 
      0.0492413         737.451         736.212         736.212 
      0.0555754         668.133         670.915         670.915 
      0.0619321         622.298         619.416         619.416 
       0.067871         568.207         569.977         569.977 
      0.0738098         512.195             514             514 
      0.0800417         448.439         450.822         450.822 
      0.0862327         390.351         390.698         390.698 
      0.0921407         343.159         342.117         342.117 
      0.0982031         304.398         304.427         304.427 
       0.104506         280.185         277.823         277.823 
       0.110769         262.204         260.629         260.629 
       0.116806         248.318         248.275         248.275 
       0.122832         237.011         236.054         236.054 
       0.129052         220.637         221.007         221.007 
       0.135211         203.115         203.322         203.322 
       0.141259         185.783         184.712         184.712 
       0.147318         168.886         166.975         166.975 
       0.153489         153.081         151.668         151.668 
       0.159709         141.568         139.916         139.916 
       0.165845         134.241         131.693         131.693 
       0.171974         127.094          125.81          125.81 
       0.178125          122.33         120.919         120.919 
       0.184229         117.501         115.906         115.906 
        0.19034         110.447          110.07          110.07 
       0.196428         104.727         103.407         103.407 
       0.202534         98.6307         96.3326         96.3326 
       0.208729         91.3026         89.4309         89.4309 
       0.214876         84.9027          83.429          83.429 
       0.220989          80.819         78.5727         78.5727 
       0.227147         76.2634         74.7585         74.7585 
        0.23329         73.2065         71.7416         71.7416 
       0.239377         70.7546         69.1347         69.1347 
       0.245482         67.5228         66.5428         66.5428 
       0.251667         65.3078          63.722          63.722 
       0.257832         62.2483         60.6782         60.6782 
       0.263955          59.141         57.5437         57.5437 
       0.270079         56.2062         54.4929         54.4929 
        0.27624         53.8544         51.6859         51.6859 
       0.282372         51.4306         49.2576         49.2576 
        0.28843         49.1176         47.2215         47.2215 
       0.294538         47.2228         45.4593         45.4593 
       0.300721         45.9325         43.8578         43.8578 
        0.30691         44.0225         42.3175         42.3175 
       0.313033         42.4649         40.7793         40.7793 
       0.319153          40.397         39.1993         39.1993 
       0.325316         39.4566         37.5926         37.5926 
        0.33145         37.7163         36.0271         36.0271 
       0.337538         36.3755         34.5619         34.5619 
       0.343633          34.892         33.2199         33.2199 
       0.349808         33.7584         31.9965         31.9965 
       0.355968          32.704         30.8977         30.8977 
       0.362074         31.6047         29.8934         29.8934 
       0.368217          30.589         28.9345         28.9345 
       0.374374         29.5504         27.9945         27.9945 
       0.380519         28.7211         27.0642         27.0642 
       0.386598         27.8296         26.1542         26.1542 
       0.392688         27.0731         25.2624         25.2624 
        0.39888         26.1192         24.3932         24.3932 
       0.405048         25.3598         23.5781         23.5781 
       0.411186         24.6237         22.8203         22.8203 
       0.417313         23.7825         22.1166         22.1166 
       0.423458         23.1204         21.4544         21.4544 
       0.429607         22.4228         20.8231         20.8231 
       0.435692         21.7514         20.2206         20.2206 
       0.441815         21.2255         19.6309         19.6309 
       0.447964         20.7651         19.0516         19.0516 
       0.454126         19.9544         18.4866         18.4866 
       0.460267         19.4961         17.9436         17.9436 
       0.466387         18.8518         17.4256         17.4256 
        0.47254         18.4614         16.9289         16.9289 
       0.478662         18.0582         16.4593         16.4593 
       0.484765         17.4889         16.0143         16.0143 
       0.490885         17.0589         15.5873         15.5873 
       0.497035         16.7686         15.1735         15.1735 
       0.503198         16.2904         14.7721         14.7721 
       0.509342         15.8711         14.3843         14.3843 
       0.515458         15.4442           14.01           14.01 
       0.521598         15.1144         13.6458         13.6458 
       0.527764         14.7225         13.2925         13.2925 
       0.533884         14.4451         12.9549         12.9549 
           0.54         14.0809         12.6311         12.6311 
       0.546137          13.793          12.319          12.319 
       0.552299         13.5035         12.0173         12.0173 
       0.558452          13.079         11.7263         11.7263 
       0.564573         12.8678          11.446          11.446 
       0.570708         12.5899         11.1737         11.1737 
       0.576825         12.2481         10.9108         10.9108 
       0.582926         12.0079         10.6567         10.6567 
       0.589034         11.6483         10.4102         10.4102 
       0.595184         11.4591         10.1698         10.1698 
       0.601379         11.1889         9.93551         9.93551 
       0.607522         10.9969         9.71066         9.71066 
       0.613639         10.8263         9.49404         9.49404 
       0.619772         10.5223         9.28384         9.28384 
       0.625918         10.4084         9.07983         9.07983 
       0.632068          10.224         8.88194         8.88194 
       0.638161         9.94953         8.69168         8.69168 
         0.6443          9.7371         8.50549         8.50549 
       0.650464         9.51885         8.32391         8.32391 
       0.656582         9.42603         8.14882         8.14882 
       0.662703         9.22986         7.97868         7.97868 
       0.668861          9.0454         7.81244         7.81244 
       0.675024         8.84765          7.6509          7.6509 
       0.681124         8.68307         7.49566         7.49566 
       0.687237         8.52766         7.34453         7.34453 
       0.693381           8.391         7.19695         7.19695 
       0.699536         8.16004         7.05322         7.05322 
       0.705665         8.05547         6.91407         6.91407 
       0.711789         7.90129          6.7788          6.7788 
       0.717957         7.75178         6.64622         6.64622 
        0.72409         7.60835          6.5179          6.5179 
       0.730186          7.4995         6.39373         6.39373 
       0.736317         7.39894         6.27212         6.27212 
       0.742472         7.26657         6.15322         6.15322 
       0.748622          7.1368         6.03751         6.03751 
        0.75476         6.97338         5.92504         5.92504 
       0.760888         6.87214         5.81561         5.81561 
       0.767043         6.77856         5.70853         5.70853 
       0.773185          6.6285         5.60439         5.60439 
       0.779291         6.56017         5.50344         5.50344 
       0.785407         6.44947         5.40486         5.40486 
       0.791564         6.33798         5.30808         5.30808 
       0.797719         6.21149         5.21372         5.21372 
       0.803834         6.16048         5.12227         5.12227 
       0.809972         6.07614         5.03269         5.03269 
       0.816124         5.93273         4.94506         4.94506 
       0.822261         5.83209         4.85976         4.85976 
       0.828378         5.76001         4.77674         4.77674 
       0.834502         5.69698         4.69559         4.69559 
       0.840667         5.57866         4.61581         4.61581 
       0.846816         5.47506         4.53811         4.53811 
       0.852925         5.42061          4.4627          4.4627 
       0.859047         5.33515         4.38884         4.38884 
       0.865192         5.27487         4.31642         4.31642 
       0.871341         5.20364          4.2456          4.2456 
       0.877463         5.11431         4.17669         4.17669 
       0.883569         5.02125         4.10948         4.10948 
       0.889708         4.93324         4.04342         4.04342 
       0.895864         4.87502         3.97864         3.97864 
       0.902008         4.81575         3.91542         3.91542 
       0.908149         4.75628         3.85362         3.85362 
       0.914301         4.67449         3.79306         3.79306 
       0.920448         4.59901         3.73385         3.73385 
       0.926574         4.53382         3.67612         3.67612 
       0.932687         4.47935         3.61974         3.61974 
       0.938823         4.41525         3.56434         3.56434 
       0.944975          4.3515         3.50997         3.50997 
       0.951105         4.29905         3.45693         3.45693 
       0.957225         4.27042         3.40508         3.40508 
       0.963368         4.19998         3.35412         3.35412 
       0.969511         4.14003          3.3042          3.3042 
       0.975621          4.0813         3.25557         3.25557 
       0.981748         4.03222         3.20779         3.20779 
       0.987916         3.98151         3.16068         3.16068 
        0.99406         3.91101         3.11468         3.11468 
        1.00019         3.85389          3.0697          3.0697 
        1.00632         3.82201         3.02564         3.02564 
        1.01246         3.77229         2.98239         2.98239 
        1.01859          3.7179         2.94005         2.94005 
        1.02471         3.67604         2.89859         2.89859 
        1.03085         3.62646         2.85778         2.85778 
        1.03698         3.57239         2.81784         2.81784 
        1.04314         3.53773          2.7785          2.7785 
        1.04929         3.49035            2.74            2.74 
        1.05541         3.44253         2.70239         2.70239 
        1.06154         3.40704         2.66539         2.66539 
        1.06769         3.38146         2.62902         2.62902 
        1.07382         3.32327         2.59346         2.59346 
        1.07993         3.27686         2.55863         2.55863 
        1.08607         3.25481         2.52431         2.52431 
        1.09222         3.21005         2.49058         2.49058 
        1.09836         3.17282          2.4575          2.4575 
        1.10449          3.1373         2.42507         2.42507 
        1.11063         3.09457         2.39318         2.39318 
        1.11677         3.06552         2.36188         2.36188 
         1.1229         3.02948          2.3312          2.3312 
        1.12903         2.98888         2.30103         2.30103 
        1.13518         2.95612         2.27138         2.27138 
        1.14131         2.91286         2.24226         2.24226 
        1.14745         2.87213         2.21367         2.21367 
        1.15359         2.85414         2.18557         2.18557 
        1.15973         2.81275         2.15795         2.15795 
        1.16584         2.78366         2.13093         2.13093 
        1.17197         2.75343         2.10434         2.10434 
        1.17811         2.73109         2.07812         2.07812 
        1.18424         2.69983         2.05242         2.05242 
        1.19038         2.67443         2.02708         2.02708 
        1.19652         2.64259         2.00218         2.00218 
        1.20267          2.6126          1.9777          1.9777 
        1.20881          2.5866         1.95363         1.95363 
        1.21495         2.56103            1.93            1.93 
        1.22108         2.53008         1.90676         1.90676 
         1.2272         2.50834         1.88396         1.88396 
        1.23334         2.47171         1.86148         1.86148 
        1.23949          2.4453         1.83932         1.83932 
        1.24562         2.42737         1.81757         1.81757 
        1.25174         2.39592         1.79621         1.79621 
        1.25789         2.37578         1.77513         1.77513 
        1.26402         2.34953         1.75442         1.75442 
        1.27014         2.32398         1.73409         1.73409 
        1.27628         2.30467         1.71402         1.71402 
        1.28244         2.27179         1.69424         1.69424 
        1.28858         2.25883         1.67479         1.67479 
        1.29471         2.22834         1.65569         1.65569 
        1.30084          2.2033          1.6369          1.6369 
        1.30697         2.19532         1.61838         1.61838 
        1.31312         2.15266         1.60012         1.60012 
        1.31925         2.13889          1.5822          1.5822 
        1.32537         2.11591         1.56456         1.56456 
        1.33151         2.10532         1.54714         1.54714 
        1.33765         2.07396         1.52999         1.52999 
        1.34378         2.05759         1.51313         1.51313 
        1.34992          2.0434         1.49652         1.49652 
        1.35606         2.01032         1.48012         1.48012 
         1.3622         2.00062         1.46399         1.46399 
        1.36833          1.9785         1.44815         1.44815 
        1.37445         1.95798         1.43254         1.43254 
        1.38059         1.94805         1.41712         1.41712 
        1.38675         1.93087         1.40189         1.40189 
        1.39288         1.90894         1.38694         1.38694 
        1.39901         1.88483         1.37221         1.37221 
        1.40515         1.86898         1.35767         1.35767 
         1.4113         1.85355         1.34334         1.34334 
        1.41742         1.83812         1.32928         1.32928 
        1.42355         1.82077         1.31539         1.31539 
         1.4297         1.80179         1.30165         1.30165 
        1.43585         1.79064         1.28812         1.28812 
        1.44198         1.77514         1.27483         1.27483 
        1.44809         1.75391         1.26175         1.26175 
        1.45423         1.73771         1.24881         1.24881 
        1.46036         1.72029         1.23607         1.23607 
        1.46649         1.70651         1.22351         1.22351 
        1.47263         1.68883         1.21111         1.21111 
        1.47877         1.67229         1.19888         1.19888 
        1.48491         1.65974         1.18681         1.18681 
        1.49104         1.64698         1.17493         1.17493 
        1.49718          1.6314          1.1632          1.1632 
        1.50333         1.61761         1.15161         1.15161 
        1.50947         1.60283          1.1402          1.1402 
         1.5156         1.58874         1.12896         1.12896 
        1.52172         1.57552         1.11788         1.11788 
        1.52787         1.56231         1.10692         1.10692 
          1.534         1.54705         1.09612         1.09612 
        1.54013         1.53508         1.08547         1.08547 
        1.54627         1.51884         1.07495         1.07495 
        1.55241         1.50539         1.06456         1.06456 
        1.55855          1.4964         1.05433         1.05433 
        1.56467         1.48386         1.04426         1.04426 
         1.5708         1.46807         1.03429         1.03429 
        1.57695         1.45737         1.02444         1.02444 
        1.58308         1.44319         1.01474         1.01474 
        1.58922         1.43452         1.00515         1.00515 
        1.59535         1.42175        0.995697        0.995697 
         1.6015         1.40966        0.986349        0.986349 
        1.60764         1.39996        0.977125        0.977125 
        1.61376         1.38897        0.968044        0.968044 
        1.61989         1.37473        0.959071        0.959071 
        1.62604         1.36294        0.950191        0.950191 
        1.63218         1.35674        0.941429        0.941429 
        1.63831         1.34186        0.932798        0.932798 
        1.64444         1.33113        0.924271        0.924271 
        1.65059         1.32093         0.91583         0.91583 
        1.65673         1.31117        0.907503        0.907503 
        1.66285         1.29806        0.899303        0.899303 
        1.66898         1.29046        0.891202        0.891202 
        1.67512         1.27645        0.883184        0.883184 
        1.68127         1.26813        0.875258        0.875258 
         1.6874         1.26254        0.867446        0.867446 
        1.69353         1.24526        0.859734        0.859734 
        1.69967         1.23706        0.852097        0.852097 
        1.70581         1.23173        0.844557        0.844557 
        1.71193         1.21927        0.837136        0.837136 
        1.71806         1.21251        0.829788        0.829788 
        1.72421         1.20248        0.822513        0.822513 
        1.73035         1.19179        0.815334        0.815334 
        1.73649         1.18298        0.808242        0.808242 
        1.74262         1.17368         0.80124         0.80124 
        1.74876         1.16622        0.794316        0.794316 
        1.75489         1.15456        0.787488        0.787488 
        1.76101         1.14574        0.780742        0.780742 
        1.76715         1.13909        0.774065        0.774065 
        1.77329         1.13155        0.767458        0.767458 
        1.77943         1.11895        0.760925        0.760925 
        1.78557         1.11218        0.754478        0.754478 
        1.79171          1.1072        0.748103        0.748103 
        1.79785         1.09501        0.741801        0.741801 
        1.80399         1.08813        0.735573        0.735573 
        1.81012         1.08096        0.729424        0.729424 
        1.81625         1.07263        0.723348        0.723348 
        1.82239         1.06415        0.717332        0.717332 
        1.82853         1.05354        0.711387        0.711387 
        1.83466          1.0493        0.705515        0.705515 
        1.84078         1.04171        0.699715        0.699715 
        1.84692         1.03495        0.693971        0.693971 
        1.85306         1.02534        0.688285        0.688285 
         1.8592          1.0179         0.68267         0.68267 
        1.86533         1.01017        0.677122        0.677122 
        1.87147         1.00493        0.671628        0.671628 
        1.87761        0.996706        0.666193        0.666193 
