# k  (h/Mpc)    Pcb(k)  (Mpc/h)^3    Pcb_linear(k) (Mpc/h)^3    Pcb_NL(k) (Mpc/h)^3   ShotnoiseSubtracted = false
     0.00783031         3323.55         3361.27         3361.27 
       0.013688         3921.93         3914.58         3914.58 
       0.019231         3781.98         3775.59         3775.59 
      0.0249154         3307.91         3333.28         3333.28 
      0.0312784          2759.6         2761.35         2761.35 
      0.0375637         2291.84         2281.09         2281.09 
      0.0433917         1955.17         1959.22         1959.22 
      0.0492413         1746.11         1743.44         1743.44 
      0.0555754         1576.98          1588.8          1588.8 
      0.0619321         1476.67         1466.84         1466.84 
       0.067871         1342.75         1349.76         1349.76 
      0.0738098         1210.68          1217.2          1217.2 
      0.0800417         1058.86         1067.58         1067.58 
      0.0862327         924.045         925.202         925.202 
      0.0921407         815.069         810.159         810.159 
      0.0982031         722.119         720.905         720.905 
       0.104506         668.177         657.904         657.904 
       0.110769          624.76         617.186         617.186 
       0.116806         590.736         587.931         587.931 
       0.122832         564.503         558.991         558.991 
       0.129052         523.866         523.359         523.359 
       0.135211         483.159         481.479         481.479 
       0.141259         444.038         437.409         437.409 
       0.147318         404.958         395.407         395.407 
       0.153489         366.913         359.159         359.159 
       0.159709         340.653         331.329         331.329 
       0.165845          324.04         311.856         311.856 
       0.171974         306.346         297.926         297.926 
       0.178125         294.839         286.344         286.344 
       0.184229         283.308         274.473         274.473 
        0.19034         264.925         260.652         260.652 
       0.196428         253.047         244.873         244.873 
       0.202534         239.567         228.121         228.121 
       0.208729         222.221         211.777         211.777 
       0.214876          206.93         197.564         197.564 
       0.220989         197.776         186.065         186.065 
       0.227147         186.625         177.033         177.033 
        0.23329         179.251         169.888         169.888 
       0.239377         173.862         163.715         163.715 
       0.245482         164.561         157.577         157.577 
       0.251667         160.221         150.897         150.897 
       0.257832         153.317         143.689         143.689 
       0.263955         145.877         136.267         136.267 
       0.270079         138.968         129.042         129.042 
        0.27624         134.165         122.395         122.395 
       0.282372         128.392         116.645         116.645 
        0.28843         122.828         111.823         111.823 
       0.294538         117.866          107.65          107.65 
       0.300721         115.319         103.858         103.858 
        0.30691         110.233          100.21          100.21 
       0.313033         106.637         96.5677         96.5677 
       0.319153          101.43         92.8263         92.8263 
       0.325316         99.2856         89.0212         89.0212 
        0.33145          94.976         85.3141         85.3141 
       0.337538         92.3115         81.8444         81.8444 
       0.343633         88.7086         78.6663         78.6663 
       0.349808         85.8436         75.7695         75.7695 
       0.355968         83.5415         73.1675         73.1675 
       0.362074         80.8425         70.7891         70.7891 
       0.368217         78.2792         68.5185         68.5185 
       0.374374          75.852         66.2924         66.2924 
       0.380519         73.8601         64.0894         64.0894 
       0.386598         71.6371         61.9346         61.9346 
       0.392688         69.9596         59.8227         59.8227 
        0.39888         67.7403         57.7645         57.7645 
       0.405048          65.886          55.834          55.834 
       0.411186         64.1692         54.0397         54.0397 
       0.417313         62.1453         52.3731         52.3731 
       0.423458         60.4692         50.8051         50.8051 
       0.429607         58.8136         49.3102         49.3102 
       0.435692         56.8821         47.8835         47.8835 
       0.441815         55.9759         46.4869         46.4869 
       0.447964         54.8579         45.1151         45.1151 
       0.454126         52.4311         43.7773         43.7773 
       0.460267         51.5592         42.4915         42.4915 
       0.466387         50.1254         41.2647         41.2647 
        0.47254         49.1723         40.0884         40.0884 
       0.478662         48.2967         38.9766         38.9766 
       0.484765          46.808         37.9227         37.9227 
       0.490885         45.7549         36.9115         36.9115 
       0.497035          45.047         35.9317         35.9317 
       0.503198         43.7576         34.9811         34.9811 
       0.509342         42.6229         34.0627         34.0627 
       0.515458         41.6994         33.1763         33.1763 
       0.521598         40.9697          32.314          32.314 
       0.527764         40.0912         31.4774         31.4774 
       0.533884         39.3695          30.678          30.678 
           0.54          38.411         29.9112         29.9112 
       0.546137         37.8143         29.1721         29.1721 
       0.552299         37.1528         28.4575         28.4575 
       0.558452         36.0144         27.7685         27.7685 
       0.564573         35.3891         27.1047         27.1047 
       0.570708         34.8038         26.4599         26.4599 
       0.576825         33.9909         25.8372         25.8372 
       0.582926         33.2544         25.2356         25.2356 
       0.589034         32.3855         24.6519         24.6519 
       0.595184         31.9468         24.0827         24.0827 
       0.601379          31.327         23.5278         23.5278 
       0.607522         30.6431         22.9953         22.9953 
       0.613639         30.3647         22.4824         22.4824 
       0.619772         29.5723         21.9846         21.9846 
       0.625918         29.3275         21.5015         21.5015 
       0.632068         28.8518         21.0329         21.0329 
       0.638161         28.2308         20.5823         20.5823 
         0.6443         27.6715         20.1414         20.1414 
       0.650464         27.1535         19.7114         19.7114 
       0.656582         26.9284         19.2968         19.2968 
       0.662703         26.3678         18.8939         18.8939 
       0.668861         25.8792         18.5003         18.5003 
       0.675024          25.404         18.1177         18.1177 
       0.681124         24.9513         17.7501         17.7501 
       0.687237         24.4733         17.3922         17.3922 
       0.693381         24.2442         17.0427         17.0427 
       0.699536         23.6445         16.7024         16.7024 
       0.705665         23.5743         16.3729         16.3729 
       0.711789         22.9662         16.0526         16.0526 
       0.717957         22.6484         15.7386         15.7386 
        0.72409         22.3151         15.4347         15.4347 
       0.730186         21.9574         15.1407         15.1407 
       0.736317         21.7149         14.8527         14.8527 
       0.742472         21.3106         14.5711         14.5711 
       0.748622         21.0816         14.2971         14.2971 
        0.75476         20.6962         14.0308         14.0308 
       0.760888         20.3567         13.7717         13.7717 
       0.767043         20.0902         13.5181         13.5181 
       0.773185         19.7331         13.2715         13.2715 
       0.779291         19.6052         13.0324         13.0324 
       0.785407         19.3844          12.799          12.799 
       0.791564         19.0015         12.5698         12.5698 
       0.797719         18.5463         12.3464         12.3464 
       0.803834         18.5103         12.1298         12.1298 
       0.809972         18.2929         11.9177         11.9177 
       0.816124         17.8678         11.7102         11.7102 
       0.822261          17.687         11.5082         11.5082 
       0.828378         17.5242         11.3116         11.3116 
       0.834502         17.3174         11.1194         11.1194 
       0.840667         17.0578         10.9305         10.9305 
       0.846816         16.7382         10.7465         10.7465 
       0.852925         16.5736         10.5679         10.5679 
       0.859047         16.3707          10.393          10.393 
       0.865192         16.1784         10.2215         10.2215 
       0.871341         16.0377         10.0538         10.0538 
       0.877463          15.733          9.8906          9.8906 
       0.883569         15.5266         9.73146         9.73146 
       0.889708         15.2903         9.57502         9.57502 
       0.895864         15.1456         9.42162         9.42162 
       0.902008         15.0197         9.27192         9.27192 
       0.908149         14.8396         9.12557         9.12557 
       0.914301         14.7434         8.98215         8.98215 
       0.920448         14.4427         8.84195         8.84195 
       0.926574         14.3054         8.70524         8.70524 
       0.932687         14.1209         8.57172         8.57172 
       0.938823         13.9306         8.44053         8.44053 
       0.944975         13.7744         8.31178         8.31178 
       0.951105         13.6327         8.18619         8.18619 
       0.957225         13.4787          8.0634          8.0634 
       0.963368         13.3637         7.94272         7.94272 
       0.969511         13.2227         7.82452         7.82452 
       0.975621         13.0998         7.70935         7.70935 
       0.981748         12.8938         7.59622         7.59622 
       0.987916         12.7933         7.48464         7.48464 
        0.99406         12.6294         7.37573         7.37573 
        1.00019          12.443          7.2692          7.2692 
        1.00632         12.3779         7.16488         7.16488 
        1.01246         12.2678         7.06245         7.06245 
        1.01859           12.05         6.96219         6.96219 
        1.02471         11.9923           6.864           6.864 
        1.03085         11.8708         6.76736         6.76736 
        1.03698         11.6547         6.67279         6.67279 
        1.04314         11.5889         6.57963         6.57963 
        1.04929         11.4373         6.48846         6.48846 
        1.05541         11.2943         6.39939         6.39939 
        1.06154         11.2258         6.31177         6.31177 
        1.06769         11.1458         6.22566         6.22566 
        1.07382          11.004         6.14144         6.14144 
        1.07993         10.9054         6.05898         6.05898 
        1.08607         10.7714         5.97769         5.97769 
        1.09222         10.6927         5.89781         5.89781 
        1.09836          10.551         5.81949         5.81949 
        1.10449         10.4733         5.74268         5.74268 
        1.11063         10.3325         5.66718         5.66718 
        1.11677         10.2867         5.59306         5.59306 
         1.1229         10.2154          5.5204          5.5204 
        1.12903         10.0711         5.44896         5.44896 
        1.13518         9.94364         5.37873         5.37873 
        1.14131         9.89641         5.30978         5.30978 
        1.14745         9.79837         5.24208         5.24208 
        1.15359         9.72751         5.17554         5.17554 
        1.15973         9.61502         5.11014         5.11014 
        1.16584         9.47414         5.04616         5.04616 
        1.17197         9.44199         4.98318         4.98318 
        1.17811         9.35045         4.92109         4.92109 
        1.18424         9.25851         4.86023         4.86023 
        1.19038         9.20802         4.80023         4.80023 
        1.19652         9.10995         4.74126         4.74126 
        1.20267          9.0181         4.68329         4.68329 
        1.20881         8.96801         4.62629         4.62629 
        1.21495         8.89304         4.57034         4.57034 
        1.22108         8.78295         4.51531         4.51531 
         1.2272         8.70299         4.46132         4.46132 
        1.23334         8.63366         4.40809         4.40809 
        1.23949         8.54214          4.3556          4.3556 
        1.24562         8.49831          4.3041          4.3041 
        1.25174         8.43835         4.25352         4.25352 
        1.25789         8.35337         4.20359         4.20359 
        1.26402         8.32096         4.15455         4.15455 
        1.27014         8.22467         4.10641         4.10641 
        1.27628         8.12275         4.05889         4.05889 
        1.28244         8.06038         4.01204         4.01204 
        1.28858         8.04728         3.96598         3.96598 
        1.29471         7.95345         3.92075         3.92075 
        1.30084         7.86819         3.87627         3.87627 
        1.30697         7.82969          3.8324          3.8324 
        1.31312         7.72513         3.78916         3.78916 
        1.31925         7.66352         3.74672         3.74672 
        1.32537         7.62564         3.70497         3.70497 
        1.33151         7.57333          3.6637          3.6637 
        1.33765         7.50572         3.62309         3.62309 
        1.34378          7.4442         3.58318         3.58318 
        1.34992         7.37171         3.54383         3.54383 
        1.35606         7.34005           3.505           3.505 
         1.3622         7.28825         3.46681         3.46681 
        1.36833         7.19962         3.42928         3.42928 
        1.37445         7.16686         3.39233         3.39233 
        1.38059         7.11455         3.35581         3.35581 
        1.38675         7.03874         3.31974         3.31974 
        1.39288         7.01448         3.28434         3.28434 
        1.39901         6.93862         3.24947         3.24947 
        1.40515         6.90313         3.21503         3.21503 
         1.4113         6.84178          3.1811          3.1811 
        1.41742         6.78769          3.1478          3.1478 
        1.42355         6.73339          3.1149          3.1149 
         1.4297         6.70259         3.08238         3.08238 
        1.43585         6.66185         3.05033         3.05033 
        1.44198          6.6118         3.01886         3.01886 
        1.44809         6.55688         2.98789         2.98789 
        1.45423         6.50116         2.95725         2.95725 
        1.46036         6.45384         2.92708         2.92708 
        1.46649         6.42407         2.89733         2.89733 
        1.47263          6.3567         2.86796         2.86796 
        1.47877         6.31542         2.83902         2.83902 
        1.48491          6.2821         2.81042         2.81042 
        1.49104         6.23695         2.78228         2.78228 
        1.49718          6.1935          2.7545          2.7545 
        1.50333         6.14922         2.72706         2.72706 
        1.50947         6.09752         2.70005         2.70005 
         1.5156         6.06426         2.67344         2.67344 
        1.52172         6.03335         2.64718         2.64718 
        1.52787         5.98213         2.62123         2.62123 
          1.534         5.93719         2.59566         2.59566 
        1.54013         5.89659         2.57045         2.57045 
        1.54627         5.84828         2.54553         2.54553 
        1.55241         5.81476         2.52094         2.52094 
        1.55855         5.78574         2.49671         2.49671 
        1.56467         5.73738         2.47286         2.47286 
         1.5708         5.72119         2.44926         2.44926 
        1.57695         5.66617         2.42592         2.42592 
        1.58308         5.62133         2.40295         2.40295 
        1.58922         5.60005         2.38025         2.38025 
        1.59535         5.56987         2.35786         2.35786 
         1.6015         5.51639         2.33572         2.33572 
        1.60764         5.47544         2.31388         2.31388 
        1.61376         5.45762         2.29238         2.29238 
        1.61989         5.41214         2.27113         2.27113 
        1.62604         5.38681          2.2501          2.2501 
        1.63218         5.35771         2.22935         2.22935 
        1.63831         5.31877         2.20891         2.20891 
        1.64444         5.28109         2.18872         2.18872 
        1.65059         5.23365         2.16873         2.16873 
        1.65673         5.22976         2.14901         2.14901 
        1.66285         5.17047         2.12959         2.12959 
        1.66898         5.14416         2.11041         2.11041 
        1.67512         5.12305         2.09142         2.09142 
        1.68127          5.0856         2.07265         2.07265 
         1.6874         5.05859         2.05415         2.05415 
        1.69353          5.0148         2.03589         2.03589 
        1.69967         4.99754         2.01781         2.01781 
        1.70581         4.97206         1.99995         1.99995 
        1.71193         4.92527         1.98238         1.98238 
        1.71806         4.90537         1.96498         1.96498 
        1.72421         4.87412         1.94775         1.94775 
        1.73035         4.85292         1.93075         1.93075 
        1.73649         4.82279         1.91396         1.91396 
        1.74262           4.787         1.89738         1.89738 
        1.74876         4.76813         1.88098         1.88098 
        1.75489         4.73952         1.86481         1.86481 
        1.76101         4.70116         1.84883         1.84883 
        1.76715         4.68519         1.83302         1.83302 
        1.77329          4.6462         1.81738         1.81738 
        1.77943         4.61943         1.80191         1.80191 
        1.78557         4.60505         1.78664         1.78664 
        1.79171          4.5794         1.77155         1.77155 
        1.79785         4.54232         1.75662         1.75662 
        1.80399          4.5181         1.74187         1.74187 
        1.81012         4.49758         1.72731         1.72731 
        1.81625         4.46701         1.71292         1.71292 
        1.82239         4.44606         1.69868         1.69868 
        1.82853         4.41334          1.6846          1.6846 
        1.83466         4.39112         1.67069         1.67069 
        1.84078         4.37228         1.65696         1.65696 
        1.84692         4.35478         1.64336         1.64336 
        1.85306         4.31968         1.62989         1.62989 
         1.8592         4.29519          1.6166          1.6166 
        1.86533         4.27255         1.60346         1.60346 
        1.87147         4.25151         1.59045         1.59045 
