# k  (h/Mpc)    Pcb(k)  (Mpc/h)^3    Pcb_linear(k) (Mpc/h)^3    Pcb_NL(k) (Mpc/h)^3   ShotnoiseSubtracted = false
     0.00783031         12546.6         12720.4         12720.4 
       0.013688         14930.6         14808.3         14808.3 
       0.019231           14327         14280.1         14280.1 
      0.0249154         12404.3           12606           12606 
      0.0312784         10383.6         10442.4         10442.4 
      0.0375637         8668.18         8625.93         8625.93 
      0.0433917         7341.08         7408.62         7408.62 
      0.0492413         6586.72         6592.54         6592.54 
      0.0555754          5888.7         6007.71         6007.71 
      0.0619321         5591.13         5546.49         5546.49 
       0.067871         5024.72         5103.74         5103.74 
      0.0738098         4538.67         4602.47         4602.47 
      0.0800417          3960.5         4036.73         4036.73 
      0.0862327         3484.39         3498.35         3498.35 
      0.0921407          3112.1         3063.34         3063.34 
      0.0982031         2755.62         2725.85         2725.85 
       0.104506         2584.49         2487.63         2487.63 
       0.110769         2410.62         2333.66         2333.66 
       0.116806         2280.53         2223.04         2223.04 
       0.122832         2174.87         2113.62         2113.62 
       0.129052         2002.82         1978.89         1978.89 
       0.135211          1860.4         1820.53         1820.53 
       0.141259          1736.6         1653.89         1653.89 
       0.147318         1601.08         1495.08         1495.08 
       0.153489         1452.65         1358.02         1358.02 
       0.159709         1365.77         1252.79         1252.79 
       0.165845         1309.59         1179.16         1179.16 
       0.171974         1242.53         1126.49         1126.49 
       0.178125         1189.46         1082.69         1082.69 
       0.184229         1139.98         1037.81         1037.81 
        0.19034         1063.44         985.549         985.549 
       0.196428         1031.18         925.889         925.889 
       0.202534           984.6         862.546         862.546 
       0.208729         924.554         800.749         800.749 
       0.214876         873.327         747.008         747.008 
       0.220989         839.667         703.527         703.527 
       0.227147         800.792         669.376         669.376 
        0.23329         769.516         642.362         642.362 
       0.239377         752.842          619.02          619.02 
       0.245482         702.751         595.813         595.813 
       0.251667          694.62         570.556         570.556 
       0.257832         665.896         543.301         543.301 
       0.263955         640.231         515.235         515.235 
       0.270079         613.351         487.919         487.919 
        0.27624         603.027         462.786         462.786 
       0.282372         578.027         441.043         441.043 
        0.28843         563.704         422.812         422.812 
       0.294538         535.247         407.034         407.034 
       0.300721         531.433         392.694         392.694 
        0.30691         506.835         378.903         378.903 
       0.313033         495.796          365.13          365.13 
       0.319153         480.072         350.984         350.984 
       0.325316         465.636         336.596         336.596 
        0.33145         450.753         322.579         322.579 
       0.337538         442.915          309.46          309.46 
       0.343633         428.447         297.443         297.443 
       0.349808         413.101          286.49          286.49 
       0.355968         408.717         276.652         276.652 
       0.362074         400.973         267.659         267.659 
       0.368217         389.349         259.074         259.074 
       0.374374          372.42         250.657         250.657 
       0.380519         369.626         242.327         242.327 
       0.386598         359.561          234.18          234.18 
       0.392688         356.079         226.194         226.194 
        0.39888         345.928         218.412         218.412 
       0.405048         337.546         211.113         211.113 
       0.411186         331.241         204.328         204.328 
       0.417313         324.659         198.027         198.027 
       0.423458         317.662         192.098         192.098 
       0.429607         311.748         186.445         186.445 
       0.435692          303.33         181.051         181.051 
       0.441815         300.317          175.77          175.77 
       0.447964         293.561         170.584         170.584 
       0.454126         284.774         165.525         165.525 
       0.460267         280.107         160.664         160.664 
       0.466387          276.79         156.025         156.025 
        0.47254          270.35         151.577         151.577 
       0.478662          269.52         147.373         147.373 
       0.484765         259.979         143.388         143.388 
       0.490885         256.864         139.565         139.565 
       0.497035         252.298          135.86          135.86 
       0.503198          247.29         132.266         132.266 
       0.509342         244.979         128.793         128.793 
       0.515458         241.584         125.442         125.442 
       0.521598         236.044         122.182         122.182 
       0.527764         232.559         119.018         119.018 
       0.533884         229.847         115.996         115.996 
           0.54         226.274         113.096         113.096 
       0.546137         224.714         110.302         110.302 
       0.552299          219.88           107.6           107.6 
       0.558452         218.116         104.995         104.995 
       0.564573         214.757         102.485         102.485 
       0.570708         210.117         100.047         100.047 
       0.576825         206.838         97.6925         97.6925 
       0.582926         204.212         95.4174         95.4174 
       0.589034         202.019         93.2104         93.2104 
       0.595184         199.688         91.0583         91.0583 
       0.601379         197.027         88.9603         88.9603 
       0.607522         193.572         86.9471         86.9471 
       0.613639         191.935         85.0075         85.0075 
       0.619772         187.879         83.1254         83.1254 
       0.625918         186.527         81.2987         81.2987 
       0.632068         183.631         79.5269         79.5269 
       0.638161         182.472         77.8233         77.8233 
         0.6443         179.563         76.1562         76.1562 
       0.650464         177.591         74.5304         74.5304 
       0.656582         175.569         72.9627         72.9627 
       0.662703         174.443         71.4393         71.4393 
       0.668861         171.281         69.9508         69.9508 
       0.675024         168.844         68.5044         68.5044 
       0.681124         167.907         67.1144         67.1144 
       0.687237         165.502         65.7613         65.7613 
       0.693381         162.837         64.4398         64.4398 
       0.699536         161.677         63.1529         63.1529 
       0.705665         160.425          61.907          61.907 
       0.711789         158.062         60.6958         60.6958 
       0.717957         157.466         59.5087         59.5087 
        0.72409         155.239         58.3598         58.3598 
       0.730186         153.059          57.248          57.248 
       0.736317         151.518         56.1591         56.1591 
       0.742472         150.483         55.0945         55.0945 
       0.748622         149.038         54.0585         54.0585 
        0.75476         147.569         53.0514         53.0514 
       0.760888         145.698         52.0716         52.0716 
       0.767043         145.254         51.1129         51.1129 
       0.773185         143.652         50.1804         50.1804 
       0.779291         140.898         49.2766         49.2766 
       0.785407         140.391         48.3938         48.3938 
       0.791564          139.07         47.5273         47.5273 
       0.797719         136.753         46.6825         46.6825 
       0.803834         136.074         45.8636         45.8636 
       0.809972         134.952         45.0615         45.0615 
       0.816124          134.36          44.277          44.277 
       0.822261         132.809         43.5132         43.5132 
       0.828378         131.495         42.7698         42.7698 
       0.834502         131.198         42.0432         42.0432 
       0.840667         129.002         41.3289         41.3289 
       0.846816         127.693         40.6332         40.6332 
       0.852925         127.151         39.9579         39.9579 
       0.859047         125.664         39.2967         39.2967 
       0.865192         124.386         38.6483         38.6483 
       0.871341         123.356         38.0141         38.0141 
       0.877463         122.115         37.3971         37.3971 
       0.883569         121.791         36.7953         36.7953 
       0.889708          120.52         36.2038         36.2038 
       0.895864         119.091         35.6238         35.6238 
       0.902008         118.384         35.0578         35.0578 
       0.908149          117.83         34.5044         34.5044 
       0.914301         116.361         33.9621         33.9621 
       0.920448         115.492          33.432          33.432 
       0.926574         114.669         32.9151         32.9151 
       0.932687         114.509         32.4103         32.4103 
       0.938823         112.706         31.9142         31.9142 
       0.944975         111.636         31.4274         31.4274 
       0.951105         111.069         30.9525         30.9525 
       0.957225          109.97         30.4883         30.4883 
       0.963368         108.652          30.032          30.032 
       0.969511         108.516          29.585          29.585 
       0.975621         107.717         29.1496         29.1496 
       0.981748         107.193         28.7218         28.7218 
       0.987916         105.946         28.2999         28.2999 
        0.99406         105.078         27.8881         27.8881 
        1.00019         104.818         27.4854         27.4854 
        1.00632          103.65         27.0909         27.0909 
        1.01246          103.12         26.7036         26.7036 
        1.01859         102.146         26.3245         26.3245 
        1.02471         101.219         25.9533         25.9533 
        1.03085         100.339         25.5879         25.5879 
        1.03698         99.9653         25.2303         25.2303 
        1.04314         98.9203          24.878          24.878 
        1.04929         98.4205         24.5333         24.5333 
        1.05541         97.6132         24.1965         24.1965 
        1.06154         97.1102         23.8652         23.8652 
        1.06769         96.8063         23.5397         23.5397 
        1.07382         95.9079         23.2212         23.2212 
        1.07993         95.1356         22.9094         22.9094 
        1.08607          94.431          22.602          22.602 
        1.09222         94.1947            22.3            22.3 
        1.09836         93.2965         22.0039         22.0039 
        1.10449         92.5051         21.7135         21.7135 
        1.11063         91.8171          21.428          21.428 
        1.11677         91.4323         21.1477         21.1477 
         1.1229         90.5843          20.873          20.873 
        1.12903         89.9341         20.6029         20.6029 
        1.13518         89.8218         20.3374         20.3374 
        1.14131         88.9987         20.0766         20.0766 
        1.14745         88.4077         19.8207         19.8207 
        1.15359         87.8216         19.5691         19.5691 
        1.15973         87.4079         19.3218         19.3218 
        1.16584         86.5352         19.0799         19.0799 
        1.17197         86.0849         18.8417         18.8417 
        1.17811         85.5782          18.607          18.607 
        1.18424         85.0983         18.3769         18.3769 
        1.19038         84.7156           18.15           18.15 
        1.19652         84.0673          17.927          17.927 
        1.20267         83.3336         17.7078         17.7078 
        1.20881         82.8507         17.4923         17.4923 
        1.21495         82.2963         17.2807         17.2807 
        1.22108         81.9328         17.0727         17.0727 
         1.2272         81.0682         16.8686         16.8686 
        1.23334         80.7591         16.6673         16.6673 
        1.23949         80.2226         16.4688         16.4688 
        1.24562         79.6963         16.2741         16.2741 
        1.25174         79.1953         16.0828         16.0828 
        1.25789         78.8627         15.8941         15.8941 
        1.26402         78.1709         15.7086         15.7086 
        1.27014         77.7728         15.5266         15.5266 
        1.27628          77.371          15.347          15.347 
        1.28244         76.8174         15.1698         15.1698 
        1.28858         76.6449         14.9956         14.9956 
        1.29471         75.9726         14.8246         14.8246 
        1.30084         75.5892         14.6564         14.6564 
        1.30697         75.0119         14.4906         14.4906 
        1.31312         74.6348         14.3271         14.3271 
        1.31925         74.0928         14.1666         14.1666 
        1.32537         73.7523         14.0087         14.0087 
        1.33151         73.0945         13.8527         13.8527 
        1.33765         72.8052         13.6992         13.6992 
        1.34378         72.4017         13.5482         13.5482 
        1.34992         72.0901         13.3995         13.3995 
        1.35606         71.5982         13.2526         13.2526 
         1.3622         70.9053         13.1082         13.1082 
        1.36833         70.7989         12.9663         12.9663 
        1.37445         70.2909         12.8266         12.8266 
        1.38059         69.7797         12.6885         12.6885 
        1.38675          69.369         12.5521         12.5521 
        1.39288         69.0772         12.4183         12.4183 
        1.39901         68.7087         12.2865         12.2865 
        1.40515         68.1947         12.1562         12.1562 
         1.4113         67.8624          12.028          12.028 
        1.41742         67.7052          11.902          11.902 
        1.42355         67.1091         11.7776         11.7776 
         1.4297         66.8634         11.6547         11.6547 
        1.43585         66.2889         11.5335         11.5335 
        1.44198         65.9251         11.4145         11.4145 
        1.44809         65.6374         11.2974         11.2974 
        1.45423         65.2749         11.1815         11.1815 
        1.46036         65.0079         11.0675         11.0675 
        1.46649         64.5077          10.955          10.955 
        1.47263         64.0895          10.844          10.844 
        1.47877         63.9432         10.7345         10.7345 
        1.48491         63.4294         10.6264         10.6264 
        1.49104         63.2055           10.52           10.52 
        1.49718          62.752          10.415          10.415 
        1.50333         62.4516         10.3112         10.3112 
        1.50947         62.1054         10.2091         10.2091 
         1.5156         61.7571         10.1084         10.1084 
        1.52172         61.3786         10.0092         10.0092 
        1.52787         61.2162         9.91105         9.91105 
          1.534         60.6949         9.81436         9.81436 
        1.54013         60.3378         9.71905         9.71905 
        1.54627         60.1698         9.62483         9.62483 
        1.55241          59.663         9.53185         9.53185 
        1.55855         59.4329         9.44022         9.44022 
        1.56467         59.1055         9.35005         9.35005 
         1.5708         58.8603          9.2608          9.2608 
        1.57695         58.7062         9.17258         9.17258 
        1.58308         58.1149          9.0857          9.0857 
        1.58922          57.897          8.9999          8.9999 
        1.59535         57.7356         8.91522         8.91522 
         1.6015         57.1756         8.83152         8.83152 
        1.60764         57.0124         8.74893         8.74893 
        1.61376         56.6787         8.66763         8.66763 
        1.61989         56.3521         8.58728         8.58728 
        1.62604         56.1506         8.50778         8.50778 
        1.63218         55.8986         8.42932         8.42932 
        1.63831          55.326         8.35204         8.35204 
        1.64444         55.1728         8.27569         8.27569 
        1.65059         54.9096         8.20011         8.20011 
        1.65673         54.5877         8.12556         8.12556 
        1.66285         54.2427         8.05213         8.05213 
        1.66898         54.0763          7.9796          7.9796 
        1.67512         53.6327         7.90781         7.90781 
        1.68127         53.4348         7.83684         7.83684 
         1.6874         53.1779         7.76689         7.76689 
        1.69353         52.8831         7.69784         7.69784 
        1.69967         52.5824         7.62947         7.62947 
        1.70581         52.4214         7.56195         7.56195 
        1.71193         52.2233          7.4955          7.4955 
        1.71806         51.7287         7.42971         7.42971 
        1.72421         51.5426         7.36458         7.36458 
        1.73035         51.3147          7.3003          7.3003 
        1.73649         51.0103          7.2368          7.2368 
        1.74262          50.801          7.1741          7.1741 
        1.74876         50.5146         7.11211         7.11211 
        1.75489         50.2486         7.05097         7.05097 
        1.76101         50.0734         6.99056         6.99056 
        1.76715         49.6724         6.93078         6.93078 
        1.77329         49.4323         6.87163         6.87163 
        1.77943         49.1274         6.81313         6.81313 
        1.78557         48.9885          6.7554          6.7554 
        1.79171         48.7067         6.69833         6.69833 
        1.79785         48.4059          6.6419          6.6419 
        1.80399         48.3288         6.58613         6.58613 
        1.81012         48.0034         6.53108         6.53108 
        1.81625         47.6413         6.47667         6.47667 
        1.82239         47.4838         6.42281         6.42281 
        1.82853         47.1852         6.36958         6.36958 
        1.83466         46.9716           6.317           6.317 
        1.84078         46.7102         6.26507         6.26507 
        1.84692         46.4093         6.21364         6.21364 
        1.85306         46.2245         6.16272         6.16272 
         1.8592         45.9487         6.11246         6.11246 
        1.86533          45.758         6.06278         6.06278 
        1.87147         45.4682         6.01359         6.01359 
