# k  (h/Mpc)    P(k)  (Mpc/h)^3    P_linear(k)  (Mpc/h)^3     P_NL(k)  ShotnoiseSubtracted = false
     0.00783031         2256.73          2281.4          2281.4 
       0.013688         2658.87         2657.22         2657.22 
       0.019231         2566.13         2562.97         2562.97 
      0.0249154         2248.45         2262.77         2262.77 
      0.0312784         1874.39         1874.54         1874.54 
      0.0375637         1555.33         1548.53         1548.53 
      0.0433917         1328.51         1330.03         1330.03 
      0.0492413          1185.5         1183.55         1183.55 
      0.0555754         1072.39         1078.57         1078.57 
      0.0619321         1001.52         995.783         995.783 
       0.067871          912.58         916.302         916.302 
      0.0738098         822.692         826.312         826.312 
      0.0800417         719.893         724.746         724.746 
      0.0862327         627.418         628.088         628.088 
      0.0921407         552.443          549.99          549.99 
      0.0982031          489.71         489.399         489.399 
       0.104506         451.942          446.63          446.63 
       0.110769         422.756         418.987         418.987 
       0.116806         400.002         399.128         399.128 
       0.122832         382.063         379.481         379.481 
       0.129052         355.108         355.292         355.292 
       0.135211         327.178         326.861         326.861 
       0.141259         299.948         296.943         296.943 
       0.147318           273.1         268.429         268.429 
       0.153489         247.476         243.822         243.822 
       0.159709          229.28         224.929         224.929 
       0.165845         217.774         211.709         211.709 
       0.171974         205.976         202.253         202.253 
       0.178125         198.273          194.39          194.39 
       0.184229         190.495         186.331         186.331 
        0.19034         178.572         176.948         176.948 
       0.196428         169.935         166.237         166.237 
       0.202534         160.479         154.864         154.864 
       0.208729          148.67         143.769         143.769 
       0.214876         138.307          134.12          134.12 
       0.220989         131.943         126.314         126.314 
       0.227147         124.457         120.182         120.182 
        0.23329         119.505         115.332         115.332 
       0.239377         115.701         111.141         111.141 
       0.245482         109.973         106.974         106.974 
       0.251667         106.717         102.439         102.439 
       0.257832         101.918         97.5463         97.5463 
       0.263955         96.8809         92.5072         92.5072 
       0.270079         92.1879         87.6028         87.6028 
        0.27624         88.6589         83.0902         83.0902 
       0.282372         84.7582         79.1864         79.1864 
        0.28843          80.991         75.9133         75.9133 
       0.294538         77.8044         73.0804         73.0804 
       0.300721         75.8914         70.5058         70.5058 
        0.30691         72.6374         68.0295         68.0295 
       0.313033         70.1485         65.5568         65.5568 
       0.319153         66.6885         63.0168         63.0168 
       0.325316         65.2615         60.4339         60.4339 
        0.33145         62.3838         57.9171         57.9171 
       0.337538         60.3937         55.5616         55.5616 
       0.343633         57.9779         53.4043         53.4043 
       0.349808          56.112         51.4376         51.4376 
       0.355968         54.4666         49.6711         49.6711 
       0.362074         52.6646         48.0566         48.0566 
       0.368217         50.9768          46.515          46.515 
       0.374374         49.3342          45.004          45.004 
       0.380519         47.9836         43.5084         43.5084 
       0.386598         46.5152         42.0455         42.0455 
       0.392688         45.3419         40.6118         40.6118 
        0.39888         43.8143         39.2144         39.2144 
       0.405048         42.5904         37.9041         37.9041 
       0.411186         41.4199         36.6858         36.6858 
       0.417313         40.0348         35.5546         35.5546 
       0.423458         38.9263           34.49           34.49 
       0.429607         37.8111         33.4752         33.4752 
       0.435692         36.6213         32.5066         32.5066 
       0.441815         35.8852         31.5586         31.5586 
       0.447964          35.148         30.6273         30.6273 
       0.454126         33.6764         29.7191         29.7191 
       0.460267          33.015         28.8462         28.8462 
       0.466387         31.9764         28.0133         28.0133 
        0.47254          31.369         27.2148         27.2148 
       0.478662         30.7468         26.4599         26.4599 
       0.484765         29.7817         25.7446         25.7446 
       0.490885         29.0721         25.0581         25.0581 
       0.497035         28.6067          24.393          24.393 
       0.503198         27.7973         23.7476         23.7476 
       0.509342         27.0628         23.1241         23.1241 
       0.515458         26.4005         22.5224         22.5224 
       0.521598         25.8916          21.937          21.937 
       0.527764         25.2783         21.3691         21.3691 
       0.533884         24.8094         20.8263         20.8263 
           0.54         24.1969         20.3058         20.3058 
       0.546137         23.7602         19.8041         19.8041 
       0.552299         23.3084         19.3189         19.3189 
       0.558452         22.5677         18.8512         18.8512 
       0.564573         22.2038         18.4005         18.4005 
       0.570708          21.779         17.9629         17.9629 
       0.576825         21.2098         17.5401         17.5401 
       0.582926         20.7722         17.1317         17.1317 
       0.589034         20.1835         16.7354         16.7354 
       0.595184         19.8932          16.349          16.349 
       0.601379         19.4544         15.9723         15.9723 
       0.607522         19.0865         15.6108         15.6108 
       0.613639         18.8447         15.2626         15.2626 
       0.619772         18.3305         14.9247         14.9247 
       0.625918         18.1803         14.5967         14.5967 
       0.632068         17.8643         14.2786         14.2786 
       0.638161         17.4206         13.9727         13.9727 
         0.6443         17.0536         13.6734         13.6734 
       0.650464         16.7038         13.3815         13.3815 
       0.656582         16.5703            13.1            13.1 
       0.662703          16.229         12.8265         12.8265 
       0.668861         15.8953         12.5593         12.5593 
       0.675024         15.5749         12.2996         12.2996 
       0.681124         15.2959           12.05           12.05 
       0.687237         15.0087         11.8071         11.8071 
       0.693381         14.8256         11.5698         11.5698 
       0.699536         14.4285         11.3387         11.3387 
       0.705665         14.3123          11.115          11.115 
       0.711789          13.992         10.8976         10.8976 
       0.717957         13.7639         10.6845         10.6845 
        0.72409         13.5351         10.4782         10.4782 
       0.730186         13.3372         10.2786         10.2786 
       0.736317         13.1608          10.083          10.083 
       0.742472         12.9215          9.8919          9.8919 
       0.748622         12.7444         9.70589         9.70589 
        0.75476         12.4748         9.52508         9.52508 
       0.760888         12.2852         9.34917         9.34917 
       0.767043          12.118         9.17703         9.17703 
       0.773185         11.8719          9.0096          9.0096 
       0.779291         11.7765         8.84733         8.84733 
       0.785407         11.6136         8.68884         8.68884 
       0.791564         11.3914         8.53325         8.53325 
       0.797719         11.1275         8.38157         8.38157 
       0.803834         11.0866         8.23455         8.23455 
       0.809972         10.9601         8.09055         8.09055 
       0.816124         10.6879         7.94968         7.94968 
       0.822261         10.5475         7.81255         7.81255 
       0.828378          10.427         7.67908         7.67908 
       0.834502         10.3134         7.54862         7.54862 
       0.840667         10.1308         7.42037         7.42037 
       0.846816         9.93385         7.29546         7.29546 
       0.852925          9.8322         7.17422         7.17422 
       0.859047         9.70012          7.0555          7.0555 
       0.865192         9.59616         6.93908         6.93908 
       0.871341         9.48282         6.82522         6.82522 
       0.877463         9.31055         6.71443         6.71443 
       0.883569         9.16407          6.6064          6.6064 
       0.889708         9.00093         6.50019         6.50019 
       0.895864         8.91489         6.39606         6.39606 
       0.902008         8.83388         6.29443         6.29443 
       0.908149         8.72433         6.19507         6.19507 
       0.914301         8.62124         6.09771         6.09771 
       0.920448         8.45761         6.00253         6.00253 
       0.926574         8.36113         5.90973         5.90973 
       0.932687           8.255         5.81909         5.81909 
       0.938823         8.13783         5.73002         5.73002 
       0.944975         8.02534         5.64262         5.64262 
       0.951105         7.93976         5.55736         5.55736 
       0.957225         7.87337           5.474           5.474 
       0.963368          7.7676         5.39208         5.39208 
       0.969511         7.68019         5.31183         5.31183 
       0.975621         7.58838         5.23365         5.23365 
       0.981748         7.48231         5.15684         5.15684 
       0.987916         7.41221          5.0811          5.0811 
        0.99406         7.29503         5.00716         5.00716 
        1.00019         7.17407         4.93484         4.93484 
        1.00632         7.14184         4.86402         4.86402 
        1.01246         7.05463         4.79448         4.79448 
        1.01859         6.93698         4.72642         4.72642 
        1.02471         6.88672         4.65976         4.65976 
        1.03085         6.80479         4.59416         4.59416 
        1.03698         6.69064         4.52996         4.52996 
        1.04314          6.6434         4.46671         4.46671 
        1.04929         6.55127         4.40482         4.40482 
        1.05541         6.46236         4.34435         4.34435 
        1.06154         6.41118         4.28487         4.28487 
        1.06769         6.36924         4.22641         4.22641 
        1.07382          6.2698         4.16924         4.16924 
        1.07993         6.19743         4.11326         4.11326 
        1.08607         6.14163         4.05807         4.05807 
        1.09222         6.07598         4.00385         4.00385 
        1.09836          5.9954         3.95067         3.95067 
        1.10449         5.94048         3.89853         3.89853 
        1.11063         5.86482         3.84728         3.84728 
        1.11677         5.82595         3.79696         3.79696 
         1.1229         5.77291         3.74763         3.74763 
        1.12903         5.69277         3.69914         3.69914 
        1.13518         5.61913         3.65146         3.65146 
        1.14131         5.56553         3.60465         3.60465 
        1.14745         5.50336         3.55869         3.55869 
        1.15359         5.46339         3.51352         3.51352 
        1.15973         5.39877         3.46912         3.46912 
        1.16584         5.31791         3.42568         3.42568 
        1.17197         5.27699         3.38293         3.38293 
        1.17811         5.24459         3.34078         3.34078 
        1.18424         5.18458         3.29946         3.29946 
        1.19038         5.15198         3.25873         3.25873 
        1.19652         5.08548          3.2187          3.2187 
        1.20267         5.02721         3.17934         3.17934 
        1.20881         5.00244         3.14065         3.14065 
        1.21495         4.95084         3.10266         3.10266 
        1.22108         4.88413         3.06531         3.06531 
         1.2272          4.8444         3.02866         3.02866 
        1.23334         4.78475         2.99252         2.99252 
        1.23949         4.73727         2.95688         2.95688 
        1.24562         4.70589         2.92193         2.92193 
        1.25174         4.66186         2.88758         2.88758 
        1.25789         4.61935         2.85369         2.85369 
        1.26402         4.58984          2.8204          2.8204 
        1.27014         4.53945         2.78772         2.78772 
        1.27628         4.48308         2.75546         2.75546 
        1.28244         4.43076         2.72365         2.72365 
        1.28858         4.42305         2.69238         2.69238 
        1.29471         4.36437         2.66168         2.66168 
        1.30084          4.3153         2.63148         2.63148 
        1.30697         4.30651          2.6017          2.6017 
        1.31312         4.22718         2.57235         2.57235 
        1.31925         4.19438         2.54353         2.54353 
        1.32537         4.15858         2.51519         2.51519 
        1.33151         4.14332         2.48718         2.48718 
        1.33765         4.08735         2.45961         2.45961 
        1.34378         4.05446         2.43251         2.43251 
        1.34992         4.02526          2.4058          2.4058 
        1.35606         3.98016         2.37944         2.37944 
         1.3622         3.95583         2.35351         2.35351 
        1.36833         3.91141         2.32804         2.32804 
        1.37445         3.88179         2.30295         2.30295 
        1.38059         3.86461         2.27816         2.27816 
        1.38675         3.82518         2.25367         2.25367 
        1.39288         3.79983         2.22964         2.22964 
        1.39901         3.74815         2.20597         2.20597 
        1.40515         3.72508         2.18259         2.18259 
         1.4113         3.69228         2.15956         2.15956 
        1.41742         3.66296         2.13694         2.13694 
        1.42355         3.62483         2.11461         2.11461 
         1.4297         3.60076         2.09253         2.09253 
        1.43585         3.58069         2.07078         2.07078 
        1.44198         3.55577         2.04941         2.04941 
        1.44809         3.51748         2.02839         2.02839 
        1.45423         3.48514         2.00759         2.00759 
        1.46036         3.45301         1.98711         1.98711 
        1.46649         3.43069         1.96691         1.96691 
        1.47263         3.39635         1.94697         1.94697 
        1.47877         3.36926         1.92732         1.92732 
        1.48491          3.3474         1.90791         1.90791 
        1.49104         3.32091         1.88881         1.88881 
        1.49718         3.29339         1.86995         1.86995 
        1.50333         3.27194         1.85132         1.85132 
        1.50947         3.23808         1.83298         1.83298 
         1.5156         3.21849         1.81492         1.81492 
        1.52172         3.19648         1.79709         1.79709 
        1.52787         3.17259         1.77948         1.77948 
          1.534         3.14251         1.76212         1.76212 
        1.54013          3.1243           1.745           1.745 
        1.54627         3.09202         1.72809         1.72809 
        1.55241         3.06643         1.71139         1.71139 
        1.55855         3.05275         1.69494         1.69494 
        1.56467         3.02654         1.67875         1.67875 
         1.5708         3.00623         1.66273         1.66273 
        1.57695         2.97843         1.64689         1.64689 
        1.58308         2.95011         1.63129         1.63129 
        1.58922         2.94104         1.61588         1.61588 
        1.59535         2.92137         1.60068         1.60068 
         1.6015         2.89161         1.58565         1.58565 
        1.60764         2.86916         1.57082         1.57082 
        1.61376           2.853         1.55623         1.55623 
        1.61989         2.82979          1.5418          1.5418 
        1.62604         2.80859         1.52753         1.52753 
        1.63218          2.7984         1.51344         1.51344 
        1.63831         2.77165         1.49956         1.49956 
        1.64444         2.75437         1.48586         1.48586 
        1.65059         2.72105         1.47229         1.47229 
        1.65673         2.71854          1.4589          1.4589 
        1.66285         2.68638         1.44572         1.44572 
        1.66898         2.67011         1.43269         1.43269 
        1.67512         2.65244          1.4198          1.4198 
        1.68127         2.63314         1.40706         1.40706 
         1.6874         2.62112          1.3945          1.3945 
        1.69353         2.59396         1.38211         1.38211 
        1.69967         2.58264         1.36983         1.36983 
        1.70581         2.56539         1.35771         1.35771 
        1.71193         2.54403         1.34578         1.34578 
        1.71806         2.52959         1.33397         1.33397 
        1.72421         2.51139         1.32227         1.32227 
        1.73035         2.49733         1.31073         1.31073 
        1.73649         2.47815         1.29933         1.29933 
        1.74262         2.45819         1.28807         1.28807 
        1.74876         2.44622         1.27694         1.27694 
        1.75489         2.43136         1.26596         1.26596 
        1.76101         2.40812         1.25512         1.25512 
        1.76715         2.39899         1.24439         1.24439 
        1.77329         2.38382         1.23376         1.23376 
        1.77943         2.35791         1.22326         1.22326 
        1.78557         2.34846          1.2129          1.2129 
        1.79171         2.33467         1.20265         1.20265 
        1.79785         2.31823         1.19252         1.19252 
        1.80399         2.30093         1.18251         1.18251 
        1.81012         2.28588         1.17262         1.17262 
        1.81625         2.27368         1.16285         1.16285 
        1.82239         2.25941         1.15318         1.15318 
        1.82853         2.23962         1.14362         1.14362 
        1.83466         2.23139         1.13418         1.13418 
        1.84078         2.22045         1.12486         1.12486 
        1.84692         2.20693         1.11563         1.11563 
        1.85306           2.186         1.10648         1.10648 
         1.8592         2.17055         1.09746         1.09746 
        1.86533         2.15725         1.08854         1.08854 
        1.87147         2.14771         1.07971         1.07971 
        1.87761          2.1318         1.07097         1.07097 
