# k  (h/Mpc)    P(k)  (Mpc/h)^3    P_linear(k)  (Mpc/h)^3     P_NL(k)  ShotnoiseSubtracted = false
     0.00783031         20321.8         20635.8         20635.8 
       0.013688         24296.1         24018.6         24018.6 
       0.019231         23241.8           23160           23160 
      0.0249154         19998.9           20444           20444 
      0.0312784         16766.5         16934.7         16934.7 
      0.0375637         14042.9         13988.6         13988.6 
      0.0433917         11840.3         12014.3         12014.3 
      0.0492413         10652.9         10690.8         10690.8 
      0.0555754         9460.91         9742.37         9742.37 
      0.0619321         9047.16         8994.38         8994.38 
       0.067871         8076.27         8276.37         8276.37 
      0.0738098         7306.99         7463.47         7463.47 
      0.0800417         6370.84         6546.05         6546.05 
      0.0862327         5634.29         5672.98         5672.98 
      0.0921407         5075.33         4967.55         4967.55 
      0.0982031         4501.82         4420.27         4420.27 
       0.104506         4248.19         4033.96         4033.96 
       0.110769          3958.1         3784.29         3784.29 
       0.116806         3755.88          3604.9          3604.9 
       0.122832         3569.17         3427.45         3427.45 
       0.129052         3276.83         3208.97         3208.97 
       0.135211          3054.1         2952.17         2952.17 
       0.141259         2878.47         2681.96         2681.96 
       0.147318         2675.39         2424.41         2424.41 
       0.153489         2433.62         2202.17         2202.17 
       0.159709         2298.88         2031.53         2031.53 
       0.165845         2218.11         1912.12         1912.12 
       0.171974         2111.87         1826.71         1826.71 
       0.178125         2014.07          1755.7          1755.7 
       0.184229         1920.59         1682.91         1682.91 
        0.19034         1811.79         1598.16         1598.16 
       0.196428         1758.56         1501.42         1501.42 
       0.202534         1678.95          1398.7          1398.7 
       0.208729         1590.22         1298.49         1298.49 
       0.214876         1523.01         1211.35         1211.35 
       0.220989         1465.49         1140.84         1140.84 
       0.227147         1408.23         1085.45         1085.45 
        0.23329         1353.13         1041.65         1041.65 
       0.239377         1329.83          1003.8          1003.8 
       0.245482         1246.09         966.166         966.166 
       0.251667         1236.44         925.208         925.208 
       0.257832         1182.99         881.014         881.014 
       0.263955         1140.58         835.503         835.503 
       0.270079         1098.11         791.207         791.207 
        0.27624         1082.52          750.45          750.45 
       0.282372         1037.76         715.192         715.192 
        0.28843         1028.46          685.63          685.63 
       0.294538         975.567         660.043         660.043 
       0.300721         968.587         636.791         636.791 
        0.30691         930.335         614.425         614.425 
       0.313033         910.427         592.092         592.092 
       0.319153         892.634         569.151         569.151 
       0.325316         863.752         545.823         545.823 
        0.33145         842.677         523.092         523.092 
       0.337538         824.883         501.818         501.818 
       0.343633          806.38         482.333         482.333 
       0.349808         776.937         464.571         464.571 
       0.355968         770.822         448.616         448.616 
       0.362074          762.79         434.034         434.034 
       0.368217         737.891         420.111         420.111 
       0.374374         708.475         406.464         406.464 
       0.380519         709.153         392.956         392.956 
       0.386598         687.027         379.743         379.743 
       0.392688         683.822         366.795         366.795 
        0.39888         663.245         354.174         354.174 
       0.405048         653.794         342.339         342.339 
       0.411186         644.437         331.336         331.336 
       0.417313         630.903         321.119         321.119 
       0.423458         617.244         311.504         311.504 
       0.429607         610.699         302.339         302.339 
       0.435692         595.615         293.591         293.591 
       0.441815          589.13         285.028         285.028 
       0.447964         577.086         276.617         276.617 
       0.454126         571.102         268.415         268.415 
       0.460267         556.343         260.531         260.531 
       0.466387         549.527         253.009         253.009 
        0.47254         544.936         245.796         245.796 
       0.478662         538.976         238.979         238.979 
       0.484765         521.148         232.518         232.518 
       0.490885         517.246         226.317         226.317 
       0.497035          506.61          220.31          220.31 
       0.503198         502.427         214.482         214.482 
       0.509342         498.261          208.85          208.85 
       0.515458         493.877         203.416         203.416 
       0.521598         479.917         198.129         198.129 
       0.527764         473.109         192.999         192.999 
       0.533884         469.531         188.097         188.097 
           0.54         464.114         183.396         183.396 
       0.546137         460.104         178.865         178.865 
       0.552299         453.104         174.483         174.483 
       0.558452         449.426         170.258         170.258 
       0.564573         444.128         166.188         166.188 
       0.570708         437.477         162.235         162.235 
       0.576825         426.849         158.417         158.417 
       0.582926         426.706         154.728         154.728 
       0.589034         421.895         151.149         151.149 
       0.595184         418.578         147.659         147.659 
       0.601379         410.917         144.257         144.257 
       0.607522         405.986         140.993         140.993 
       0.613639         403.916         137.847         137.847 
       0.619772         396.764         134.795         134.795 
       0.625918          394.42         131.833         131.833 
       0.632068         387.821          128.96          128.96 
       0.638161          385.76         126.198         126.198 
         0.6443         380.079         123.494         123.494 
       0.650464         377.249         120.858         120.858 
       0.656582         372.871         118.316         118.316 
       0.662703         372.261         115.845         115.845 
       0.668861         366.471         113.432         113.432 
       0.675024         362.787         111.086         111.086 
       0.681124         359.317         108.832         108.832 
       0.687237         356.283         106.638         106.638 
       0.693381         350.805         104.495         104.495 
       0.699536         346.177         102.408         102.408 
       0.705665         344.404         100.388         100.388 
       0.711789          343.02         98.4239         98.4239 
       0.717957         339.635         96.4988         96.4988 
        0.72409         337.655         94.6357         94.6357 
       0.730186         332.495         92.8329         92.8329 
       0.736317         329.959         91.0671         91.0671 
       0.742472         327.305         89.3407         89.3407 
       0.748622         324.285         87.6607         87.6607 
        0.75476         319.748         86.0277         86.0277 
       0.760888         316.553         84.4389         84.4389 
       0.767043         316.525         82.8842         82.8842 
       0.773185         313.421         81.3721         81.3721 
       0.779291         308.978         79.9064         79.9064 
       0.785407         307.773          78.475          78.475 
       0.791564         304.048         77.0698         77.0698 
       0.797719         301.893         75.6999         75.6999 
       0.803834         297.979          74.372          74.372 
       0.809972         297.647         73.0714         73.0714 
       0.816124         296.178         71.7991         71.7991 
       0.822261         292.928         70.5606         70.5606 
       0.828378         290.516         69.3551         69.3551 
       0.834502         287.217         68.1769         68.1769 
       0.840667         285.373         67.0185         67.0185 
       0.846816         283.823         65.8904         65.8904 
       0.852925         281.921         64.7954         64.7954 
       0.859047         279.584         63.7231         63.7231 
       0.865192         275.972         62.6717         62.6717 
       0.871341         273.692         61.6433         61.6433 
       0.877463         273.693         60.6427         60.6427 
       0.883569          271.05          59.667          59.667 
       0.889708         268.295         58.7078         58.7078 
       0.895864         267.598         57.7673         57.7673 
       0.902008         264.852         56.8494         56.8494 
       0.908149         261.968          55.952          55.952 
       0.914301         259.862         55.0727         55.0727 
       0.920448         258.284         54.2131         54.2131 
       0.926574          255.16         53.3749         53.3749 
       0.932687          254.86         52.5562         52.5562 
       0.938823         251.981         51.7518         51.7518 
       0.944975         251.778         50.9624         50.9624 
       0.951105         249.313         50.1924         50.1924 
       0.957225          247.73         49.4395         49.4395 
       0.963368         244.124         48.6996         48.6996 
       0.969511          243.47         47.9748         47.9748 
       0.975621         241.742         47.2687         47.2687 
       0.981748         240.244          46.575          46.575 
       0.987916         238.908         45.8909         45.8909 
        0.99406         236.133         45.2232         45.2232 
        1.00019         234.522           44.57           44.57 
        1.00632         233.558         43.9304         43.9304 
        1.01246          231.51         43.3023         43.3023 
        1.01859         231.545         42.6876         42.6876 
        1.02471         227.776         42.0856         42.0856 
        1.03085         226.761         41.4931         41.4931 
        1.03698         225.384         40.9132         40.9132 
        1.04314         223.569          40.342          40.342 
        1.04929         222.187          39.783          39.783 
        1.05541         221.773         39.2369         39.2369 
        1.06154         218.514         38.6996         38.6996 
        1.06769         218.068         38.1717         38.1717 
        1.07382         216.138         37.6553         37.6553 
        1.07993         214.779         37.1497         37.1497 
        1.08607          214.36         36.6513         36.6513 
        1.09222         211.947         36.1615         36.1615 
        1.09836         210.432         35.6813         35.6813 
        1.10449         208.653         35.2104         35.2104 
        1.11063         206.862         34.7474         34.7474 
        1.11677         206.306          34.293          34.293 
         1.1229         204.251         33.8475         33.8475 
        1.12903         203.516         33.4095         33.4095 
        1.13518         202.058         32.9789         32.9789 
        1.14131         200.349         32.5561         32.5561 
        1.14745         200.275          32.141          32.141 
        1.15359         198.329          31.733          31.733 
        1.15973         196.459          31.332          31.332 
        1.16584         195.471         30.9397         30.9397 
        1.17197         195.386         30.5536         30.5536 
        1.17811         192.557         30.1729         30.1729 
        1.18424         191.706         29.7997         29.7997 
        1.19038         190.982         29.4319         29.4319 
        1.19652         189.036         29.0703         29.0703 
        1.20267         188.968         28.7148         28.7148 
        1.20881         186.962         28.3654         28.3654 
        1.21495         185.943         28.0223         28.0223 
        1.22108         184.664         27.6849         27.6849 
         1.2272         183.399         27.3539         27.3539 
        1.23334         183.144         27.0275         27.0275 
        1.23949         180.764         26.7057         26.7057 
        1.24562         180.111         26.3899         26.3899 
        1.25174         179.211         26.0798         26.0798 
        1.25789          178.03         25.7736         25.7736 
        1.26402         176.023          25.473          25.473 
        1.27014         175.206         25.1778         25.1778 
        1.27628         174.031         24.8865         24.8865 
        1.28244         173.871         24.5992         24.5992 
        1.28858         172.099         24.3168         24.3168 
        1.29471          171.27         24.0395         24.0395 
        1.30084         169.792         23.7667         23.7667 
        1.30697         168.544         23.4978         23.4978 
        1.31312         167.373         23.2326         23.2326 
        1.31925         166.173         22.9724         22.9724 
        1.32537         166.095         22.7164         22.7164 
        1.33151         164.421         22.4634         22.4634 
        1.33765         163.216         22.2144         22.2144 
        1.34378         162.532         21.9697         21.9697 
        1.34992         161.752         21.7285         21.7285 
        1.35606         161.316         21.4903         21.4903 
         1.3622         159.377         21.2562         21.2562 
        1.36833         158.502         21.0261         21.0261 
        1.37445         157.723         20.7995         20.7995 
        1.38059         156.461         20.5756         20.5756 
        1.38675         155.932         20.3544         20.3544 
        1.39288          154.86         20.1374         20.1374 
        1.39901         153.913         19.9236         19.9236 
        1.40515         152.807         19.7125         19.7125 
         1.4113         152.042         19.5044         19.5044 
        1.41742          150.75         19.3002         19.3002 
        1.42355         150.161         19.0985         19.0985 
         1.4297         148.857         18.8991         18.8991 
        1.43585         148.117         18.7026         18.7026 
        1.44198         147.639         18.5097         18.5097 
        1.44809         146.613         18.3198         18.3198 
        1.45423         146.003         18.1319         18.1319 
        1.46036         144.655         17.9469         17.9469 
        1.46649         143.787         17.7645         17.7645 
        1.47263         142.978         17.5845         17.5845 
        1.47877         141.804          17.407          17.407 
        1.48491         140.633         17.2317         17.2317 
        1.49104         140.496         17.0591         17.0591 
        1.49718         139.038         16.8888         16.8888 
        1.50333         138.374         16.7205         16.7205 
        1.50947         137.408         16.5549         16.5549 
         1.5156          136.78         16.3917         16.3917 
        1.52172         136.025         16.2308         16.2308 
        1.52787         134.756         16.0717         16.0717 
          1.534           134.4         15.9149         15.9149 
        1.54013         133.515         15.7603         15.7603 
        1.54627         132.623         15.6075         15.6075 
        1.55241          131.67         15.4568         15.4568 
        1.55855         130.999         15.3082         15.3082 
        1.56467         129.874         15.1619         15.1619 
         1.5708         129.085         15.0172         15.0172 
        1.57695         128.953         14.8742         14.8742 
        1.58308         127.946         14.7333         14.7333 
        1.58922         127.276         14.5941         14.5941 
        1.59535         126.388         14.4568         14.4568 
         1.6015         125.718         14.3211         14.3211 
        1.60764         125.096         14.1872         14.1872 
        1.61376         124.173         14.0553         14.0553 
        1.61989         123.307         13.9251         13.9251 
        1.62604         122.422         13.7961         13.7961 
        1.63218         122.155         13.6689         13.6689 
        1.63831         121.172         13.5436         13.5436 
        1.64444         120.417         13.4198         13.4198 
        1.65059         119.765         13.2972         13.2972 
        1.65673         119.064         13.1763         13.1763 
        1.66285         118.353         13.0573         13.0573 
        1.66898          117.63         12.9396         12.9396 
        1.67512         116.875         12.8232         12.8232 
        1.68127         116.149         12.7081         12.7081 
         1.6874         115.653         12.5947         12.5947 
        1.69353         114.891         12.4827         12.4827 
        1.69967         114.019         12.3719         12.3719 
        1.70581         113.326         12.2624         12.2624 
        1.71193         112.626         12.1546         12.1546 
        1.71806         112.228         12.0479         12.0479 
        1.72421         111.653         11.9423         11.9423 
        1.73035         111.107         11.8381         11.8381 
        1.73649         110.342         11.7351         11.7351 
        1.74262          109.72         11.6335         11.6335 
        1.74876          108.98         11.5329         11.5329 
        1.75489         108.294         11.4338         11.4338 
        1.76101         107.424         11.3358         11.3358 
        1.76715         107.155         11.2389         11.2389 
        1.77329         106.427          11.143          11.143 
        1.77943         105.997         11.0481         11.0481 
        1.78557         105.484         10.9545         10.9545 
        1.79171         104.552         10.8619         10.8619 
        1.79785         104.055         10.7704         10.7704 
        1.80399         103.444           10.68           10.68 
        1.81012          102.94         10.5907         10.5907 
        1.81625         102.435         10.5025         10.5025 
        1.82239          101.79         10.4152         10.4152 
        1.82853         100.977         10.3288         10.3288 
        1.83466         100.529         10.2436         10.2436 
        1.84078         99.9657         10.1594         10.1594 
        1.84692         99.1186          10.076          10.076 
        1.85306         98.9102         9.99341         9.99341 
         1.8592         98.1389          9.9119          9.9119 
        1.86533         97.6766         9.83134         9.83134 
        1.87147           96.97         9.75157         9.75157 
        1.87761         96.1965         9.67266         9.67266 
