# k  (h/Mpc)    Pcb(k)  (Mpc/h)^3    Pcb_linear(k) (Mpc/h)^3    Pcb_NL(k) (Mpc/h)^3   ShotnoiseSubtracted = false
     0.00783031         13781.5         13976.1         13976.1 
       0.013688         16413.5         16269.5         16269.5 
       0.019231         15741.7           15689           15689 
      0.0249154         13614.9         13849.6         13849.6 
      0.0312784         11400.2         11472.5         11472.5 
      0.0375637         9522.07         9476.82         9476.82 
      0.0433917         8058.15         8139.41         8139.41 
      0.0492413         7233.52         7242.83         7242.83 
      0.0555754         6459.76          6600.3          6600.3 
      0.0619321         6141.19         6093.58         6093.58 
       0.067871         5512.61         5607.15         5607.15 
      0.0738098         4980.61         5056.44         5056.44 
      0.0800417          4345.4          4434.9          4434.9 
      0.0862327         3826.37         3843.41         3843.41 
      0.0921407          3422.4         3365.49         3365.49 
      0.0982031         3030.96         2994.71         2994.71 
       0.104506         2846.03         2732.99         2732.99 
       0.110769         2653.97         2563.84         2563.84 
       0.116806         2511.79         2442.31         2442.31 
       0.122832         2394.11         2322.09         2322.09 
       0.129052         2203.35         2174.07         2174.07 
       0.135211         2048.06         2000.09         2000.09 
       0.141259         1914.91         1817.02         1817.02 
       0.147318         1767.77         1642.54         1642.54 
       0.153489         1604.45         1491.97         1491.97 
       0.159709         1510.03         1376.36         1376.36 
       0.165845         1449.29         1295.46         1295.46 
       0.171974         1375.94          1237.6          1237.6 
       0.178125         1316.19         1189.48         1189.48 
       0.184229         1260.64         1140.17         1140.17 
        0.19034         1177.43         1082.76         1082.76 
       0.196428         1142.39         1017.21         1017.21 
       0.202534         1091.04         947.621         947.621 
       0.208729         1026.01         879.729         879.729 
       0.214876         971.263         820.687         820.687 
       0.220989         934.096         772.917         772.917 
       0.227147          892.04         735.398         735.398 
        0.23329         857.164         705.719         705.719 
       0.239377         839.215         680.076         680.076 
       0.245482         783.489          654.58          654.58 
       0.251667         775.149         626.831         626.831 
       0.257832         742.703         596.888         596.888 
       0.263955         714.707         566.054         566.054 
       0.270079         685.183         536.043         536.043 
        0.27624         674.314         508.432         508.432 
       0.282372         646.275         484.544         484.544 
        0.28843         632.081         464.515         464.515 
       0.294538         599.713         447.181         447.181 
       0.300721         595.795         431.426         431.426 
        0.30691          568.61         416.275         416.275 
       0.313033         556.465         401.144         401.144 
       0.319153         540.047         385.602         385.602 
       0.325316         523.519         369.795         369.795 
        0.33145         507.473         354.396         354.396 
       0.337538         498.522         339.983         339.983 
       0.343633         482.892         326.781         326.781 
       0.349808         465.364         314.748         314.748 
       0.355968         460.961         303.939         303.939 
       0.362074         453.018         294.059         294.059 
       0.368217         439.726         284.627         284.627 
       0.374374         420.277          275.38          275.38 
       0.380519         417.985         266.228         266.228 
       0.386598         406.434         257.277         257.277 
       0.392688         403.094         248.504         248.504 
        0.39888         391.386         239.954         239.954 
       0.405048         382.404         231.935         231.935 
       0.411186          375.72         224.482         224.482 
       0.417313         368.168         217.558         217.558 
       0.423458         360.284         211.045         211.045 
       0.429607         354.095         204.835         204.835 
       0.435692         344.758         198.908         198.908 
       0.441815         341.298         193.107         193.107 
       0.447964         333.553         187.409         187.409 
       0.454126         324.886         181.851         181.851 
       0.460267         319.072          176.51          176.51 
       0.466387         315.281         171.414         171.414 
        0.47254         308.438         166.527         166.527 
       0.478662         307.468         161.909         161.909 
       0.484765         296.455         157.531         157.531 
       0.490885         293.208         153.331         153.331 
       0.497035         287.776         149.261         149.261 
       0.503198         282.782         145.312         145.312 
       0.509342         280.382         141.497         141.497 
       0.515458         276.662         137.815         137.815 
       0.521598         269.923         134.233         134.233 
       0.527764         265.884         130.757         130.757 
       0.533884          263.14         127.437         127.437 
           0.54         259.193         124.251         124.251 
       0.546137         257.549         121.181         121.181 
       0.552299         252.011         118.213         118.213 
       0.558452         250.355          115.35          115.35 
       0.564573          246.61         112.593         112.593 
       0.570708         241.377         109.915         109.915 
       0.576825         237.209         107.328         107.328 
       0.582926         234.748         104.829         104.829 
       0.589034         232.312         102.404         102.404 
       0.595184          229.83          100.04          100.04 
       0.601379         226.554         97.7346         97.7346 
       0.607522         222.938         95.5228         95.5228 
       0.613639         221.092         93.3919         93.3919 
       0.619772         216.395         91.3242         91.3242 
       0.625918         215.194         89.3174         89.3174 
       0.632068         211.581         87.3707         87.3707 
       0.638161         210.437         85.4991         85.4991 
         0.6443         206.981         83.6676         83.6676 
       0.650464         204.725         81.8814         81.8814 
       0.656582         202.607         80.1591         80.1591 
       0.662703         201.686         78.4854         78.4854 
       0.668861         198.024         76.8502         76.8502 
       0.675024         195.225         75.2611         75.2611 
       0.681124         194.033         73.7341         73.7341 
       0.687237         191.597         72.2474         72.2474 
       0.693381         188.486         70.7956         70.7956 
       0.699536         187.013         69.3818         69.3818 
       0.705665         185.315          68.013          68.013 
       0.711789         183.237         66.6824         66.6824 
       0.717957         182.352         65.3782         65.3782 
        0.72409          180.02         64.1159         64.1159 
       0.730186         177.606         62.8945         62.8945 
       0.736317         175.669         61.6982         61.6982 
       0.742472         174.479         60.5285         60.5285 
       0.748622         172.871         59.3904         59.3904 
        0.75476         171.141          58.284          58.284 
       0.760888         169.073         57.2076         57.2076 
       0.767043         168.734         56.1542         56.1542 
       0.773185          166.87         55.1298         55.1298 
       0.779291         163.598         54.1368         54.1368 
       0.785407         163.105          53.167          53.167 
       0.791564         161.482          52.215          52.215 
       0.797719         158.992         51.2868         51.2868 
       0.803834         158.118         50.3872         50.3872 
       0.809972         157.104          49.506          49.506 
       0.816124         156.378         48.6441         48.6441 
       0.822261         154.617          47.805          47.805 
       0.828378         153.038         46.9883         46.9883 
       0.834502          152.65           46.19           46.19 
       0.840667         150.238         45.4052         45.4052 
       0.846816         148.806         44.6409         44.6409 
       0.852925         148.213         43.8991         43.8991 
       0.859047         146.662         43.1726         43.1726 
       0.865192         144.932         42.4602         42.4602 
       0.871341         143.781         41.7635         41.7635 
       0.877463         142.495         41.0856         41.0856 
       0.883569         142.183         40.4245         40.4245 
       0.889708         140.577         39.7747         39.7747 
       0.895864         138.908         39.1375         39.1375 
       0.902008         138.141         38.5156         38.5156 
       0.908149         137.599         37.9076         37.9076 
       0.914301         135.731         37.3119         37.3119 
       0.920448         134.807         36.7295         36.7295 
       0.926574         133.843         36.1616         36.1616 
       0.932687         133.681          35.607          35.607 
       0.938823         131.707          35.062          35.062 
       0.944975         130.627         34.5272         34.5272 
       0.951105         129.903         34.0054         34.0054 
       0.957225         128.696         33.4954         33.4954 
       0.963368         126.943         32.9941         32.9941 
       0.969511         126.734         32.5031         32.5031 
       0.975621         125.694         32.0247         32.0247 
       0.981748         125.374         31.5547         31.5547 
       0.987916         123.935         31.0912         31.0912 
        0.99406         122.838         30.6388         30.6388 
        1.00019         122.653         30.1963         30.1963 
        1.00632          121.25         29.7629         29.7629 
        1.01246         120.612         29.3374         29.3374 
        1.01859         119.821         28.9209         28.9209 
        1.02471         118.416         28.5131         28.5131 
        1.03085         117.423         28.1116         28.1116 
        1.03698         116.957         27.7188         27.7188 
        1.04314         115.697         27.3318         27.3318 
        1.04929         115.226         26.9531         26.9531 
        1.05541         114.442         26.5831         26.5831 
        1.06154         113.691         26.2191         26.2191 
        1.06769         113.421         25.8614         25.8614 
        1.07382         112.247         25.5116         25.5116 
        1.07993         111.342          25.169          25.169 
        1.08607          110.63         24.8313         24.8313 
        1.09222         110.312         24.4995         24.4995 
        1.09836         109.294         24.1742         24.1742 
        1.10449         108.174         23.8551         23.8551 
        1.11063         107.411         23.5415         23.5415 
        1.11677         106.971         23.2336         23.2336 
         1.1229         106.116         22.9317         22.9317 
        1.12903          105.49          22.635          22.635 
        1.13518          105.12         22.3433         22.3433 
        1.14131         104.062         22.0568         22.0568 
        1.14745         103.626         21.7756         21.7756 
        1.15359          102.86         21.4992         21.4992 
        1.15973         102.356         21.2275         21.2275 
        1.16584         101.286         20.9617         20.9617 
        1.17197         100.783         20.7001         20.7001 
        1.17811         100.218         20.4422         20.4422 
        1.18424         99.7479         20.1894         20.1894 
        1.19038         99.3536         19.9402         19.9402 
        1.19652         98.4991         19.6952         19.6952 
        1.20267         97.7785         19.4544         19.4544 
        1.20881         97.1178         19.2176         19.2176 
        1.21495         96.4928         18.9852         18.9852 
        1.22108         96.0181         18.7566         18.7566 
         1.2272         95.0873         18.5323         18.5323 
        1.23334          94.684         18.3112         18.3112 
        1.23949         94.0789         18.0931         18.0931 
        1.24562         93.4579         17.8792         17.8792 
        1.25174         92.8468         17.6691         17.6691 
        1.25789         92.4104         17.4617         17.4617 
        1.26402         91.4754          17.258          17.258 
        1.27014         91.1113          17.058          17.058 
        1.27628         90.6726         16.8607         16.8607 
        1.28244         90.1525          16.666          16.666 
        1.28858         89.8378         16.4747         16.4747 
        1.29471         88.9183         16.2868         16.2868 
        1.30084         88.6426          16.102          16.102 
        1.30697         87.8246         15.9198         15.9198 
        1.31312         87.4485         15.7402         15.7402 
        1.31925          86.769         15.5639         15.5639 
        1.32537         86.3562         15.3904         15.3904 
        1.33151         85.6078          15.219          15.219 
        1.33765          85.269         15.0503         15.0503 
        1.34378         84.8297         14.8845         14.8845 
        1.34992         84.5109         14.7211         14.7211 
        1.35606         83.9066         14.5598         14.5598 
         1.3622         83.0966         14.4011         14.4011 
        1.36833         82.8599         14.2452         14.2452 
        1.37445         82.3481         14.0917         14.0917 
        1.38059         81.7374           13.94           13.94 
        1.38675         81.2408         13.7902         13.7902 
        1.39288         81.0239         13.6431         13.6431 
        1.39901         80.4794         13.4983         13.4983 
        1.40515         79.8394         13.3552         13.3552 
         1.4113         79.4627         13.2143         13.2143 
        1.41742         79.1554         13.0759         13.0759 
        1.42355         78.5604         12.9393         12.9393 
         1.4297         78.2452         12.8042         12.8042 
        1.43585         77.5718         12.6711         12.6711 
        1.44198         77.1919         12.5403         12.5403 
        1.44809         76.8021         12.4117         12.4117 
        1.45423         76.4187         12.2844         12.2844 
        1.46036         76.0656         12.1591         12.1591 
        1.46649         75.4374         12.0355         12.0355 
        1.47263         74.9355         11.9135         11.9135 
        1.47877         74.8168         11.7933         11.7933 
        1.48491          74.099         11.6745         11.6745 
        1.49104         73.9487         11.5576         11.5576 
        1.49718         73.4319         11.4422         11.4422 
        1.50333         73.0428         11.3282         11.3282 
        1.50947         72.6052          11.216          11.216 
         1.5156         72.1999         11.1055         11.1055 
        1.52172         71.7105         10.9964         10.9964 
        1.52787         71.4542         10.8886         10.8886 
          1.534         70.8976         10.7824         10.7824 
        1.54013         70.5269         10.6777         10.6777 
        1.54627         70.2899         10.5741         10.5741 
        1.55241         69.7342          10.472          10.472 
        1.55855         69.4528         10.3713         10.3713 
        1.56467         69.1453         10.2723         10.2723 
         1.5708         68.6718         10.1742         10.1742 
        1.57695         68.6061         10.0773         10.0773 
        1.58308         67.9121         9.98184         9.98184 
        1.58922          67.658         9.88757         9.88757 
        1.59535         67.3837         9.79455         9.79455 
         1.6015          66.797         9.70259         9.70259 
        1.60764          66.545         9.61186         9.61186 
        1.61376         66.2644         9.52253         9.52253 
        1.61989         65.8019         9.43426         9.43426 
        1.62604          65.585         9.34691         9.34691 
        1.63218         65.2528         9.26072         9.26072 
        1.63831         64.5026         9.17581         9.17581 
        1.64444         64.3655         9.09193         9.09193 
        1.65059         64.0671          9.0089          9.0089 
        1.65673         63.5599         8.92699         8.92699 
        1.66285         63.2994         8.84633         8.84633 
        1.66898         63.0845         8.76664         8.76664 
        1.67512         62.5392         8.68777         8.68777 
        1.68127         62.3331          8.6098          8.6098 
         1.6874         61.9486         8.53295         8.53295 
        1.69353         61.5895         8.45709         8.45709 
        1.69967         61.2716         8.38197         8.38197 
        1.70581         61.0485          8.3078          8.3078 
        1.71193           60.79          8.2348          8.2348 
        1.71806         60.3283         8.16251         8.16251 
        1.72421          59.975         8.09096         8.09096 
        1.73035         59.7298         8.02034         8.02034 
        1.73649         59.4681         7.95057         7.95057 
        1.74262         59.0824          7.8817          7.8817 
        1.74876         58.8317         7.81358         7.81358 
        1.75489         58.4344         7.74642         7.74642 
        1.76101         58.2633         7.68005         7.68005 
        1.76715          57.787         7.61438         7.61438 
        1.77329         57.5371         7.54938         7.54938 
        1.77943         57.1732         7.48512         7.48512 
        1.78557         57.0237          7.4217          7.4217 
        1.79171         56.6052         7.35899         7.35899 
        1.79785         56.2571           7.297           7.297 
        1.80399         56.1565         7.23573         7.23573 
        1.81012         55.8557         7.17525         7.17525 
        1.81625         55.4301         7.11548         7.11548 
        1.82239         55.2098          7.0563          7.0563 
        1.82853         54.9134         6.99782         6.99782 
        1.83466         54.6624         6.94006         6.94006 
        1.84078         54.3135         6.88301         6.88301 
        1.84692         53.9955          6.8265          6.8265 
        1.85306         53.7422         6.77056         6.77056 
         1.8592         53.4803         6.71534         6.71534 
        1.86533         53.1783         6.66076         6.66076 
        1.87147         52.7795         6.60672         6.60672 
