# k  (h/Mpc)    Pcb(k)  (Mpc/h)^3    Pcb_linear(k) (Mpc/h)^3    Pcb_NL(k) (Mpc/h)^3   ShotnoiseSubtracted = false
     0.00783031         4537.36         4590.74         4590.74 
       0.013688         5362.45         5345.98         5345.98 
       0.019231         5166.77         5155.98         5155.98 
      0.0249154         4511.17         4551.88         4551.88 
      0.0312784         3765.99         3770.82         3770.82 
      0.0375637         3130.37         3114.96         3114.96 
      0.0433917         2667.19         2675.42         2675.42 
      0.0492413         2383.92         2380.75         2380.75 
      0.0555754         2149.46         2169.58         2169.58 
      0.0619321         2017.93         2003.03         2003.03 
       0.067871         1831.14         1843.15         1843.15 
      0.0738098         1651.39         1662.13         1662.13 
      0.0800417         1443.63         1457.82         1457.82 
      0.0862327         1261.51          1263.4          1263.4 
      0.0921407         1114.87          1106.3          1106.3 
      0.0982031         987.325         984.421         984.421 
       0.104506          915.92         898.391         898.391 
       0.110769         856.038         842.788         842.788 
       0.116806         809.069          802.84          802.84 
       0.122832          773.29         763.322         763.322 
       0.129052         716.548         714.665         714.665 
       0.135211         661.636         657.475         657.475 
       0.141259         609.626         597.297         597.297 
       0.147318         556.916         539.941         539.941 
       0.153489         504.584         490.444         490.444 
       0.159709         469.531         452.441         452.441 
       0.165845         447.246          425.85          425.85 
       0.171974         422.824         406.827         406.827 
       0.178125          406.76         391.012         391.012 
       0.184229         390.841         374.802         374.802 
        0.19034         364.742         355.928         355.928 
       0.196428         349.635         334.382         334.382 
       0.202534         331.752         311.506         311.506 
       0.208729         308.234         289.188         289.188 
       0.214876         287.448          269.78          269.78 
       0.220989         275.154         254.077         254.077 
       0.227147         259.906         241.743         241.743 
        0.23329         249.697         231.987         231.987 
       0.239377          242.62         223.558         223.558 
       0.245482         228.719         215.177         215.177 
       0.251667          223.41         206.055         206.055 
       0.257832         214.126         196.212         196.212 
       0.263955         204.016         186.076         186.076 
       0.270079         194.548         176.211         176.211 
        0.27624         188.546         167.134         167.134 
       0.282372         180.585         159.282         159.282 
        0.28843         173.069         152.698         152.698 
       0.294538         165.837             147             147 
       0.300721         162.766         141.821         141.821 
        0.30691         155.401          136.84          136.84 
       0.313033         150.647         131.866         131.866 
       0.319153         143.523         126.757         126.757 
       0.325316         140.343         121.561         121.561 
        0.33145          134.44         116.499         116.499 
       0.337538         131.144         111.761         111.761 
       0.343633          126.15         107.421         107.421 
       0.349808         122.026         103.466         103.466 
       0.355968         119.108         99.9124         99.9124 
       0.362074         115.401         96.6647         96.6647 
       0.368217         111.811         93.5641         93.5641 
       0.374374         108.337         90.5243         90.5243 
       0.380519         105.697          87.516          87.516 
       0.386598         102.583         84.5736         84.5736 
       0.392688         100.363         81.6897         81.6897 
        0.39888         97.3737         78.8792         78.8792 
       0.405048         94.7213          76.243          76.243 
       0.411186         92.3564         73.7929         73.7929 
       0.417313          89.703         71.5171         71.5171 
       0.423458         87.3873         69.3759         69.3759 
       0.429607         85.0763         67.3345         67.3345 
       0.435692         82.2335         65.3863         65.3863 
       0.441815         81.1941         63.4793         63.4793 
       0.447964         79.5804         61.6061         61.6061 
       0.454126         75.9495         59.7793         59.7793 
       0.460267         74.8636         58.0235         58.0235 
       0.466387         73.1352         56.3482         56.3482 
        0.47254         71.6398         54.7419         54.7419 
       0.478662         70.5305         53.2237         53.2237 
       0.484765         68.3868         51.7845         51.7845 
       0.490885         66.9629         50.4037         50.4037 
       0.497035         65.9534         49.0658         49.0658 
       0.503198         64.0233         47.7678         47.7678 
       0.509342         62.4871         46.5136         46.5136 
       0.515458         61.2953         45.3032         45.3032 
       0.521598           60.29         44.1257         44.1257 
       0.527764         59.1261         42.9833         42.9833 
       0.533884         58.0942         41.8918         41.8918 
           0.54         56.7159         40.8446         40.8446 
       0.546137         55.9535         39.8354         39.8354 
       0.552299         55.0184         38.8596         38.8596 
       0.558452         53.4631         37.9187         37.9187 
       0.564573          52.472         37.0122         37.0122 
       0.570708         51.6848         36.1319         36.1319 
       0.576825         50.6639         35.2815         35.2815 
       0.582926         49.5429         34.4599         34.4599 
       0.589034         48.3832         33.6629         33.6629 
       0.595184         47.7181         32.8856         32.8856 
       0.601379         46.9218         32.1279         32.1279 
       0.607522         45.7889         31.4008         31.4008 
       0.613639         45.5172         30.7004         30.7004 
       0.619772         44.3937         30.0207         30.0207 
       0.625918           43.94          29.361          29.361 
       0.632068         43.3079          28.721          28.721 
       0.638161         42.5173         28.1058         28.1058 
         0.6443          41.771         27.5037         27.5037 
       0.650464         41.0578         26.9166         26.9166 
       0.656582         40.6273         26.3504         26.3504 
       0.662703         39.7729         25.8002         25.8002 
       0.668861         39.1702         25.2627         25.2627 
       0.675024         38.5269         24.7403         24.7403 
       0.681124           37.87         24.2383         24.2383 
       0.687237         37.1409         23.7496         23.7496 
       0.693381         36.8151         23.2724         23.2724 
       0.699536         36.0332         22.8076         22.8076 
       0.705665         36.0545         22.3576         22.3576 
       0.711789         35.0447         21.9202         21.9202 
       0.717957         34.6312         21.4915         21.4915 
        0.72409         34.1483         21.0766         21.0766 
       0.730186         33.5732         20.6751         20.6751 
       0.736317         33.3146         20.2818         20.2818 
       0.742472         32.7211         19.8973         19.8973 
       0.748622         32.3768         19.5232         19.5232 
        0.75476         31.8881         19.1595         19.1595 
       0.760888         31.3513         18.8056         18.8056 
       0.767043         30.9648         18.4594         18.4594 
       0.773185         30.4855         18.1226         18.1226 
       0.779291         30.3064         17.7962         17.7962 
       0.785407         29.9987         17.4774         17.4774 
       0.791564          29.442         17.1644         17.1644 
       0.797719         28.8032         16.8593         16.8593 
       0.803834           28.73         16.5636         16.5636 
       0.809972         28.2996         16.2739         16.2739 
       0.816124         27.7878         15.9906         15.9906 
       0.822261         27.5386         15.7148         15.7148 
       0.828378         27.3376         15.4463         15.4463 
       0.834502         26.9831         15.1839         15.1839 
       0.840667         26.6401         14.9259         14.9259 
       0.846816         26.1853         14.6746         14.6746 
       0.852925         25.9519         14.4308         14.4308 
       0.859047         25.6109          14.192          14.192 
       0.865192         25.3267         13.9578         13.9578 
       0.871341         25.1788         13.7288         13.7288 
       0.877463         24.6713         13.5059         13.5059 
       0.883569         24.4057         13.2886         13.2886 
       0.889708         24.1418          13.075          13.075 
       0.895864         23.8865         12.8655         12.8655 
       0.902008         23.6719         12.6611         12.6611 
       0.908149         23.4094         12.4612         12.4612 
       0.914301         23.2979         12.2654         12.2654 
       0.920448           22.88         12.0739         12.0739 
       0.926574         22.6572         11.8873         11.8873 
       0.932687         22.3946         11.7049         11.7049 
       0.938823         22.0787         11.5258         11.5258 
       0.944975         21.9238           11.35           11.35 
       0.951105         21.6849         11.1785         11.1785 
       0.957225         21.4151         11.0108         11.0108 
       0.963368         21.3355          10.846          10.846 
       0.969511         21.0835         10.6846         10.6846 
       0.975621         20.9126         10.5274         10.5274 
       0.981748         20.5853         10.3729         10.3729 
       0.987916         20.4297         10.2205         10.2205 
        0.99406         20.2373         10.0718         10.0718 
        1.00019         19.9714         9.92631         9.92631 
        1.00632         19.8413         9.78385         9.78385 
        1.01246         19.7204         9.64399         9.64399 
        1.01859         19.3748         9.50708         9.50708 
        1.02471         19.3086           9.373           9.373 
        1.03085         19.1347         9.24104         9.24104 
        1.03698         18.8008          9.1119          9.1119 
        1.04314         18.6835         8.98468         8.98468 
        1.04929         18.4871         8.86019         8.86019 
        1.05541         18.2742         8.73855         8.73855 
        1.06154         18.1889         8.61891         8.61891 
        1.06769          18.035         8.50132         8.50132 
        1.07382          17.856         8.38632         8.38632 
        1.07993         17.7344         8.27371         8.27371 
        1.08607         17.4823         8.16271         8.16271 
        1.09222         17.3981         8.05363         8.05363 
        1.09836         17.1877         7.94668         7.94668 
        1.10449         17.0647          7.8418          7.8418 
        1.11063         16.8276          7.7387          7.7387 
        1.11677          16.768         7.63749         7.63749 
         1.1229         16.6699         7.53826         7.53826 
        1.12903         16.4424         7.44072         7.44072 
        1.13518         16.2897         7.34482         7.34482 
        1.14131         16.2276         7.25066         7.25066 
        1.14745          16.053         7.15821         7.15821 
        1.15359         15.9807         7.06736         7.06736 
        1.15973         15.7784         6.97805         6.97805 
        1.16584          15.587         6.89068         6.89068 
        1.17197         15.5925         6.80468         6.80468 
        1.17811          15.369         6.71989         6.71989 
        1.18424         15.2405         6.63679         6.63679 
        1.19038          15.176         6.55485         6.55485 
        1.19652         15.0644         6.47434         6.47434 
        1.20267         14.9303         6.39517         6.39517 
        1.20881         14.8004         6.31734         6.31734 
        1.21495          14.693         6.24093         6.24093 
        1.22108         14.5654         6.16579         6.16579 
         1.2272         14.4073         6.09207         6.09207 
        1.23334         14.3466         6.01938         6.01938 
        1.23949         14.2018         5.94769         5.94769 
        1.24562         14.1228         5.87738         5.87738 
        1.25174         14.0392          5.8083          5.8083 
        1.25789         13.8995         5.74012         5.74012 
        1.26402         13.8522         5.67316         5.67316 
        1.27014         13.6727         5.60743         5.60743 
        1.27628         13.5615         5.54254         5.54254 
        1.28244         13.4907         5.47855         5.47855 
        1.28858         13.4378         5.41566         5.41566 
        1.29471         13.3123          5.3539          5.3539 
        1.30084         13.1967         5.29316         5.29316 
        1.30697         13.0923         5.23326         5.23326 
        1.31312         12.9603         5.17421         5.17421 
        1.31925         12.8778         5.11625         5.11625 
        1.32537         12.8308         5.05924         5.05924 
        1.33151         12.7111          5.0029          5.0029 
        1.33765         12.6475         4.94744         4.94744 
        1.34378         12.5605         4.89293         4.89293 
        1.34992         12.4089         4.83921         4.83921 
        1.35606         12.3847         4.78618         4.78618 
         1.3622          12.297         4.73403         4.73403 
        1.36833         12.1688         4.68279         4.68279 
        1.37445          12.144         4.63233         4.63233 
        1.38059         12.0267         4.58245         4.58245 
        1.38675         11.8923          4.5332          4.5332 
        1.39288         11.8652         4.48486         4.48486 
        1.39901          11.771         4.43725         4.43725 
        1.40515         11.7133         4.39022         4.39022 
         1.4113         11.6075         4.34389         4.34389 
        1.41742         11.5094         4.29841         4.29841 
        1.42355         11.4628         4.25349         4.25349 
         1.4297         11.4119         4.20908         4.20908 
        1.43585          11.348         4.16532         4.16532 
        1.44198         11.2387         4.12234         4.12234 
        1.44809         11.1659         4.08006         4.08006 
        1.45423         11.0971         4.03821         4.03821 
        1.46036         11.0351         3.99702         3.99702 
        1.46649         10.9738         3.95639         3.95639 
        1.47263         10.8712         3.91629         3.91629 
        1.47877         10.8159         3.87676         3.87676 
        1.48491         10.7693         3.83772         3.83772 
        1.49104         10.7163         3.79929         3.79929 
        1.49718          10.618         3.76136         3.76136 
        1.50333          10.562         3.72388         3.72388 
        1.50947         10.5022         3.68699         3.68699 
         1.5156         10.4132         3.65066         3.65066 
        1.52172         10.3553         3.61481         3.61481 
        1.52787         10.3112         3.57937         3.57937 
          1.534         10.2271         3.54445         3.54445 
        1.54013         10.1401         3.51003         3.51003 
        1.54627         10.0912           3.476           3.476 
        1.55241         10.0368         3.44242         3.44242 
        1.55855         9.97066         3.40933         3.40933 
        1.56467         9.91155         3.37676         3.37676 
         1.5708         9.89792         3.34453         3.34453 
        1.57695          9.7945         3.31267         3.31267 
        1.58308         9.76312          3.2813          3.2813 
        1.58922         9.70268         3.25031         3.25031 
        1.59535         9.63924         3.21973         3.21973 
         1.6015         9.57207          3.1895          3.1895 
        1.60764         9.52798         3.15967         3.15967 
        1.61376         9.47145         3.13031         3.13031 
        1.61989         9.39412         3.10129         3.10129 
        1.62604         9.38105         3.07258         3.07258 
        1.63218         9.31229         3.04425         3.04425 
        1.63831         9.27189         3.01633         3.01633 
        1.64444         9.18455         2.98876         2.98876 
        1.65059         9.13873         2.96147         2.96147 
        1.65673         9.11657         2.93454         2.93454 
        1.66285         9.02498         2.90802         2.90802 
        1.66898         9.01074         2.88183         2.88183 
        1.67512         8.96267          2.8559          2.8559 
        1.68127         8.91167         2.83027         2.83027 
         1.6874         8.84686         2.80501         2.80501 
        1.69353         8.78571         2.78007         2.78007 
        1.69967         8.75169         2.75538         2.75538 
        1.70581         8.71238         2.73099         2.73099 
        1.71193         8.64798           2.707           2.707 
        1.71806         8.61026         2.68324         2.68324 
        1.72421         8.56074         2.65971         2.65971 
        1.73035         8.51385          2.6365          2.6365 
        1.73649          8.4772         2.61357         2.61357 
        1.74262         8.44906         2.59092         2.59092 
        1.74876         8.39553         2.56853         2.56853 
        1.75489         8.35163         2.54645         2.54645 
        1.76101         8.28364         2.52464         2.52464 
        1.76715         8.27658         2.50305         2.50305 
        1.77329         8.19929         2.48168         2.48168 
        1.77943         8.16409         2.46056         2.46056 
        1.78557         8.13658         2.43971         2.43971 
        1.79171         8.10706          2.4191          2.4191 
        1.79785          8.0287         2.39872         2.39872 
        1.80399         8.00231         2.37858         2.37858 
        1.81012         7.97986          2.3587          2.3587 
        1.81625         7.92249         2.33905         2.33905 
        1.82239         7.88393         2.31959         2.31959 
        1.82853         7.82719         2.30037         2.30037 
        1.83466         7.78469         2.28138         2.28138 
        1.84078         7.74548         2.26263         2.26263 
        1.84692           7.727         2.24405         2.24405 
        1.85306         7.67292         2.22567         2.22567 
         1.8592         7.64291         2.20751         2.20751 
        1.86533         7.61211         2.18957         2.18957 
        1.87147         7.56931          2.1718          2.1718 
