# k  (h/Mpc)    P(k)  (Mpc/h)^3    P_linear(k)  (Mpc/h)^3     P_NL(k)  ShotnoiseSubtracted = false
     0.00783031         9995.21           10128           10128 
       0.013688         11873.5         11791.3         11791.3 
       0.019231           11406           11371           11371 
      0.0249154         9897.35         10038.2         10038.2 
      0.0312784         8279.69          8315.4          8315.4 
      0.0375637         6903.85         6868.95         6868.95 
      0.0433917         5856.28         5899.62         5899.62 
      0.0492413         5249.19         5249.78         5249.78 
      0.0555754         4703.87         4784.08         4784.08 
      0.0619321          4453.6         4416.81         4416.81 
       0.067871         4012.52         4064.24         4064.24 
      0.0738098          3622.6         3665.07         3665.07 
      0.0800417          3162.4         3214.56         3214.56 
      0.0862327          2777.1         2785.83         2785.83 
      0.0921407         2473.03         2439.43         2439.43 
      0.0982031          2189.2         2170.67         2170.67 
       0.104506         2047.86         1980.97         1980.97 
       0.110769         1911.06         1858.37         1858.37 
       0.116806         1806.67         1770.28         1770.28 
       0.122832         1724.69         1683.14         1683.14 
       0.129052         1590.54         1575.85         1575.85 
       0.135211         1475.19         1449.74         1449.74 
       0.141259         1372.23         1317.05         1317.05 
       0.147318          1261.8         1190.57         1190.57 
       0.153489         1144.12         1081.43         1081.43 
       0.159709         1073.08         997.638         997.638 
       0.165845         1026.99         939.002         939.002 
       0.171974          973.17         897.057         897.057 
       0.178125          933.05         862.184         862.184 
       0.184229          895.24          826.44          826.44 
        0.19034         833.761         784.824         784.824 
       0.196428         806.944         737.316         737.316 
       0.202534         769.794         686.873         686.873 
       0.208729         720.632         637.663         637.663 
       0.214876         677.831         594.867         594.867 
       0.220989         651.173         560.241         560.241 
       0.227147         619.246         533.044         533.044 
        0.23329         595.113         511.533         511.533 
       0.239377         581.268         492.945         492.945 
       0.245482         542.971         474.464         474.464 
       0.251667         535.404         454.351         454.351 
       0.257832         513.764         432.648         432.648 
       0.263955         492.838         410.299         410.299 
       0.270079         471.499         388.546         388.546 
        0.27624         462.262         368.531         368.531 
       0.282372         443.199         351.216         351.216 
        0.28843         429.701         336.699         336.699 
       0.294538         408.913         324.134         324.134 
       0.300721         405.153         312.715         312.715 
        0.30691         386.124         301.732         301.732 
       0.313033         377.102         290.765         290.765 
       0.319153         363.359         279.499         279.499 
       0.325316         352.983         268.043         268.043 
        0.33145         340.726          256.88          256.88 
       0.337538         334.729         246.433         246.433 
       0.343633         323.091         236.864         236.864 
       0.349808         311.839         228.142         228.142 
       0.355968         307.593         220.307         220.307 
       0.362074          300.59         213.146         213.146 
       0.368217         291.928         206.308         206.308 
       0.374374         280.146         199.606         199.606 
       0.380519          276.71         192.973         192.973 
       0.386598         269.186         186.485         186.485 
       0.392688         265.644         180.126         180.126 
        0.39888         258.325         173.928         173.928 
       0.405048         251.581         168.116         168.116 
       0.411186         246.253         162.713         162.713 
       0.417313         241.297         157.695         157.695 
       0.423458         235.937         152.974         152.974 
       0.429607          230.88         148.473         148.473 
       0.435692         224.184         144.177         144.177 
       0.441815         222.006         139.972         139.972 
       0.447964         217.194         135.841         135.841 
       0.454126         209.017         131.813         131.813 
       0.460267         206.121         127.942         127.942 
       0.466387         203.605         124.248         124.248 
        0.47254         198.517         120.706         120.706 
       0.478662         197.555         117.358         117.358 
       0.484765         190.876         114.185         114.185 
       0.490885         188.143          111.14          111.14 
       0.497035         185.109          108.19          108.19 
       0.503198         180.512         105.328         105.328 
       0.509342         178.292         102.562         102.562 
       0.515458         175.679         99.8936         99.8936 
       0.521598         172.179         97.2972         97.2972 
       0.527764         169.679         94.7782         94.7782 
       0.533884         167.228         92.3711         92.3711 
           0.54          164.34         90.0623         90.0623 
       0.546137         162.911         87.8371         87.8371 
       0.552299         159.632         85.6853         85.6853 
       0.558452         157.575         83.6106         83.6106 
       0.564573         154.969         81.6118         81.6118 
       0.570708         151.788         79.6707         79.6707 
       0.576825         149.732         77.7957         77.7957 
       0.582926         147.179          75.984          75.984 
       0.589034         145.332         74.2265         74.2265 
       0.595184         143.406         72.5127         72.5127 
       0.601379          141.61          70.842          70.842 
       0.607522         138.684         69.2388         69.2388 
       0.613639         137.633         67.6942         67.6942 
       0.619772         134.748         66.1955         66.1955 
       0.625918          133.24         64.7408         64.7408 
       0.632068         131.563         63.3298         63.3298 
       0.638161         130.372         61.9732         61.9732 
         0.6443         128.508         60.6457         60.6457 
       0.650464         127.048          59.351          59.351 
       0.656582         125.174         58.1026         58.1026 
       0.662703         123.751         56.8894         56.8894 
       0.668861         121.709         55.7042         55.7042 
       0.675024         120.065         54.5523         54.5523 
       0.681124         119.278         53.4454         53.4454 
       0.687237         117.145         52.3679         52.3679 
       0.693381         115.396         51.3155         51.3155 
       0.699536         114.567         50.2907         50.2907 
       0.705665          114.15         49.2986         49.2986 
       0.711789         111.626         48.3341         48.3341 
       0.717957         111.218         47.3888         47.3888 
        0.72409         109.428         46.4738         46.4738 
       0.730186         107.707         45.5885         45.5885 
       0.736317         107.022         44.7213         44.7213 
       0.742472         106.123         43.8735         43.8735 
       0.748622         104.978         43.0485         43.0485 
        0.75476         103.882         42.2466         42.2466 
       0.760888         102.439         41.4664         41.4664 
       0.767043          101.87         40.7029         40.7029 
       0.773185         100.669         39.9603         39.9603 
       0.779291         99.0961         39.2405         39.2405 
       0.785407         98.5391         38.5376         38.5376 
       0.791564         97.5831         37.8475         37.8475 
       0.797719         95.8502         37.1748         37.1748 
       0.803834         95.3927         36.5227         36.5227 
       0.809972         94.1382          35.884          35.884 
       0.816124         93.7372         35.2592         35.2592 
       0.822261         92.7454          34.651          34.651 
       0.828378         91.8738          34.059          34.059 
       0.834502          91.369         33.4804         33.4804 
       0.840667         89.9851         32.9115         32.9115 
       0.846816         88.9408         32.3575         32.3575 
       0.852925         88.3862         31.8198         31.8198 
       0.859047          87.195         31.2932         31.2932 
       0.865192         86.5734         30.7769         30.7769 
       0.871341          85.838         30.2719         30.2719 
       0.877463         84.7485         29.7805         29.7805 
       0.883569         84.3582         29.3013         29.3013 
       0.889708         83.6002         28.8303         28.8303 
       0.895864          82.792         28.3684         28.3684 
       0.902008         82.1204         27.9177         27.9177 
       0.908149         81.5553          27.477          27.477 
       0.914301         80.6543         27.0452         27.0452 
       0.920448         80.0624          26.623          26.623 
       0.926574           79.34         26.2114         26.2114 
       0.932687         79.2027         25.8094         25.8094 
       0.938823         77.8591         25.4143         25.4143 
       0.944975         77.1108         25.0267         25.0267 
       0.951105         76.6257         24.6485         24.6485 
       0.957225           75.78         24.2788         24.2788 
       0.963368         75.2725         23.9155         23.9155 
       0.969511         75.0137         23.5595         23.5595 
       0.975621         74.5197         23.2128         23.2128 
       0.981748         73.8186         22.8721         22.8721 
       0.987916         73.0213         22.5362         22.5362 
        0.99406         72.5251         22.2082         22.2082 
        1.00019         72.0017         21.8875         21.8875 
        1.00632          71.434         21.5734         21.5734 
        1.01246         70.9535          21.265          21.265 
        1.01859         69.9797         20.9631         20.9631 
        1.02471         69.7882         20.6674         20.6674 
        1.03085         69.1198         20.3765         20.3765 
        1.03698         68.7304         20.0917         20.0917 
        1.04314         68.0624         19.8112         19.8112 
        1.04929         67.5997         19.5367         19.5367 
        1.05541         66.9574         19.2685         19.2685 
        1.06154         66.7729         19.0047         19.0047 
        1.06769         66.3009         18.7454         18.7454 
        1.07382         65.9256         18.4918         18.4918 
        1.07993         65.4048         18.2435         18.2435 
        1.08607         64.8675         17.9988         17.9988 
        1.09222         64.5703         17.7582         17.7582 
        1.09836          63.989         17.5224         17.5224 
        1.10449          63.614         17.2911         17.2911 
        1.11063          63.032         17.0638         17.0638 
        1.11677         62.7226         16.8406         16.8406 
         1.1229         62.0555         16.6218         16.6218 
        1.12903         61.4034         16.4068         16.4068 
        1.13518         61.5754         16.1953         16.1953 
        1.14131         61.1187         15.9877         15.9877 
        1.14745         60.4214         15.7838         15.7838 
        1.15359         60.1583         15.5835         15.5835 
        1.15973         59.6809         15.3866         15.3866 
        1.16584         59.2637         15.1939         15.1939 
        1.17197         58.9037         15.0043         15.0043 
        1.17811         58.5623         14.8173         14.8173 
        1.18424         58.1028         14.6341         14.6341 
        1.19038         57.7122         14.4534         14.4534 
        1.19652          57.452         14.2759         14.2759 
        1.20267         56.8576         14.1013         14.1013 
        1.20881         56.6184         13.9297         13.9297 
        1.21495         56.1415         13.7612         13.7612 
        1.22108         55.9333         13.5956         13.5956 
         1.2272         55.2923          13.433          13.433 
        1.23334         55.0905         13.2727         13.2727 
        1.23949         54.8667         13.1146         13.1146 
        1.24562         54.3686         12.9596         12.9596 
        1.25174         54.1171         12.8073         12.8073 
        1.25789         53.8927          12.657          12.657 
        1.26402         53.5187         12.5093         12.5093 
        1.27014          52.958         12.3644         12.3644 
        1.27628         52.7335         12.2213         12.2213 
        1.28244         52.3473         12.0802         12.0802 
        1.28858         52.1565         11.9415         11.9415 
        1.29471         51.9258         11.8053         11.8053 
        1.30084         51.5503         11.6714         11.6714 
        1.30697         51.1789         11.5393         11.5393 
        1.31312         50.8546         11.4091         11.4091 
        1.31925         50.6195         11.2813         11.2813 
        1.32537         50.3758         11.1556         11.1556 
        1.33151         49.8563         11.0314         11.0314 
        1.33765         49.6718         10.9091         10.9091 
        1.34378         49.3437         10.7889         10.7889 
        1.34992         49.1074         10.6704         10.6704 
        1.35606         48.8167         10.5535         10.5535 
         1.3622         48.3819         10.4385         10.4385 
        1.36833         48.2019         10.3255         10.3255 
        1.37445         47.9359         10.2143         10.2143 
        1.38059         47.5829         10.1043         10.1043 
        1.38675         47.3168         9.99568         9.99568 
        1.39288         47.0437          9.8891          9.8891 
        1.39901         46.8465         9.78411         9.78411 
        1.40515          46.533         9.68042         9.68042 
         1.4113         46.3334         9.57827         9.57827 
        1.41742         46.1876         9.47797         9.47797 
        1.42355         45.7247         9.37893         9.37893 
         1.4297         45.5663           9.281           9.281 
        1.43585           45.27         9.18451         9.18451 
        1.44198         44.9584         9.08975         9.08975 
        1.44809         44.8117         8.99651         8.99651 
        1.45423         44.5534         8.90423         8.90423 
        1.46036         44.3518         8.81341         8.81341 
        1.46649          44.105         8.72382         8.72382 
        1.47263          43.749          8.6354          8.6354 
        1.47877         43.5567         8.54825         8.54825 
        1.48491         43.4885         8.46215         8.46215 
        1.49104         43.1106         8.37742         8.37742 
        1.49718         42.6878         8.29378         8.29378 
        1.50333         42.6311         8.21115         8.21115 
        1.50947         42.4364         8.12981         8.12981 
         1.5156         42.1167         8.04968         8.04968 
        1.52172         41.9763         7.97064         7.97064 
        1.52787         41.8509          7.8925          7.8925 
          1.534         41.5149          7.8155          7.8155 
        1.54013         41.2836          7.7396          7.7396 
        1.54627         41.1412         7.66457         7.66457 
        1.55241         40.7412         7.59052         7.59052 
        1.55855         40.5851         7.51756         7.51756 
        1.56467         40.2484         7.44575         7.44575 
         1.5708         40.2946         7.37468         7.37468 
        1.57695         40.0348         7.30442         7.30442 
        1.58308         39.7297         7.23525         7.23525 
        1.58922         39.6797         7.16691         7.16691 
        1.59535         39.5134         7.09949         7.09949 
         1.6015         39.1242         7.03283         7.03283 
        1.60764         38.9305         6.96706         6.96706 
        1.61376         38.7562         6.90232         6.90232 
        1.61989         38.5147         6.83834         6.83834 
        1.62604         38.3742         6.77502         6.77502 
        1.63218         38.3065         6.71255         6.71255 
        1.63831         38.0064           6.651           6.651 
        1.64444         37.7945          6.5902          6.5902 
        1.65059         37.5843         6.53002         6.53002 
        1.65673         37.3909         6.47065         6.47065 
        1.66285         37.1495         6.41218         6.41218 
        1.66898         37.0131         6.35442         6.35442 
        1.67512         36.7766         6.29725         6.29725 
        1.68127         36.5695         6.24073         6.24073 
         1.6874         36.4452         6.18503         6.18503 
        1.69353         36.2273         6.13004         6.13004 
        1.69967         36.0706         6.07559         6.07559 
        1.70581         35.9859         6.02183         6.02183 
        1.71193         35.7822         5.96892         5.96892 
        1.71806         35.4351         5.91652         5.91652 
        1.72421         35.3349         5.86466         5.86466 
        1.73035         35.1728         5.81347         5.81347 
        1.73649         34.8567          5.7629          5.7629 
        1.74262         34.8176         5.71297         5.71297 
        1.74876         34.6841          5.6636          5.6636 
        1.75489         34.4748         5.61492         5.61492 
        1.76101         34.3149         5.56682         5.56682 
        1.76715         34.1171         5.51921         5.51921 
        1.77329          33.943          5.4721          5.4721 
        1.77943         33.7986         5.42552         5.42552 
        1.78557         33.6294         5.37955         5.37955 
        1.79171         33.4454          5.3341          5.3341 
        1.79785         33.2874         5.28916         5.28916 
        1.80399         33.2015         5.24475         5.24475 
        1.81012          32.961         5.20091         5.20091 
        1.81625         32.7531         5.15759         5.15759 
        1.82239         32.6695         5.11469         5.11469 
        1.82853         32.4283          5.0723          5.0723 
        1.83466         32.2971         5.03044         5.03044 
        1.84078         32.0621         4.98908         4.98908 
        1.84692         31.9463         4.94813         4.94813 
        1.85306         31.7669         4.90758         4.90758 
         1.8592         31.5877         4.86755         4.86755 
        1.86533         31.4895         4.82799         4.82799 
        1.87147         31.3921         4.78882         4.78882 
        1.87761         31.2382         4.75007         4.75007 
