# k  (h/Mpc)    Pcb(k)  (Mpc/h)^3    Pcb_linear(k) (Mpc/h)^3    Pcb_NL(k) (Mpc/h)^3   ShotnoiseSubtracted = false
     0.00783031         11928.7         12092.2         12092.2 
       0.013688         14189.2         14077.3         14077.3 
       0.019231         13619.2         13575.2         13575.2 
      0.0249154         11797.9         11983.8         11983.8 
      0.0312784         9874.47         9927.06         9927.06 
      0.0375637         8240.83         8200.22         8200.22 
      0.0433917         6981.89            7043            7043 
      0.0492413         6262.91          6267.2          6267.2 
      0.0555754         5602.39         5711.23         5711.23 
      0.0619321         5315.72         5272.78         5272.78 
       0.067871         4780.11         4851.88         4851.88 
      0.0738098         4317.18         4375.34         4375.34 
      0.0800417         3767.59         3837.53         3837.53 
      0.0862327         3313.17         3325.71         3325.71 
      0.0921407         2957.02         2912.17         2912.17 
      0.0982031          2618.1         2591.34         2591.34 
       0.104506         2453.99         2364.87         2364.87 
       0.110769         2289.17          2218.5          2218.5 
       0.116806         2165.22         2113.34         2113.34 
       0.122832         2065.44         2009.32         2009.32 
       0.129052         1902.68         1881.23         1881.23 
       0.135211         1766.75         1730.69         1730.69 
       0.141259         1647.79         1572.28         1572.28 
       0.147318          1518.2          1421.3          1421.3 
       0.153489         1377.23         1291.01         1291.01 
       0.159709         1294.13         1190.97         1190.97 
       0.165845          1240.3         1120.97         1120.97 
       0.171974         1176.43          1070.9          1070.9 
       0.178125         1126.61         1029.27         1029.27 
       0.184229         1080.07         986.596         986.596 
        0.19034         1007.03         936.915         936.915 
       0.196428         976.116         880.199         880.199 
       0.202534         931.861         819.982         819.982 
       0.208729         874.372         761.234         761.234 
       0.214876         825.039         710.146         710.146 
       0.220989         793.102          668.81          668.81 
       0.227147         755.858         636.344         636.344 
        0.23329         726.354         610.663         610.663 
       0.239377         710.338         588.474         588.474 
       0.245482         663.102         566.412         566.412 
       0.251667         655.082         542.401         542.401 
       0.257832          628.16         516.491         516.491 
       0.263955         603.643          489.81          489.81 
       0.270079         578.098         463.842         463.842 
        0.27624         568.029         439.949         439.949 
       0.282372         544.517         419.279         419.279 
        0.28843         530.247         401.948         401.948 
       0.294538         503.718         386.948         386.948 
       0.300721         499.921         373.316         373.316 
        0.30691         476.659         360.205         360.205 
       0.313033         466.135         347.112         347.112 
       0.319153         450.814         333.664         333.664 
       0.325316           437.4         319.986         319.986 
        0.33145         423.127         306.661         306.661 
       0.337538          415.79         294.189         294.189 
       0.343633         401.959         282.766         282.766 
       0.349808         387.664         272.353         272.353 
       0.355968          383.29             263             263 
       0.362074         375.678         254.451         254.451 
       0.368217          364.83         246.289         246.289 
       0.374374         349.182         238.288         238.288 
       0.380519         346.173         230.369         230.369 
       0.386598         336.784         222.624         222.624 
       0.392688          333.25         215.032         215.032 
        0.39888          323.84         207.634         207.634 
       0.405048         315.811         200.695         200.695 
       0.411186         309.713         194.245         194.245 
       0.417313         303.576         188.255         188.255 
       0.423458         296.997         182.619         182.619 
       0.429607         291.256         177.245         177.245 
       0.435692          283.27         172.117         172.117 
       0.441815         280.473         167.097         167.097 
       0.447964         274.209         162.166         162.166 
       0.454126         265.452         157.357         157.357 
       0.460267         261.289         152.735         152.735 
       0.466387         258.194         148.325         148.325 
        0.47254         252.025         144.097         144.097 
       0.478662         251.203         140.101         140.101 
       0.484765         242.389         136.313         136.313 
       0.490885         239.351         132.678         132.678 
       0.497035         235.194         129.156         129.156 
       0.503198         230.223         125.739         125.739 
       0.509342          227.94         122.438         122.438 
       0.515458         224.727         119.252         119.252 
       0.521598         219.741         116.152         116.152 
       0.527764         216.519         113.145         113.145 
       0.533884          213.84         110.272         110.272 
           0.54         210.444         107.515         107.515 
       0.546137         208.914         104.859         104.859 
       0.552299         204.458          102.29          102.29 
       0.558452         202.617         99.8134         99.8134 
       0.564573         199.447         97.4274         97.4274 
       0.570708         195.145           95.11           95.11 
       0.576825         192.234         92.8717         92.8717 
       0.582926         189.574         90.7089         90.7089 
       0.589034         187.481         88.6108         88.6108 
       0.595184         185.237         86.5649         86.5649 
       0.601379         182.833         84.5704         84.5704 
       0.607522          179.48         82.6565         82.6565 
       0.613639         177.973         80.8127         80.8127 
       0.619772         174.225         79.0235         79.0235 
       0.625918         172.802         77.2869         77.2869 
       0.632068         170.249         75.6025         75.6025 
       0.638161         169.075          73.983          73.983 
         0.6443         166.441         72.3981         72.3981 
       0.650464         164.607         70.8526         70.8526 
       0.656582         162.612         69.3622         69.3622 
       0.662703         161.389          67.914          67.914 
       0.668861         158.493          66.499          66.499 
       0.675024         156.253         65.1239         65.1239 
       0.681124         155.396         63.8026         63.8026 
       0.687237          153.02         62.5162         62.5162 
       0.693381         150.585         61.2599         61.2599 
       0.699536         149.544         60.0365         60.0365 
       0.705665         148.524         58.8521         58.8521 
       0.711789         146.053         57.7007         57.7007 
       0.717957          145.55         56.5722         56.5722 
        0.72409           143.4         55.4799         55.4799 
       0.730186         141.329          54.423          54.423 
       0.736317         140.009         53.3878         53.3878 
       0.742472         139.027         52.3757         52.3757 
       0.748622         137.658         51.3909         51.3909 
        0.75476         136.294         50.4335         50.4335 
       0.760888         134.522         49.5021         49.5021 
       0.767043         134.037         48.5906         48.5906 
       0.773185         132.549         47.7042         47.7042 
       0.779291         130.083         46.8449         46.8449 
       0.785407         129.563         46.0058         46.0058 
       0.791564         128.357          45.182          45.182 
       0.797719          126.16         44.3788         44.3788 
       0.803834         125.552         43.6004         43.6004 
       0.809972         124.381         42.8379         42.8379 
       0.816124         123.849          42.092          42.092 
       0.822261         122.426          41.366          41.366 
       0.828378          121.23         40.6593         40.6593 
       0.834502         120.915         39.9685         39.9685 
       0.840667         118.887         39.2894         39.2894 
       0.846816         117.644         38.6281         38.6281 
       0.852925         117.101         37.9861         37.9861 
       0.859047         115.668         37.3575         37.3575 
       0.865192         114.591         36.7411         36.7411 
       0.871341         113.623         36.1382         36.1382 
       0.877463         112.419         35.5516         35.5516 
       0.883569         112.074         34.9796         34.9796 
       0.889708         110.945         34.4173         34.4173 
       0.895864         109.672         33.8659         33.8659 
       0.902008         108.975         33.3278         33.3278 
       0.908149         108.408         32.8017         32.8017 
       0.914301         107.111         32.2862         32.2862 
       0.920448         106.297         31.7823         31.7823 
       0.926574         105.515         31.2909         31.2909 
       0.932687         105.364         30.8109         30.8109 
       0.938823         103.658         30.3394         30.3394 
       0.944975         102.631         29.8766         29.8766 
       0.951105         102.112         29.4251         29.4251 
       0.957225         101.074         28.9838         28.9838 
       0.963368         99.9769           28.55           28.55 
       0.969511         99.8398         28.1251         28.1251 
       0.975621         99.1359         27.7112         27.7112 
       0.981748         98.5331         27.3045         27.3045 
       0.987916         97.3916         26.9034         26.9034 
        0.99406         96.6302          26.512          26.512 
        1.00019         96.3027          26.129          26.129 
        1.00632         95.2877         25.7541         25.7541 
        1.01246         94.7785         25.3859         25.3859 
        1.01859         93.7528         25.0255         25.0255 
        1.02471         93.0552         24.6725         24.6725 
        1.03085         92.2281         24.3252         24.3252 
        1.03698         91.8668         23.9853         23.9853 
        1.04314         90.9289         23.6504         23.6504 
        1.04929         90.4214         23.3227         23.3227 
        1.05541         89.6361         23.0025         23.0025 
        1.06154         89.2258         22.6876         22.6876 
        1.06769         88.8891          22.378          22.378 
        1.07382          88.138         22.0753         22.0753 
        1.07993         87.4271         21.7789         21.7789 
        1.08607         86.7543         21.4867         21.4867 
        1.09222         86.5168         21.1996         21.1996 
        1.09836         85.6914         20.9181         20.9181 
        1.10449         85.0483          20.642          20.642 
        1.11063         84.3793         20.3706         20.3706 
        1.11677         84.0228         20.1042         20.1042 
         1.1229         83.1828          19.843          19.843 
        1.12903         82.5292         19.5862         19.5862 
        1.13518          82.519         19.3338         19.3338 
        1.14131         81.8098         19.0859         19.0859 
        1.14745           81.16         18.8426         18.8426 
        1.15359         80.6596         18.6034         18.6034 
        1.15973         80.2523         18.3683         18.3683 
        1.16584            79.5         18.1383         18.1383 
        1.17197         79.0752          17.912          17.912 
        1.17811         78.5866         17.6888         17.6888 
        1.18424         78.1091           17.47           17.47 
        1.19038         77.7242         17.2544         17.2544 
        1.19652         77.1837         17.0424         17.0424 
        1.20267         76.4547          16.834          16.834 
        1.20881         76.0523         16.6291         16.6291 
        1.21495         75.5301          16.428          16.428 
        1.22108         75.2129         16.2302         16.2302 
         1.2272         74.3883         16.0362         16.0362 
        1.23334         74.1239         15.8448         15.8448 
        1.23949         73.6454         15.6561         15.6561 
        1.24562         73.1466          15.471          15.471 
        1.25174         72.7088         15.2892         15.2892 
        1.25789          72.411         15.1097         15.1097 
        1.26402         71.8374         14.9335         14.9335 
        1.27014         71.3762         14.7604         14.7604 
        1.27628         71.0184         14.5896         14.5896 
        1.28244         70.4827         14.4212         14.4212 
        1.28858         70.3252         14.2557         14.2557 
        1.29471         69.7917         14.0931         14.0931 
        1.30084         69.3742         13.9332         13.9332 
        1.30697         68.8792         13.7755         13.7755 
        1.31312         68.5096         13.6201         13.6201 
        1.31925         68.0485         13.4675         13.4675 
        1.32537         67.7443         13.3174         13.3174 
        1.33151         67.1132         13.1691         13.1691 
        1.33765         66.8445         13.0231         13.0231 
        1.34378         66.4563         12.8797         12.8797 
        1.34992         66.1645         12.7383         12.7383 
        1.35606         65.7387         12.5987         12.5987 
         1.3622         65.1014         12.4614         12.4614 
        1.36833         65.0016         12.3265         12.3265 
        1.37445         64.5331         12.1937         12.1937 
        1.38059         64.0617         12.0624         12.0624 
        1.38675         63.6986         11.9327         11.9327 
        1.39288         63.3745         11.8055         11.8055 
        1.39901         63.0907         11.6802         11.6802 
        1.40515         62.6287         11.5564         11.5564 
         1.4113         62.3279         11.4344         11.4344 
        1.41742          62.206         11.3147         11.3147 
        1.42355         61.6214         11.1965         11.1965 
         1.4297            61.4         11.0796         11.0796 
        1.43585         60.8811         10.9644         10.9644 
        1.44198         60.5384         10.8512         10.8512 
        1.44809         60.2921         10.7399         10.7399 
        1.45423         59.9425         10.6298         10.6298 
        1.46036         59.7059         10.5214         10.5214 
        1.46649         59.2837         10.4144         10.4144 
        1.47263         58.8794         10.3088         10.3088 
        1.47877          58.699         10.2048         10.2048 
        1.48491         58.3234          10.102          10.102 
        1.49104         58.0453         10.0009         10.0009 
        1.49718         57.6071         9.90102         9.90102 
        1.50333          57.368         9.80238         9.80238 
        1.50947          57.058         9.70527         9.70527 
         1.5156         56.7239         9.60962         9.60962 
        1.52172           56.42         9.51526         9.51526 
        1.52787         56.2754         9.42198         9.42198 
          1.534         55.7847         9.33005         9.33005 
        1.54013         55.4561         9.23945         9.23945 
        1.54627         55.3021         9.14988         9.14988 
        1.55241         54.8121         9.06148         9.06148 
        1.55855         54.5928         8.97438         8.97438 
        1.56467         54.2649         8.88866         8.88866 
         1.5708         54.1242         8.80381         8.80381 
        1.57695         53.9265         8.71994         8.71994 
        1.58308         53.4159         8.63736         8.63736 
        1.58922         53.2227         8.55578         8.55578 
        1.59535           53.08         8.47529         8.47529 
         1.6015         52.5509         8.39572         8.39572 
        1.60764          52.401          8.3172          8.3172 
        1.61376         52.0773         8.23991         8.23991 
        1.61989         51.7907         8.16353         8.16353 
        1.62604          51.601         8.08795         8.08795 
        1.63218         51.4105         8.01336         8.01336 
        1.63831         50.9254         7.93989         7.93989 
        1.64444         50.7427         7.86731         7.86731 
        1.65059         50.4949         7.79546         7.79546 
        1.65673         50.2396         7.72459         7.72459 
        1.66285         49.8772         7.65479         7.65479 
        1.66898         49.7374         7.58583         7.58583 
        1.67512         49.3383         7.51758         7.51758 
        1.68127         49.1326         7.45011         7.45011 
         1.6874         48.9287         7.38362         7.38362 
        1.69353         48.6535         7.31798         7.31798 
        1.69967         48.3961         7.25298         7.25298 
        1.70581         48.2484         7.18879         7.18879 
        1.71193         48.0527         7.12562         7.12562 
        1.71806         47.5758         7.06308         7.06308 
        1.72421         47.4447         7.00116         7.00116 
        1.73035         47.2288         6.94005         6.94005 
        1.73649         46.8984         6.87969         6.87969 
        1.74262         46.7549         6.82008         6.82008 
        1.74876          46.481         6.76115         6.76115 
        1.75489          46.259         6.70303         6.70303 
        1.76101         46.0808          6.6456          6.6456 
        1.76715         45.7165         6.58877         6.58877 
        1.77329         45.4866         6.53253         6.53253 
        1.77943         45.2164         6.47693         6.47693 
        1.78557         45.0874         6.42204         6.42204 
        1.79171         44.8462         6.36779         6.36779 
        1.79785         44.5855         6.31414         6.31414 
        1.80399         44.4975         6.26113         6.26113 
        1.81012         44.1724         6.20879         6.20879 
        1.81625         43.8547         6.15707         6.15707 
        1.82239         43.7296         6.10586         6.10586 
        1.82853         43.4265         6.05526         6.05526 
        1.83466         43.2264         6.00528         6.00528 
        1.84078          42.986         5.95591         5.95591 
        1.84692         42.7315         5.90702         5.90702 
        1.85306         42.5541         5.85862         5.85862 
         1.8592         42.2828         5.81083         5.81083 
        1.86533         42.1385          5.7636          5.7636 
        1.87147         41.9004         5.71684         5.71684 
