# k  (h/Mpc)    P(k)  (Mpc/h)^3    P_linear(k)  (Mpc/h)^3     P_NL(k)  ShotnoiseSubtracted = false
     0.00783031           21427         21762.4         21762.4 
       0.013688           25632         25329.4         25329.4 
       0.019231         24510.1         24423.8         24423.8 
      0.0249154         21073.8         21559.5         21559.5 
      0.0312784         17670.7         17858.6         17858.6 
      0.0375637         14806.5         14751.7         14751.7 
      0.0433917         12477.3         12669.8         12669.8 
      0.0492413         11229.8           11274           11274 
      0.0555754         9964.85         10273.8         10273.8 
      0.0619321         9536.99         9485.04         9485.04 
       0.067871         8506.63         8727.85         8727.85 
      0.0738098         7698.16         7870.61         7870.61 
      0.0800417          6711.4         6903.13         6903.13 
      0.0862327         5939.46         5982.44         5982.44 
      0.0921407         5355.97         5238.53         5238.53 
      0.0982031         4752.32         4661.39         4661.39 
       0.104506         4487.45         4254.01         4254.01 
       0.110769         4180.67         3990.72         3990.72 
       0.116806         3968.94         3801.55         3801.55 
       0.122832         3769.87         3614.41         3614.41 
       0.129052         3460.14         3384.01         3384.01 
       0.135211         3225.89         3113.21         3113.21 
       0.141259         3044.02         2828.25         2828.25 
       0.147318          2832.3         2556.66         2556.66 
       0.153489         2577.46         2322.29         2322.29 
       0.159709         2435.67         2142.34         2142.34 
       0.165845         2352.18         2016.43         2016.43 
       0.171974         2240.32         1926.35         1926.35 
       0.178125         2135.91         1851.47         1851.47 
       0.184229         2035.06         1774.71         1774.71 
        0.19034         1923.64         1685.34         1685.34 
       0.196428         1866.68         1583.32         1583.32 
       0.202534         1781.75            1475            1475 
       0.208729         1689.45         1369.32         1369.32 
       0.214876         1620.94         1277.42         1277.42 
       0.220989         1559.74         1203.07         1203.07 
       0.227147         1500.07         1144.66         1144.66 
        0.23329         1441.44         1098.47         1098.47 
       0.239377         1417.44         1058.55         1058.55 
       0.245482         1329.35         1018.87         1018.87 
       0.251667         1319.29         975.677         975.677 
       0.257832         1262.39         929.072         929.072 
       0.263955         1217.14         881.078         881.078 
       0.270079         1172.69         834.366         834.366 
        0.27624         1155.86         791.385         791.385 
       0.282372         1108.35         754.204         754.204 
        0.28843         1100.28         723.029         723.029 
       0.294538         1044.18         696.047         696.047 
       0.300721         1036.13         671.526         671.526 
        0.30691         996.519         647.941         647.941 
       0.313033         974.966         624.389         624.389 
       0.319153         957.307         600.198         600.198 
       0.325316         926.213         575.596         575.596 
        0.33145         904.311         551.626         551.626 
       0.337538         884.604         529.191         529.191 
       0.343633         866.086         508.644         508.644 
       0.349808         834.871         489.912         489.912 
       0.355968         828.088         473.088         473.088 
       0.362074         819.997          457.71          457.71 
       0.368217         792.817         443.027         443.027 
       0.374374          762.48         428.636         428.636 
       0.380519         763.487         414.391         414.391 
       0.386598         739.312         400.457         400.457 
       0.392688         735.844         386.803         386.803 
        0.39888         713.874         373.493         373.493 
       0.405048         704.689         361.013         361.013 
       0.411186         694.575          349.41          349.41 
       0.417313         680.006         338.635         338.635 
       0.423458         665.309         328.496         328.496 
       0.429607         658.734         318.831         318.831 
       0.435692         642.777         309.606         309.606 
       0.441815         635.638         300.576         300.576 
       0.447964         623.054         291.706         291.706 
       0.454126         617.445         283.056         283.056 
       0.460267         601.058         274.742         274.742 
       0.466387         593.502          266.81          266.81 
        0.47254         590.106         259.204         259.204 
       0.478662         582.527         252.014         252.014 
       0.484765         563.973         245.201         245.201 
       0.490885         559.834         238.662         238.662 
       0.497035         548.291         232.328         232.328 
       0.503198         544.063         226.181         226.181 
       0.509342         539.358         220.243         220.243 
       0.515458         535.008         214.512         214.512 
       0.521598         519.997         208.936         208.936 
       0.527764         512.779         203.527         203.527 
       0.533884         508.806         198.358         198.358 
           0.54         503.388           193.4           193.4 
       0.546137         498.474         188.621         188.621 
       0.552299         491.601         184.001         184.001 
       0.558452         487.159         179.546         179.546 
       0.564573         481.684         175.253         175.253 
       0.570708          474.81         171.085         171.085 
       0.576825          463.42         167.059         167.059 
       0.582926         463.627         163.168         163.168 
       0.589034         458.157         159.394         159.394 
       0.595184         454.537         155.714         155.714 
       0.601379         446.445         152.126         152.126 
       0.607522         440.964         148.683         148.683 
       0.613639         438.799         145.367         145.367 
       0.619772          431.55         142.148         142.148 
       0.625918         428.691         139.025         139.025 
       0.632068         421.783         135.995         135.995 
       0.638161         419.361         133.081         133.081 
         0.6443         413.454         130.231         130.231 
       0.650464         410.704          127.45          127.45 
       0.656582         405.639          124.77          124.77 
       0.662703         404.944         122.164         122.164 
       0.668861          398.82         119.619         119.619 
       0.675024         394.936         117.146         117.146 
       0.681124         391.217         114.769         114.769 
       0.687237         388.153         112.455         112.455 
       0.693381         382.112         110.195         110.195 
       0.699536         376.763         107.994         107.994 
       0.705665         375.289         105.864         105.864 
       0.711789          373.71         103.793         103.793 
       0.717957          369.99         101.763         101.763 
        0.72409         368.082         99.7979         99.7979 
       0.730186         362.425         97.8967         97.8967 
       0.736317         359.871         96.0346         96.0346 
       0.742472         356.841          94.214          94.214 
       0.748622         353.525         92.4424         92.4424 
        0.75476          348.43         90.7203         90.7203 
       0.760888          345.03         89.0449         89.0449 
       0.767043         344.957         87.4053         87.4053 
       0.773185         341.726         85.8107         85.8107 
       0.779291         337.235         84.2652         84.2652 
       0.785407         335.591         82.7557         82.7557 
       0.791564          331.74         81.2738         81.2738 
       0.797719         329.715         79.8291         79.8291 
       0.803834         325.092         78.4289         78.4289 
       0.809972         324.814         77.0573         77.0573 
       0.816124         323.214         75.7156         75.7156 
       0.822261         319.534         74.4095         74.4095 
       0.828378         317.179         73.1383         73.1383 
       0.834502         313.242         71.8958         71.8958 
       0.840667         311.335         70.6742         70.6742 
       0.846816         309.778         69.4846         69.4846 
       0.852925         307.735         68.3299         68.3299 
       0.859047         305.235         67.1991         67.1991 
       0.865192          301.37         66.0903         66.0903 
       0.871341          298.83         65.0058         65.0058 
       0.877463         298.987         63.9507         63.9507 
       0.883569           295.8         62.9217         62.9217 
       0.889708         293.191         61.9102         61.9102 
       0.895864         292.764         60.9183         60.9183 
       0.902008          289.56         59.9504         59.9504 
       0.908149         285.929         59.0041         59.0041 
       0.914301         284.147         58.0768         58.0768 
       0.920448         282.362         57.1703         57.1703 
       0.926574         278.843         56.2864         56.2864 
       0.932687         278.289          55.423          55.423 
       0.938823         275.254         54.5748         54.5748 
       0.944975         275.267         53.7423         53.7423 
       0.951105         272.375         52.9302         52.9302 
       0.957225         270.638         52.1363         52.1363 
       0.963368         266.814         51.3561         51.3561 
       0.969511         266.168         50.5918         50.5918 
       0.975621         264.527         49.8471         49.8471 
       0.981748         262.516         49.1156         49.1156 
       0.987916         261.182         48.3942         48.3942 
        0.99406         258.162           47.69           47.69 
        1.00019         256.197         47.0012         47.0012 
        1.00632         255.324         46.3267         46.3267 
        1.01246          253.05         45.6644         45.6644 
        1.01859         252.896         45.0161         45.0161 
        1.02471         249.039         44.3812         44.3812 
        1.03085         248.036         43.7564         43.7564 
        1.03698          246.43         43.1449         43.1449 
        1.04314         244.687         42.5425         42.5425 
        1.04929         242.914         41.9531         41.9531 
        1.05541         242.476         41.3771         41.3771 
        1.06154         238.837         40.8106         40.8106 
        1.06769         238.403         40.2539         40.2539 
        1.07382         236.224         39.7093         39.7093 
        1.07993         234.946         39.1761         39.1761 
        1.08607          234.34         38.6505         38.6505 
        1.09222         231.548          38.134          38.134 
        1.09836         229.874         37.6276         37.6276 
        1.10449         228.202          37.131          37.131 
        1.11063         226.069         36.6428         36.6428 
        1.11677         225.667         36.1636         36.1636 
         1.1229          223.32         35.6938         35.6938 
        1.12903         222.479         35.2319         35.2319 
        1.13518         220.814         34.7778         34.7778 
        1.14131         219.151          34.332          34.332 
        1.14745         218.805         33.8942         33.8942 
        1.15359         216.836          33.464          33.464 
        1.15973         214.954         33.0411         33.0411 
        1.16584          213.67         32.6274         32.6274 
        1.17197         213.569         32.2202         32.2202 
        1.17811          210.62         31.8187         31.8187 
        1.18424         209.522         31.4253         31.4253 
        1.19038         208.695         31.0373         31.0373 
        1.19652         206.621          30.656          30.656 
        1.20267         206.616         30.2812         30.2812 
        1.20881         204.283         29.9127         29.9127 
        1.21495         203.253         29.5509         29.5509 
        1.22108         201.802         29.1951         29.1951 
         1.2272         200.473          28.846          28.846 
        1.23334         200.175         28.5018         28.5018 
        1.23949         197.498         28.1624         28.1624 
        1.24562         196.809         27.8294         27.8294 
        1.25174          195.89         27.5024         27.5024 
        1.25789         194.532         27.1795         27.1795 
        1.26402         192.476         26.8625         26.8625 
        1.27014         191.618         26.5512         26.5512 
        1.27628         190.073          26.244          26.244 
        1.28244         189.952          25.941          25.941 
        1.28858         188.102         25.6432         25.6432 
        1.29471          187.36         25.3508         25.3508 
        1.30084          185.43         25.0631         25.0631 
        1.30697         184.418         24.7795         24.7795 
        1.31312         182.965         24.4999         24.4999 
        1.31925         181.572         24.2255         24.2255 
        1.32537         181.476         23.9556         23.9556 
        1.33151         179.693         23.6888         23.6888 
        1.33765         178.324         23.4262         23.4262 
        1.34378         177.621         23.1681         23.1681 
        1.34992         176.799         22.9137         22.9137 
        1.35606          176.15         22.6626         22.6626 
         1.3622         173.967         22.4157         22.4157 
        1.36833         173.219          22.173          22.173 
        1.37445         172.176         21.9341         21.9341 
        1.38059          170.95          21.698          21.698 
        1.38675         170.327         21.4647         21.4647 
        1.39288          169.22         21.2358         21.2358 
        1.39901         167.892         21.0104         21.0104 
        1.40515         167.052         20.7877         20.7877 
         1.4113         166.038         20.5684         20.5684 
        1.41742         164.717          20.353          20.353 
        1.42355         163.926         20.1403         20.1403 
         1.4297         162.559           19.93           19.93 
        1.43585         161.688         19.7228         19.7228 
        1.44198          161.35         19.5193         19.5193 
        1.44809         159.989         19.3191         19.3191 
        1.45423         159.337         19.1209         19.1209 
        1.46036         157.943         18.9259         18.9259 
        1.46649         157.113         18.7335         18.7335 
        1.47263         156.228         18.5437         18.5437 
        1.47877         154.951         18.3565         18.3565 
        1.48491         153.624         18.1716         18.1716 
        1.49104         153.401         17.9897         17.9897 
        1.49718         151.736           17.81           17.81 
        1.50333         151.166         17.6326         17.6326 
        1.50947         149.984         17.4579         17.4579 
         1.5156         149.279         17.2859         17.2859 
        1.52172         148.536         17.1161         17.1161 
        1.52787         147.091         16.9483         16.9483 
          1.534         146.765          16.783          16.783 
        1.54013         145.657           16.62           16.62 
        1.54627          144.76         16.4589         16.4589 
        1.55241         143.714         16.2999         16.2999 
        1.55855         142.848         16.1432         16.1432 
        1.56467         141.802          15.989          15.989 
         1.5708         140.945         15.8364         15.8364 
        1.57695         140.737         15.6855         15.6855 
        1.58308         139.527          15.537          15.537 
        1.58922         138.748         15.3902         15.3902 
        1.59535         137.794         15.2454         15.2454 
         1.6015         136.934         15.1023         15.1023 
        1.60764         136.398         14.9611         14.9611 
        1.61376         135.416          14.822          14.822 
        1.61989         134.537         14.6846         14.6846 
        1.62604          133.57         14.5487         14.5487 
        1.63218         133.135         14.4145         14.4145 
        1.63831             132         14.2824         14.2824 
        1.64444         131.259         14.1518         14.1518 
        1.65059         130.568         14.0226         14.0226 
        1.65673         129.887         13.8951         13.8951 
        1.66285         128.899         13.7695         13.7695 
        1.66898         128.276         13.6455         13.6455 
        1.67512         127.342         13.5227         13.5227 
        1.68127         126.557         13.4013         13.4013 
         1.6874         126.093         13.2817         13.2817 
        1.69353         125.081         13.1636         13.1636 
        1.69967          124.16         13.0467         13.0467 
        1.70581         123.487         12.9313         12.9313 
        1.71193          122.61         12.8176         12.8176 
        1.71806         122.214         12.7051         12.7051 
        1.72421         121.529         12.5938         12.5938 
        1.73035         120.881         12.4838         12.4838 
        1.73649         120.053         12.3752         12.3752 
        1.74262         119.452          12.268          12.268 
        1.74876          118.42          12.162          12.162 
        1.75489         117.911         12.0575         12.0575 
        1.76101         116.865         11.9542         11.9542 
        1.76715         116.625         11.8519         11.8519 
        1.77329         115.645         11.7508         11.7508 
        1.77943         115.337         11.6508         11.6508 
        1.78557         114.701          11.552          11.552 
        1.79171         113.755         11.4544         11.4544 
        1.79785         113.175         11.3579         11.3579 
        1.80399         112.522         11.2626         11.2626 
        1.81012         112.004         11.1684         11.1684 
        1.81625         111.388         11.0754         11.0754 
        1.82239         110.665         10.9833         10.9833 
        1.82853         109.814         10.8923         10.8923 
        1.83466         109.361         10.8023         10.8023 
        1.84078         108.626         10.7135         10.7135 
        1.84692         107.762         10.6256         10.6256 
        1.85306         107.622         10.5385         10.5385 
         1.8592         106.725         10.4526         10.4526 
        1.86533         106.312         10.3676         10.3676 
        1.87147         105.466         10.2835         10.2835 
        1.87761         104.637         10.2003         10.2003 
