# k  (h/Mpc)    P(k)  (Mpc/h)^3    P_linear(k)  (Mpc/h)^3     P_NL(k)  ShotnoiseSubtracted = false
     0.00783031         13654.7         13847.5         13847.5 
       0.013688         16262.5         16119.9         16119.9 
       0.019231         15596.9         15544.6         15544.6 
      0.0249154         13489.6         13722.2         13722.2 
      0.0312784         11295.3           11367           11367 
      0.0375637         9434.47         9389.63         9389.63 
      0.0433917         7984.02         8064.53         8064.53 
      0.0492413         7166.97         7176.19         7176.19 
      0.0555754         6400.33         6539.58         6539.58 
      0.0619321         6084.69         6037.52         6037.52 
       0.067871         5461.89         5555.57         5555.57 
      0.0738098         4934.79         5009.92         5009.92 
      0.0800417         4305.42          4394.1          4394.1 
      0.0862327         3791.17         3808.05         3808.05 
      0.0921407         3390.91         3334.53         3334.53 
      0.0982031         3003.08         2967.16         2967.16 
       0.104506         2819.84         2707.85         2707.85 
       0.110769         2629.56         2540.25         2540.25 
       0.116806         2488.68         2419.84         2419.84 
       0.122832         2372.09         2300.73         2300.73 
       0.129052         2183.08         2154.07         2154.07 
       0.135211         2029.22         1981.69         1981.69 
       0.141259         1897.29         1800.31         1800.31 
       0.147318         1751.51         1627.43         1627.43 
       0.153489         1589.69         1478.24         1478.24 
       0.159709         1496.14          1363.7          1363.7 
       0.165845         1435.96         1283.55         1283.55 
       0.171974         1363.28         1226.21         1226.21 
       0.178125         1304.08         1178.54         1178.54 
       0.184229         1249.04         1129.68         1129.68 
        0.19034          1166.6          1072.8          1072.8 
       0.196428         1131.88         1007.85         1007.85 
       0.202534         1081.01         938.904         938.904 
       0.208729         1016.57         871.636         871.636 
       0.214876         962.328         813.138         813.138 
       0.220989         925.503         765.806         765.806 
       0.227147         883.834         728.631         728.631 
        0.23329         849.279         699.226         699.226 
       0.239377         831.494         673.819         673.819 
       0.245482         776.281         648.556         648.556 
       0.251667         768.018         621.063         621.063 
       0.257832         735.871         591.397         591.397 
       0.263955         708.132         560.847         560.847 
       0.270079          678.88         531.112         531.112 
        0.27624          668.11         503.753         503.753 
       0.282372          640.33         480.086         480.086 
        0.28843         626.266         460.242         460.242 
       0.294538         594.196         443.066         443.066 
       0.300721         590.314         427.458         427.458 
        0.30691         563.379         412.444         412.444 
       0.313033         551.345         397.453         397.453 
       0.319153         535.078         382.054         382.054 
       0.325316         518.702         366.394         366.394 
        0.33145         502.805         351.136         351.136 
       0.337538         493.935         336.855         336.855 
       0.343633         478.449         323.775         323.775 
       0.349808         461.083         311.852         311.852 
       0.355968          456.72         301.142         301.142 
       0.362074          448.85         291.354         291.354 
       0.368217          435.68         282.007         282.007 
       0.374374         416.411         272.847         272.847 
       0.380519          414.14         263.779         263.779 
       0.386598         402.695          254.91          254.91 
       0.392688         399.386         246.218         246.218 
        0.39888         387.786         237.746         237.746 
       0.405048         378.886         229.802         229.802 
       0.411186         372.263         222.416         222.416 
       0.417313         364.781         215.557         215.557 
       0.423458         356.969         209.103         209.103 
       0.429607         350.837         202.951         202.951 
       0.435692         341.587         197.078         197.078 
       0.441815         338.158          191.33          191.33 
       0.447964         330.484         185.685         185.685 
       0.454126         321.898         180.178         180.178 
       0.460267         316.137         174.886         174.886 
       0.466387          312.38         169.837         169.837 
        0.47254         305.601         164.996         164.996 
       0.478662         304.639         160.419         160.419 
       0.484765         293.727         156.082         156.082 
       0.490885         290.511          151.92          151.92 
       0.497035         285.128         147.888         147.888 
       0.503198          280.18         143.975         143.975 
       0.509342         277.803         140.195         140.195 
       0.515458         274.116         136.547         136.547 
       0.521598          267.44         132.998         132.998 
       0.527764         263.438         129.554         129.554 
       0.533884          260.72         126.264         126.264 
           0.54         256.809         123.108         123.108 
       0.546137          255.18         120.066         120.066 
       0.552299         249.692         117.125         117.125 
       0.558452         248.051         114.289         114.289 
       0.564573         244.341         111.557         111.557 
       0.570708         239.156         108.904         108.904 
       0.576825         235.027         106.341         106.341 
       0.582926         232.589         103.864         103.864 
       0.589034         230.175         101.462         101.462 
       0.595184         227.716         99.1192         99.1192 
       0.601379         224.469         96.8355         96.8355 
       0.607522         220.887          94.644          94.644 
       0.613639         219.058         92.5327         92.5327 
       0.619772         214.404         90.4841         90.4841 
       0.625918         213.214         88.4957         88.4957 
       0.632068         209.635         86.5669         86.5669 
       0.638161         208.501         84.7126         84.7126 
         0.6443         205.077         82.8979         82.8979 
       0.650464         202.842         81.1281         81.1281 
       0.656582         200.743         79.4217         79.4217 
       0.662703          199.83         77.7634         77.7634 
       0.668861         196.202         76.1432         76.1432 
       0.675024         193.429         74.5687         74.5687 
       0.681124         192.248         73.0557         73.0557 
       0.687237         189.835         71.5828         71.5828 
       0.693381         186.752         70.1443         70.1443 
       0.699536         185.293         68.7435         68.7435 
       0.705665          183.61         67.3873         67.3873 
       0.711789         181.551         66.0689         66.0689 
       0.717957         180.675         64.7767         64.7767 
        0.72409         178.364         63.5261         63.5261 
       0.730186         175.972         62.3159         62.3159 
       0.736317         174.053         61.1305         61.1305 
       0.742472         172.874         59.9717         59.9717 
       0.748622         171.281          58.844          58.844 
        0.75476         169.567         57.7478         57.7478 
       0.760888         167.517         56.6813         56.6813 
       0.767043         167.182         55.6376         55.6376 
       0.773185         165.335         54.6226         54.6226 
       0.779291         162.093         53.6388         53.6388 
       0.785407         161.604         52.6779         52.6779 
       0.791564         159.996         51.7346         51.7346 
       0.797719          157.53          50.815          50.815 
       0.803834         156.663         49.9237         49.9237 
       0.809972         155.659         49.0506         49.0506 
       0.816124         154.939         48.1966         48.1966 
       0.822261         153.195         47.3652         47.3652 
       0.828378          151.63          46.556          46.556 
       0.834502         151.245         45.7651         45.7651 
       0.840667         148.856         44.9875         44.9875 
       0.846816         147.437         44.2302         44.2302 
       0.852925          146.85         43.4952         43.4952 
       0.859047         145.313         42.7754         42.7754 
       0.865192         143.599         42.0696         42.0696 
       0.871341         142.459         41.3793         41.3793 
       0.877463         141.184         40.7076         40.7076 
       0.883569         140.875         40.0526         40.0526 
       0.889708         139.284         39.4087         39.4087 
       0.895864          137.63         38.7774         38.7774 
       0.902008          136.87         38.1613         38.1613 
       0.908149         136.334         37.5589         37.5589 
       0.914301         134.482         36.9686         36.9686 
       0.920448         133.567         36.3916         36.3916 
       0.926574         132.612         35.8289         35.8289 
       0.932687         132.451         35.2794         35.2794 
       0.938823         130.495         34.7394         34.7394 
       0.944975         129.425         34.2095         34.2095 
       0.951105         128.708         33.6926         33.6926 
       0.957225         127.512         33.1873         33.1873 
       0.963368         125.775         32.6906         32.6906 
       0.969511         125.568          32.204          32.204 
       0.975621         124.537         31.7301         31.7301 
       0.981748          124.22         31.2644         31.2644 
       0.987916         122.795         30.8052         30.8052 
        0.99406         121.708         30.3569         30.3569 
        1.00019         121.524         29.9185         29.9185 
        1.00632         120.134         29.4891         29.4891 
        1.01246         119.502         29.0675         29.0675 
        1.01859         118.719         28.6549         28.6549 
        1.02471         117.326         28.2508         28.2508 
        1.03085         116.342          27.853          27.853 
        1.03698         115.881         27.4638         27.4638 
        1.04314         114.633         27.0803         27.0803 
        1.04929         114.166         26.7051         26.7051 
        1.05541         113.389         26.3385         26.3385 
        1.06154         112.645         25.9779         25.9779 
        1.06769         112.378         25.6235         25.6235 
        1.07382         111.215         25.2769         25.2769 
        1.07993         110.318         24.9375         24.9375 
        1.08607         109.612         24.6029         24.6029 
        1.09222         109.298         24.2741         24.2741 
        1.09836         108.289         23.9518         23.9518 
        1.10449         107.178         23.6356         23.6356 
        1.11063         106.423         23.3249         23.3249 
        1.11677         105.987         23.0198         23.0198 
         1.1229          105.14         22.7208         22.7208 
        1.12903          104.52         22.4268         22.4268 
        1.13518         104.153         22.1377         22.1377 
        1.14131         103.105         21.8539         21.8539 
        1.14745         102.673         21.5753         21.5753 
        1.15359         101.914         21.3014         21.3014 
        1.15973         101.414         21.0322         21.0322 
        1.16584         100.355         20.7689         20.7689 
        1.17197         99.8558         20.5097         20.5097 
        1.17811         99.2958         20.2541         20.2541 
        1.18424         98.8302         20.0037         20.0037 
        1.19038         98.4396         19.7567         19.7567 
        1.19652         97.5929          19.514          19.514 
        1.20267          96.879         19.2754         19.2754 
        1.20881         96.2243         19.0408         19.0408 
        1.21495         95.6051         18.8105         18.8105 
        1.22108         95.1347         18.5841         18.5841 
         1.2272         94.2125         18.3618         18.3618 
        1.23334         93.8129         18.1427         18.1427 
        1.23949         93.2134         17.9267         17.9267 
        1.24562         92.5981         17.7148         17.7148 
        1.25174         91.9926         17.5066         17.5066 
        1.25789         91.5602         17.3011         17.3011 
        1.26402         90.6338         17.0992         17.0992 
        1.27014         90.2731         16.9011         16.9011 
        1.27628         89.8384         16.7055         16.7055 
        1.28244         89.3231         16.5127         16.5127 
        1.28858         89.0113         16.3231         16.3231 
        1.29471         88.1002          16.137          16.137 
        1.30084         87.8271         15.9539         15.9539 
        1.30697         87.0166         15.7734         15.7734 
        1.31312          86.644         15.5954         15.5954 
        1.31925         85.9707         15.4207         15.4207 
        1.32537         85.5617         15.2488         15.2488 
        1.33151         84.8202          15.079          15.079 
        1.33765         84.4846         14.9119         14.9119 
        1.34378         84.0493         14.7476         14.7476 
        1.34992         83.7335         14.5857         14.5857 
        1.35606         83.1346         14.4258         14.4258 
         1.3622         82.3322         14.2686         14.2686 
        1.36833         82.0976         14.1142         14.1142 
        1.37445         81.5906         13.9621         13.9621 
        1.38059         80.9854         13.8118         13.8118 
        1.38675         80.4934         13.6633         13.6633 
        1.39288         80.2785         13.5176         13.5176 
        1.39901          79.739         13.3741         13.3741 
        1.40515         79.1049         13.2324         13.2324 
         1.4113         78.7317         13.0927         13.0927 
        1.41742         78.4272         12.9556         12.9556 
        1.42355         77.8377         12.8203         12.8203 
         1.4297         77.5254         12.6864         12.6864 
        1.43585         76.8581         12.5545         12.5545 
        1.44198         76.4817          12.425          12.425 
        1.44809         76.0956         12.2975         12.2975 
        1.45423         75.7157         12.1714         12.1714 
        1.46036         75.3658         12.0472         12.0472 
        1.46649         74.7434         11.9248         11.9248 
        1.47263         74.2461         11.8039         11.8039 
        1.47877         74.1285         11.6848         11.6848 
        1.48491         73.4173         11.5671         11.5671 
        1.49104         73.2684         11.4513         11.4513 
        1.49718         72.7564         11.3369         11.3369 
        1.50333         72.3708          11.224          11.224 
        1.50947         71.9372         11.1128         11.1128 
         1.5156         71.5356         11.0033         11.0033 
        1.52172         71.0507         10.8952         10.8952 
        1.52787         70.7968         10.7884         10.7884 
          1.534         70.2454         10.6832         10.6832 
        1.54013         69.8781         10.5794         10.5794 
        1.54627         69.6433         10.4769         10.4769 
        1.55241         69.0927         10.3757         10.3757 
        1.55855         68.8138         10.2759         10.2759 
        1.56467         68.5092         10.1778         10.1778 
         1.5708           68.04         10.0806         10.0806 
        1.57695         67.9749         9.98457         9.98457 
        1.58308         67.2873         9.89001         9.89001 
        1.58922         67.0356         9.79661         9.79661 
        1.59535         66.7638         9.70444         9.70444 
         1.6015         66.1825         9.61333         9.61333 
        1.60764         65.9328         9.52343         9.52343 
        1.61376         65.6548         9.43492         9.43492 
        1.61989         65.1965         9.34747         9.34747 
        1.62604         64.9816         9.26092         9.26092 
        1.63218         64.6525         9.17552         9.17552 
        1.63831         63.9092          9.0914          9.0914 
        1.64444         63.7734         9.00829         9.00829 
        1.65059         63.4777         8.92602         8.92602 
        1.65673         62.9752         8.84487         8.84487 
        1.66285         62.7171         8.76495         8.76495 
        1.66898         62.5041         8.68599         8.68599 
        1.67512         61.9639         8.60784         8.60784 
        1.68127         61.7597         8.53059         8.53059 
         1.6874         61.3787         8.45445         8.45445 
        1.69353         61.0229         8.37929         8.37929 
        1.69967         60.7079         8.30486         8.30486 
        1.70581         60.4868         8.23137         8.23137 
        1.71193         60.2308         8.15904         8.15904 
        1.71806         59.7733         8.08742         8.08742 
        1.72421         59.4232         8.01652         8.01652 
        1.73035         59.1803         7.94655         7.94655 
        1.73649          58.921         7.87743         7.87743 
        1.74262         58.5389         7.80919         7.80919 
        1.74876         58.2904          7.7417          7.7417 
        1.75489         57.8968         7.67515         7.67515 
        1.76101         57.7273          7.6094          7.6094 
        1.76715         57.2554         7.54433         7.54433 
        1.77329         57.0078         7.47993         7.47993 
        1.77943         56.6473         7.41626         7.41626 
        1.78557         56.4991         7.35342         7.35342 
        1.79171         56.0845         7.29129         7.29129 
        1.79785         55.7396         7.22987         7.22987 
        1.80399         55.6399         7.16916         7.16916 
        1.81012         55.3418         7.10924         7.10924 
        1.81625         54.9201         7.05002         7.05002 
        1.82239         54.7019         6.99138         6.99138 
        1.82853         54.4082         6.93344         6.93344 
        1.83466         54.1596         6.87621         6.87621 
        1.84078         53.8138         6.81968         6.81968 
        1.84692         53.4988          6.7637          6.7637 
        1.85306         53.2478         6.70828         6.70828 
         1.8592         52.9883         6.65356         6.65356 
        1.86533         52.6891         6.59948         6.59948 
        1.87147         52.2939         6.54594         6.54594 
        1.87761         52.1464         6.49297         6.49297 
