# k  (h/Mpc)    Pcb(k)  (Mpc/h)^3    Pcb_linear(k) (Mpc/h)^3    Pcb_NL(k) (Mpc/h)^3   ShotnoiseSubtracted = false
     0.00783031         5661.25         5729.84         5729.84 
       0.013688         6698.97         6672.04         6672.04 
       0.019231         6450.04         6434.74         6434.74 
      0.0249154         5623.48         5680.73         5680.73 
      0.0312784         4697.05         4705.92         4705.92 
      0.0375637         3907.11          3887.4          3887.4 
      0.0433917         3325.56         3338.86         3338.86 
      0.0492413         2974.35         2971.11         2971.11 
      0.0555754         2678.08         2707.56         2707.56 
      0.0619321          2519.4         2499.71         2499.71 
       0.067871         2282.34         2300.18         2300.18 
      0.0738098         2058.74         2074.28         2074.28 
      0.0800417         1799.08         1819.31         1819.31 
      0.0862327         1573.88         1576.67         1576.67 
      0.0921407         1393.26         1380.62         1380.62 
      0.0982031         1233.56         1228.52         1228.52 
       0.104506         1146.71         1121.16         1121.16 
       0.110769         1071.36         1051.77         1051.77 
       0.116806         1012.39         1001.91         1001.91 
       0.122832         967.585         952.594         952.594 
       0.129052         895.513         891.873         891.873 
       0.135211         827.729         820.503         820.503 
       0.141259         764.323         745.402         745.402 
       0.147318         699.244         673.824         673.824 
       0.153489         633.576         612.054         612.054 
       0.159709         590.691         564.628         564.628 
       0.165845         563.265         531.443         531.443 
       0.171974         532.654         507.704         507.704 
       0.178125         512.126         487.966         487.966 
       0.184229         492.015         467.737         467.737 
        0.19034         458.581         444.184         444.184 
       0.196428         440.793         417.295         417.295 
       0.202534         418.924         388.747         388.747 
       0.208729         389.834         360.895         360.895 
       0.214876         364.112         336.674         336.674 
       0.220989         348.908         317.077         317.077 
       0.227147         329.978         301.686         301.686 
        0.23329         317.064         289.511         289.511 
       0.239377         308.499         278.991         278.991 
       0.245482          289.96         268.531         268.531 
       0.251667         283.948         257.148         257.148 
       0.257832           272.4         244.864         244.864 
       0.263955         259.904         232.215         232.215 
       0.270079         248.029         219.904         219.904 
        0.27624         241.112         208.577         208.577 
       0.282372         231.052         198.777         198.777 
        0.28843         221.874          190.56          190.56 
       0.294538         212.296         183.449         183.449 
       0.300721         208.893         176.986         176.986 
        0.30691         199.275         170.771         170.771 
       0.313033         193.541         164.563         164.563 
       0.319153         184.764         158.187         158.187 
       0.325316         180.404         151.703         151.703 
        0.33145         173.087         145.386         145.386 
       0.337538         169.268         139.473         139.473 
       0.343633         162.945         134.057         134.057 
       0.349808         157.549         129.121         129.121 
       0.355968         154.177         124.686         124.686 
       0.362074         149.591         120.633         120.633 
       0.368217         145.031         116.764         116.764 
       0.374374         140.354          112.97          112.97 
       0.380519         137.244         109.216         109.216 
       0.386598         133.282         105.544         105.544 
       0.392688         130.612         101.945         101.945 
        0.39888         126.889         98.4379         98.4379 
       0.405048         123.434          95.148          95.148 
       0.411186         120.434         92.0904         92.0904 
       0.417313         117.291         89.2503         89.2503 
       0.423458         114.388         86.5782         86.5782 
       0.429607         111.444         84.0306         84.0306 
       0.435692         107.755         81.5993         81.5993 
       0.441815         106.579         79.2194         79.2194 
       0.447964         104.443         76.8818         76.8818 
       0.454126         99.6669         74.6019         74.6019 
       0.460267         98.3655         72.4108         72.4108 
       0.466387         96.4734         70.3201         70.3201 
        0.47254         94.3383         68.3155         68.3155 
       0.478662         93.0949         66.4209         66.4209 
       0.484765         90.2563         64.6249         64.6249 
       0.490885         88.5115         62.9017         62.9017 
       0.497035         87.1971         61.2321         61.2321 
       0.503198         84.6207         59.6122         59.6122 
       0.509342         82.8009          58.047          58.047 
       0.515458         81.3633         56.5365         56.5365 
       0.521598          80.043          55.067          55.067 
       0.527764         78.6331         53.6413         53.6413 
       0.533884         77.2883         52.2791         52.2791 
           0.54         75.5354         50.9723         50.9723 
       0.546137         74.6159         49.7129         49.7129 
       0.552299         73.3655         48.4951         48.4951 
       0.558452         71.4989         47.3209         47.3209 
       0.564573         70.1529         46.1897         46.1897 
       0.570708          69.094          45.091          45.091 
       0.576825          67.921         44.0298         44.0298 
       0.582926         66.4352         43.0045         43.0045 
       0.589034         65.0525         42.0098         42.0098 
       0.595184         64.1302         41.0398         41.0398 
       0.601379         63.1703         40.0943         40.0943 
       0.607522         61.6076         39.1869         39.1869 
       0.613639         61.3182         38.3127         38.3127 
       0.619772         59.8846         37.4645         37.4645 
       0.625918         59.1596         36.6412         36.6412 
       0.632068         58.3995         35.8426         35.8426 
       0.638161         57.4705         35.0748         35.0748 
         0.6443         56.5784         34.3235         34.3235 
       0.650464         55.6938         33.5907         33.5907 
       0.656582         54.9661         32.8842         32.8842 
       0.662703         53.8426         32.1976         32.1976 
       0.668861         53.1362         31.5267         31.5267 
       0.675024         52.3477         30.8748         30.8748 
       0.681124         51.5462         30.2484         30.2484 
       0.687237         50.5458         29.6385         29.6385 
       0.693381         50.0509         29.0429         29.0429 
       0.699536          49.184         28.4629         28.4629 
       0.705665          49.262         27.9014         27.9014 
       0.711789         47.8558         27.3555         27.3555 
       0.717957         47.3715         26.8205         26.8205 
        0.72409         46.6982         26.3027         26.3027 
       0.730186         45.9028         25.8016         25.8016 
       0.736317         45.6685         25.3108         25.3108 
       0.742472         44.9359          24.831          24.831 
       0.748622         44.4212         24.3641         24.3641 
        0.75476         43.8436         23.9102         23.9102 
       0.760888         43.1262         23.4686         23.4686 
       0.767043          42.631         23.0365         23.0365 
       0.773185         42.0269         22.6162         22.6162 
       0.779291         41.7531         22.2089         22.2089 
       0.785407         41.3446          21.811          21.811 
       0.791564         40.6675         21.4205         21.4205 
       0.797719           39.89         21.0397         21.0397 
       0.803834         39.7456         20.6707         20.6707 
       0.809972         39.0327         20.3092         20.3092 
       0.816124         38.5373         19.9556         19.9556 
       0.822261          38.202         19.6113         19.6113 
       0.828378         37.9306         19.2763         19.2763 
       0.834502         37.4312         18.9488         18.9488 
       0.840667         37.0042         18.6269         18.6269 
       0.846816         36.4277         18.3133         18.3133 
       0.852925         36.1192          18.009          18.009 
       0.859047         35.6067          17.711          17.711 
       0.865192          35.275         17.4187         17.4187 
       0.871341         35.0982         17.1329         17.1329 
       0.877463         34.3855         16.8548         16.8548 
       0.883569         34.0748         16.5836         16.5836 
       0.889708         33.8095          16.317          16.317 
       0.895864         33.4362         16.0556         16.0556 
       0.902008          33.118         15.8005         15.8005 
       0.908149         32.7862         15.5511         15.5511 
       0.914301         32.5738         15.3067         15.3067 
       0.920448         32.1257         15.0678         15.0678 
       0.926574         31.7738         14.8348         14.8348 
       0.932687         31.4777         14.6073         14.6073 
       0.938823         31.0004         14.3837         14.3837 
       0.944975         30.8579         14.1643         14.1643 
       0.951105         30.5045         13.9503         13.9503 
       0.957225         30.1247          13.741          13.741 
       0.963368         30.0862         13.5354         13.5354 
       0.969511         29.7276         13.3339         13.3339 
       0.975621         29.4803         13.1377         13.1377 
       0.981748         29.0672         12.9449         12.9449 
       0.987916         28.8291         12.7547         12.7547 
        0.99406         28.6302         12.5691         12.5691 
        1.00019         28.2592         12.3876         12.3876 
        1.00632         28.0829         12.2098         12.2098 
        1.01246          27.913         12.0353         12.0353 
        1.01859          27.449         11.8644         11.8644 
        1.02471         27.3865         11.6971         11.6971 
        1.03085         27.1391         11.5324         11.5324 
        1.03698         26.7351         11.3713         11.3713 
        1.04314         26.5367         11.2125         11.2125 
        1.04929         26.3145         11.0571         11.0571 
        1.05541         26.0201         10.9053         10.9053 
        1.06154         25.9323          10.756          10.756 
        1.06769          25.667         10.6093         10.6093 
        1.07382         25.4782         10.4658         10.4658 
        1.07993         25.3229         10.3252         10.3252 
        1.08607         24.9759         10.1867         10.1867 
        1.09222         24.8697         10.0506         10.0506 
        1.09836         24.6184         9.91712         9.91712 
        1.10449          24.414         9.78623         9.78623 
        1.11063         24.0853         9.65756         9.65756 
        1.11677         23.9821         9.53125         9.53125 
         1.1229         23.8599         9.40743         9.40743 
        1.12903         23.5253          9.2857          9.2857 
        1.13518         23.4336         9.16602         9.16602 
        1.14131         23.3169         9.04852         9.04852 
        1.14745         23.0135         8.93314         8.93314 
        1.15359         22.9653         8.81976         8.81976 
        1.15973         22.6668          8.7083          8.7083 
        1.16584         22.4521         8.59927         8.59927 
        1.17197         22.4369         8.49195         8.49195 
        1.17811          22.145         8.38613         8.38613 
        1.18424         21.9563         8.28243         8.28243 
        1.19038         21.8825         8.18018         8.18018 
        1.19652         21.7573         8.07969         8.07969 
        1.20267         21.5748         7.98089         7.98089 
        1.20881         21.3607         7.88377         7.88377 
        1.21495         21.2048         7.78841         7.78841 
        1.22108         21.0595         7.69464         7.69464 
         1.2272         20.8135         7.60264         7.60264 
        1.23334         20.7519         7.51192         7.51192 
        1.23949         20.6162         7.42247         7.42247 
        1.24562         20.4457         7.33471         7.33471 
        1.25174         20.3493         7.24851         7.24851 
        1.25789         20.1578         7.16343         7.16343 
        1.26402         20.0617         7.07986         7.07986 
        1.27014         19.8163         6.99783         6.99783 
        1.27628         19.7117         6.91685         6.91685 
        1.28244         19.5934           6.837           6.837 
        1.28858         19.5067         6.75851         6.75851 
        1.29471          19.376         6.68144         6.68144 
        1.30084          19.232         6.60563         6.60563 
        1.30697         19.0571         6.53089         6.53089 
        1.31312         18.8838         6.45719         6.45719 
        1.31925         18.7907         6.38486         6.38486 
        1.32537         18.7095         6.31372         6.31372 
        1.33151         18.5443          6.2434          6.2434 
        1.33765         18.4793         6.17419         6.17419 
        1.34378         18.3494         6.10617         6.10617 
        1.34992         18.1401         6.03912         6.03912 
        1.35606         18.0726         5.97294         5.97294 
         1.3622         17.9554         5.90787         5.90787 
        1.36833         17.8044         5.84391         5.84391 
        1.37445         17.7932         5.78094         5.78094 
        1.38059         17.6255          5.7187          5.7187 
        1.38675         17.4269         5.65723         5.65723 
        1.39288         17.3998         5.59691         5.59691 
        1.39901         17.2531         5.53749         5.53749 
        1.40515         17.1716          5.4788          5.4788 
         1.4113         17.0494         5.42099         5.42099 
        1.41742         16.8822         5.36423         5.36423 
        1.42355           16.85         5.30817         5.30817 
         1.4297         16.7482         5.25275         5.25275 
        1.43585         16.6881         5.19813         5.19813 
        1.44198         16.5073         5.14451         5.14451 
        1.44809         16.4201         5.09173         5.09173 
        1.45423         16.3406         5.03951         5.03951 
        1.46036         16.2672         4.98811         4.98811 
        1.46649         16.1511          4.9374          4.9374 
        1.47263         16.0225         4.88736         4.88736 
        1.47877         15.9611         4.83803         4.83803 
        1.48491         15.8821          4.7893          4.7893 
        1.49104         15.8106         4.74135         4.74135 
        1.49718         15.6535         4.69401         4.69401 
        1.50333         15.6001         4.64724         4.64724 
        1.50947         15.5354         4.60121         4.60121 
         1.5156         15.3975         4.55586         4.55586 
        1.52172         15.2826         4.51113         4.51113 
        1.52787         15.2675          4.4669          4.4669 
          1.534         15.1305         4.42332         4.42332 
        1.54013         15.0026         4.38036         4.38036 
        1.54627         14.9574          4.3379          4.3379 
        1.55241         14.8611         4.29599         4.29599 
        1.55855         14.7675          4.2547          4.2547 
        1.56467         14.6845         4.21406         4.21406 
         1.5708         14.6553         4.17383         4.17383 
        1.57695         14.4976         4.13407         4.13407 
        1.58308         14.5014         4.09492         4.09492 
        1.58922         14.3919         4.05624         4.05624 
        1.59535         14.2918         4.01808         4.01808 
         1.6015         14.2144         3.98036         3.98036 
        1.60764         14.1697         3.94313         3.94313 
        1.61376         14.0438         3.90649         3.90649 
        1.61989         13.9502         3.87028         3.87028 
        1.62604         13.9314         3.83444         3.83444 
        1.63218         13.8386         3.79909         3.79909 
        1.63831         13.7928         3.76425         3.76425 
        1.64444         13.6735         3.72984         3.72984 
        1.65059         13.6001         3.69578         3.69578 
        1.65673          13.542         3.66218         3.66218 
        1.66285         13.4589         3.62909         3.62909 
        1.66898         13.4219         3.59639         3.59639 
        1.67512          13.359         3.56404         3.56404 
        1.68127         13.2744         3.53205         3.53205 
         1.6874         13.1908         3.50053         3.50053 
        1.69353         13.1212         3.46941         3.46941 
        1.69967         13.0358         3.43859         3.43859 
        1.70581         12.9779         3.40816         3.40816 
        1.71193          12.921         3.37821         3.37821 
        1.71806         12.8439         3.34856         3.34856 
        1.72421         12.7818         3.31921         3.31921 
        1.73035         12.7068         3.29024         3.29024 
        1.73649         12.6603         3.26162         3.26162 
        1.74262         12.6187         3.23336         3.23336 
        1.74876         12.5446         3.20542         3.20542 
        1.75489         12.4782         3.17786         3.17786 
        1.76101         12.3979         3.15064         3.15064 
        1.76715         12.3656          3.1237          3.1237 
        1.77329         12.2911         3.09703         3.09703 
        1.77943         12.2187         3.07067         3.07067 
        1.78557         12.1793         3.04465         3.04465 
        1.79171          12.132         3.01893         3.01893 
        1.79785         12.0201          2.9935          2.9935 
        1.80399         11.9775         2.96836         2.96836 
        1.81012         11.9651         2.94355         2.94355 
        1.81625         11.8838         2.91903         2.91903 
        1.82239          11.851         2.89475         2.89475 
        1.82853         11.7421         2.87076         2.87076 
        1.83466         11.6689         2.84707         2.84707 
        1.84078         11.6102         2.82366         2.82366 
        1.84692         11.6004         2.80048         2.80048 
        1.85306         11.5169         2.77753         2.77753 
         1.8592          11.476         2.75488         2.75488 
        1.86533          11.428         2.73249         2.73249 
        1.87147         11.3658         2.71032         2.71032 
