# k  (h/Mpc)    Pcb(k)  (Mpc/h)^3    Pcb_linear(k) (Mpc/h)^3    Pcb_NL(k) (Mpc/h)^3   ShotnoiseSubtracted = false
     0.00783031           10698         10841.7         10841.7 
       0.013688         12714.1         12621.9         12621.9 
       0.019231         12210.1         12171.9         12171.9 
      0.0249154           10589         10745.1         10745.1 
      0.0312784         8859.83         8901.01         8901.01 
      0.0375637         7389.78         7352.69         7352.69 
      0.0433917         6265.88         6315.08         6315.08 
      0.0492413          5617.8         5619.48         5619.48 
      0.0555754         5031.19         5120.98         5120.98 
      0.0619321         4767.02         4727.84         4727.84 
       0.067871          4292.1         4350.44         4350.44 
      0.0738098         3875.48         3923.16         3923.16 
      0.0800417         3382.79         3440.93         3440.93 
      0.0862327         2972.04         2982.01         2982.01 
      0.0921407         2648.62         2611.21         2611.21 
      0.0982031         2344.75         2323.53         2323.53 
       0.104506         2194.89         2120.47         2120.47 
       0.110769         2047.99         1989.23         1989.23 
       0.116806         1936.43         1894.94         1894.94 
       0.122832         1848.12         1801.66         1801.66 
       0.129052         1703.71         1686.81         1686.81 
       0.135211         1580.78         1551.83         1551.83 
       0.141259         1471.78         1409.79         1409.79 
       0.147318         1354.24         1274.41         1274.41 
       0.153489         1228.11         1157.59         1157.59 
       0.159709         1152.61         1067.89         1067.89 
       0.165845         1103.62         1005.12         1005.12 
       0.171974         1046.12         960.226         960.226 
       0.178125          1002.6         922.897         922.897 
       0.184229         961.723         884.636         884.636 
        0.19034         895.944          840.09          840.09 
       0.196428         867.623         789.235         789.235 
       0.202534         827.916         735.241         735.241 
       0.208729         775.646         682.565         682.565 
       0.214876         730.333         636.755         636.755 
       0.220989         701.775         599.692         599.692 
       0.227147         667.861         570.581         570.581 
        0.23329         641.821         547.554         547.554 
       0.239377         627.156         527.658         527.658 
       0.245482         585.651         507.876         507.876 
       0.251667         577.876         486.346         486.346 
       0.257832         554.403         463.114         463.114 
       0.263955         532.156         439.191         439.191 
       0.270079         509.287         415.906         415.906 
        0.27624         499.713         394.483         394.483 
       0.282372         479.085         375.949         375.949 
        0.28843         465.167         360.409         360.409 
       0.294538         442.385         346.959         346.959 
       0.300721         438.592         334.736         334.736 
        0.30691         418.034          322.98          322.98 
       0.313033         408.473          311.24          311.24 
       0.319153          394.08         299.181         299.181 
       0.325316          382.65         286.917         286.917 
        0.33145         369.636         274.969         274.969 
       0.337538         363.191         263.786         263.786 
       0.343633         350.726         253.543         253.543 
       0.349808         338.429         244.207         244.207 
       0.355968         334.101          235.82          235.82 
       0.362074         326.825         228.155         228.155 
       0.368217         317.418         220.836         220.836 
       0.374374         304.302         213.662         213.662 
       0.380519         300.953         206.562         206.562 
       0.386598         292.795         199.617         199.617 
       0.392688         289.212          192.81          192.81 
        0.39888         281.187         186.176         186.176 
       0.405048         273.951         179.954         179.954 
       0.411186         268.315         174.171         174.171 
       0.417313         262.971           168.8           168.8 
       0.423458         257.183         163.746         163.746 
       0.429607         251.849         158.928         158.928 
       0.435692         244.689         154.329         154.329 
       0.441815         242.301         149.828         149.828 
       0.447964         236.991         145.407         145.407 
       0.454126           228.5         141.095         141.095 
       0.460267         225.209         136.951         136.951 
       0.466387         222.505         132.997         132.997 
        0.47254         216.995         129.206         129.206 
       0.478662         216.095         125.622         125.622 
       0.484765         208.685         122.225         122.225 
       0.490885         205.825         118.966         118.966 
       0.497035         202.424         115.809         115.809 
       0.503198         197.635         112.745         112.745 
       0.509342         195.383         109.785         109.785 
       0.515458         192.554         106.928         106.928 
       0.521598         188.574         104.149         104.149 
       0.527764         185.836         101.452         101.452 
       0.533884         183.273         98.8758         98.8758 
           0.54         180.206         96.4042         96.4042 
       0.546137         178.731         94.0223         94.0223 
       0.552299         175.045          91.719          91.719 
       0.558452         173.042         89.4982         89.4982 
       0.564573         170.235         87.3588         87.3588 
       0.570708         166.657         85.2809         85.2809 
       0.576825         164.344         83.2739         83.2739 
       0.582926          161.71         81.3346         81.3346 
       0.589034          159.78         79.4534         79.4534 
       0.595184         157.729         77.6189         77.6189 
       0.601379         155.747         75.8305         75.8305 
       0.607522         152.647         74.1144         74.1144 
       0.613639         151.431         72.4611         72.4611 
       0.619772         148.258         70.8568         70.8568 
       0.625918         146.742         69.2997         69.2997 
       0.632068         144.798         67.7894         67.7894 
       0.638161         143.598         66.3372         66.3372 
         0.6443         141.485         64.9162         64.9162 
       0.650464         139.903         63.5303         63.5303 
       0.656582         137.961          62.194          62.194 
       0.662703          136.58         60.8954         60.8954 
       0.668861         134.241         59.6267         59.6267 
       0.675024         132.395         58.3937         58.3937 
       0.681124         131.605         57.2089         57.2089 
       0.687237         129.353         56.0555         56.0555 
       0.693381          127.37         54.9291         54.9291 
       0.699536          126.49         53.8321         53.8321 
       0.705665         125.893           52.77           52.77 
       0.711789         123.325         51.7377         51.7377 
       0.717957          122.91         50.7257         50.7257 
        0.72409         120.971         49.7464         49.7464 
       0.730186          119.12         48.7987         48.7987 
       0.736317         118.234         47.8705         47.8705 
       0.742472         117.314          46.963          46.963 
       0.748622         116.088         46.0799         46.0799 
        0.75476         114.902         45.2215         45.2215 
       0.760888         113.337         44.3863         44.3863 
       0.767043         112.789          43.569          43.569 
       0.773185         111.493         42.7742         42.7742 
       0.779291         109.618         42.0038         42.0038 
       0.785407          109.07         41.2513         41.2513 
       0.791564         108.038         40.5127         40.5127 
       0.797719         106.129         39.7925         39.7925 
       0.803834         105.625         39.0945         39.0945 
       0.809972         104.382         38.4108         38.4108 
       0.816124         103.944          37.742          37.742 
       0.822261         102.801          37.091          37.091 
       0.828378         101.823         36.4574         36.4574 
       0.834502         101.386          35.838          35.838 
       0.840667         99.7716         35.2291         35.2291 
       0.846816         98.6568         34.6361         34.6361 
       0.852925         98.0983         34.0605         34.0605 
       0.859047         96.8087         33.4968         33.4968 
       0.865192         96.0615         32.9441         32.9441 
       0.871341         95.2349         32.4035         32.4035 
       0.877463         94.1045         31.8776         31.8776 
       0.883569           93.72         31.3647         31.3647 
       0.889708         92.8409         30.8604         30.8604 
       0.895864         91.8874          30.366          30.366 
       0.902008          91.201         29.8835         29.8835 
       0.908149         90.6206         29.4119         29.4119 
       0.914301         89.6014         28.9496         28.9496 
       0.920448         88.9309         28.4977         28.4977 
       0.926574         88.1916         28.0571         28.0571 
       0.932687         88.0536         27.6268         27.6268 
       0.938823         86.5742          27.204          27.204 
       0.944975         85.7085          26.789          26.789 
       0.951105         85.2242         26.3842         26.3842 
       0.957225         84.3085         25.9885         25.9885 
       0.963368          83.622         25.5995         25.5995 
       0.969511         83.4171         25.2185         25.2185 
       0.975621         82.8616         24.8474         24.8474 
       0.981748         82.1664         24.4827         24.4827 
       0.987916         81.2509         24.1231         24.1231 
        0.99406         80.6718         23.7721         23.7721 
        1.00019         80.1983         23.4288         23.4288 
        1.00632         79.4943         23.0925         23.0925 
        1.01246         79.0008         22.7624         22.7624 
        1.01859         77.9711         22.4392         22.4392 
        1.02471         77.6498         22.1228         22.1228 
        1.03085         76.9246         21.8113         21.8113 
        1.03698         76.5474         21.5065         21.5065 
        1.04314         75.7925         21.2062         21.2062 
        1.04929         75.3025         20.9124         20.9124 
        1.05541         74.6034         20.6253         20.6253 
        1.06154         74.3494         20.3429         20.3429 
        1.06769         73.9202         20.0654         20.0654 
        1.07382         73.4367          19.794          19.794 
        1.07993         72.8492         19.5282         19.5282 
        1.08607         72.2623         19.2662         19.2662 
        1.09222          71.983         19.0087         19.0087 
        1.09836         71.3165         18.7563         18.7563 
        1.10449         70.8833         18.5087         18.5087 
        1.11063         70.2582         18.2654         18.2654 
        1.11677         69.9412         18.0265         18.0265 
         1.1229         69.1837         17.7923         17.7923 
        1.12903         68.5274         17.5621         17.5621 
        1.13518         68.6588         17.3357         17.3357 
        1.14131         68.1336         17.1135         17.1135 
        1.14745         67.4296         16.8953         16.8953 
        1.15359         67.0884         16.6809         16.6809 
        1.15973          66.637           16.47           16.47 
        1.16584          66.118         16.2638         16.2638 
        1.17197         65.7356         16.0609         16.0609 
        1.17811          65.328         15.8607         15.8607 
        1.18424         64.8616         15.6646         15.6646 
        1.19038         64.4617         15.4712         15.4712 
        1.19652         64.1197         15.2812         15.2812 
        1.20267         63.4582         15.0943         15.0943 
        1.20881         63.1814         14.9106         14.9106 
        1.21495         62.6927         14.7303         14.7303 
        1.22108         62.4549         14.5529         14.5529 
         1.2272         61.7398         14.3789         14.3789 
        1.23334         61.5231         14.2073         14.2073 
        1.23949         61.2089         14.0381         14.0381 
        1.24562         60.7177         13.8722         13.8722 
        1.25174         60.4062         13.7091         13.7091 
        1.25789         60.1596         13.5482         13.5482 
        1.26402         59.7493         13.3902         13.3902 
        1.27014         59.1827          13.235          13.235 
        1.27628         58.9184         13.0819         13.0819 
        1.28244         58.4747         12.9308         12.9308 
        1.28858         58.2899         12.7824         12.7824 
        1.29471         57.9872         12.6366         12.6366 
        1.30084         57.5729         12.4933         12.4933 
        1.30697         57.1715         12.3519         12.3519 
        1.31312         56.8301         12.2125         12.2125 
        1.31925         56.5281         12.0757         12.0757 
        1.32537         56.2676         11.9412         11.9412 
        1.33151         55.6986         11.8082         11.8082 
        1.33765         55.4795         11.6773         11.6773 
        1.34378         55.1266         11.5486         11.5486 
        1.34992         54.8797         11.4218         11.4218 
        1.35606         54.5534         11.2967         11.2967 
         1.3622         54.0412         11.1736         11.1736 
        1.36833         53.8894         11.0526         11.0526 
        1.37445         53.5524         10.9335         10.9335 
        1.38059         53.1534         10.8158         10.8158 
        1.38675         52.8681         10.6996         10.6996 
        1.39288         52.5455         10.5855         10.5855 
        1.39901          52.352         10.4731         10.4731 
        1.40515          51.987         10.3621         10.3621 
         1.4113         51.7537         10.2527         10.2527 
        1.41742         51.6315         10.1454         10.1454 
        1.42355         51.1081         10.0394         10.0394 
         1.4297         50.9306         9.93454         9.93454 
        1.43585         50.5537         9.83126         9.83126 
        1.44198         50.2402         9.72983         9.72983 
        1.44809         50.0588         9.63002         9.63002 
        1.45423         49.7654         9.53124         9.53124 
        1.46036         49.5562         9.43403         9.43403 
        1.46649         49.2673         9.33813         9.33813 
        1.47263         48.8811         9.24349         9.24349 
        1.47877         48.6719         9.15019         9.15019 
        1.48491         48.5348         9.05803         9.05803 
        1.49104         48.1717         8.96733         8.96733 
        1.49718         47.7356          8.8778          8.8778 
        1.50333         47.6272         8.78935         8.78935 
        1.50947         47.3917         8.70228         8.70228 
         1.5156         47.0653         8.61652         8.61652 
        1.52172         46.8915         8.53191         8.53191 
        1.52787         46.7564         8.44827         8.44827 
          1.534         46.3573         8.36584         8.36584 
        1.54013         46.1034          8.2846          8.2846 
        1.54627         45.9544         8.20429         8.20429 
        1.55241          45.511         8.12503         8.12503 
        1.55855          45.327         8.04692         8.04692 
        1.56467         44.9924         7.97006         7.97006 
         1.5708         45.0009         7.89398         7.89398 
        1.57695         44.7499         7.81878         7.81878 
        1.58308         44.3804         7.74473         7.74473 
        1.58922         44.2823         7.67159         7.67159 
        1.59535         44.1289         7.59941         7.59941 
         1.6015         43.6864         7.52807         7.52807 
        1.60764         43.5082         7.45767         7.45767 
        1.61376          43.276         7.38836         7.38836 
        1.61989         43.0238         7.31987         7.31987 
        1.62604         42.8675          7.2521          7.2521 
        1.63218         42.7733         7.18523         7.18523 
        1.63831         42.4259         7.11935         7.11935 
        1.64444         42.2054         7.05427         7.05427 
        1.65059         41.9813         6.98984         6.98984 
        1.65673         41.7799         6.92629         6.92629 
        1.66285          41.477         6.86371         6.86371 
        1.66898         41.3509         6.80188         6.80188 
        1.67512         41.0539         6.74068         6.74068 
        1.68127         40.8409         6.68019         6.68019 
         1.6874         40.7033         6.62056         6.62056 
        1.69353         40.4558         6.56171         6.56171 
        1.69967         40.2824         6.50342         6.50342 
        1.70581         40.1709         6.44587         6.44587 
        1.71193         39.9641         6.38923         6.38923 
        1.71806         39.5657         6.33315         6.33315 
        1.72421         39.4708         6.27763         6.27763 
        1.73035         39.2909         6.22284         6.22284 
        1.73649         38.9455         6.16871         6.16871 
        1.74262         38.8866         6.11527         6.11527 
        1.74876          38.698         6.06242         6.06242 
        1.75489         38.4928          6.0103          6.0103 
        1.76101          38.329         5.95882         5.95882 
        1.76715         38.0647         5.90786         5.90786 
        1.77329         37.8711         5.85743         5.85743 
        1.77943         37.6883         5.80757         5.80757 
        1.78557         37.5414         5.75836         5.75836 
        1.79171         37.3394         5.70971         5.70971 
        1.79785         37.1551         5.66161         5.66161 
        1.80399          37.059         5.61407         5.61407 
        1.81012         36.7774         5.56715         5.56715 
        1.81625         36.5336         5.52077         5.52077 
        1.82239         36.4514         5.47486         5.47486 
        1.82853          36.173         5.42948         5.42948 
        1.83466         36.0153         5.38467         5.38467 
        1.84078         35.7809          5.3404          5.3404 
        1.84692         35.6278         5.29656         5.29656 
        1.85306          35.443         5.25316         5.25316 
         1.8592         35.2199         5.21031         5.21031 
        1.86533         35.1275         5.16796         5.16796 
        1.87147         34.9898         5.12603         5.12603 
