# k  (h/Mpc)    Pcb(k)  (Mpc/h)^3    Pcb_linear(k) (Mpc/h)^3    Pcb_NL(k) (Mpc/h)^3   ShotnoiseSubtracted = false
     0.00783031         1173.63         1185.81         1185.81 
       0.013688         1379.82         1381.38         1381.38 
       0.019231         1333.17         1332.46         1332.46 
      0.0249154         1170.91         1176.43         1176.43 
      0.0312784         975.102         974.608         974.608 
      0.0375637         808.201         805.117         805.117 
      0.0433917         691.489         691.521         691.521 
      0.0492413           616.4         615.364         615.364 
      0.0555754         558.742         560.786         560.786 
      0.0619321         519.941         517.741         517.741 
       0.067871         475.074         476.417         476.417 
      0.0738098         428.237         429.629         429.629 
      0.0800417         375.005         376.822         376.822 
      0.0862327           326.3         326.566         326.566 
      0.0921407         286.714          285.96          285.96 
      0.0982031         254.393         254.457         254.457 
       0.104506         233.955          232.22          232.22 
       0.110769         218.973         217.848         217.848 
       0.116806          207.45         207.522         207.522 
       0.122832         197.946         197.307         197.307 
       0.129052         184.368          184.73          184.73 
       0.135211         169.689         169.948         169.948 
       0.141259         155.098         154.393         154.393 
       0.147318         140.919         139.567         139.567 
       0.153489         127.747         126.773         126.773 
       0.159709         118.078          116.95          116.95 
       0.165845         111.901         110.076         110.076 
       0.171974         105.992         105.159         105.159 
       0.178125          102.01         101.071         101.071 
       0.184229         97.9719         96.8811         96.8811 
        0.19034          92.177         92.0026         92.0026 
       0.196428         87.3042         86.4333         86.4333 
       0.202534         82.1446         80.5202         80.5202 
       0.208729          76.032         74.7513         74.7513 
       0.214876         70.7018         69.7345         69.7345 
       0.220989         67.2471         65.6755         65.6755 
       0.227147         63.4763         62.4875         62.4875 
        0.23329          60.926         59.9657         59.9657 
       0.239377         58.8547         57.7867         57.7867 
       0.245482          56.236         55.6203         55.6203 
       0.251667         54.3333         53.2625         53.2625 
       0.257832         51.7578         50.7182         50.7182 
       0.263955         49.1688         48.0982         48.0982 
       0.270079         46.7092         45.5482         45.5482 
        0.27624         44.7024          43.202          43.202 
       0.282372          42.676         41.1723         41.1723 
        0.28843         40.7548         39.4704         39.4704 
       0.294538          39.191         37.9975         37.9975 
       0.300721         38.0871         36.6588         36.6588 
        0.30691         36.5205         35.3714         35.3714 
       0.313033         35.2191         34.0857         34.0857 
       0.319153         33.5202         32.7651         32.7651 
       0.325316         32.7063          31.422          31.422 
        0.33145         31.2679         30.1135         30.1135 
       0.337538         30.1225         28.8888         28.8888 
       0.343633         28.8889          27.767          27.767 
       0.349808         27.9443         26.7445         26.7445 
       0.355968         27.0578         25.8261         25.8261 
       0.362074         26.1445         24.9866         24.9866 
       0.368217         25.3047         24.1851         24.1851 
       0.374374         24.4323         23.3994         23.3994 
       0.380519         23.7414         22.6218         22.6218 
       0.386598         23.0008         21.8612         21.8612 
       0.392688         22.3599         21.1157         21.1157 
        0.39888         21.5639         20.3893         20.3893 
       0.405048         20.9263         19.7078         19.7078 
       0.411186         20.3089         19.0745         19.0745 
       0.417313         19.6153         18.4862         18.4862 
       0.423458         19.0701         17.9328         17.9328 
       0.429607         18.4854         17.4051         17.4051 
       0.435692         17.9397         16.9015         16.9015 
       0.441815         17.4851         16.4086         16.4086 
       0.447964         17.0971         15.9244         15.9244 
       0.454126         16.4459         15.4522         15.4522 
       0.460267         16.0501         14.9983         14.9983 
       0.466387         15.5193         14.5653         14.5653 
        0.47254         15.1841         14.1501         14.1501 
       0.478662         14.8421         13.7576         13.7576 
       0.484765         14.3761         13.3856         13.3856 
       0.490885         14.0207         13.0287         13.0287 
       0.497035          13.775         12.6829         12.6829 
       0.503198         13.3799         12.3474         12.3474 
       0.509342         13.0404         12.0232         12.0232 
       0.515458         12.6817         11.7103         11.7103 
       0.521598         12.4021         11.4059         11.4059 
       0.527764         12.0723         11.1106         11.1106 
       0.533884         11.8439         10.8285         10.8285 
           0.54         11.5427         10.5578         10.5578 
       0.546137         11.2988          10.297          10.297 
       0.552299         11.0539         10.0447         10.0447 
       0.558452         10.7114         9.80149         9.80149 
       0.564573         10.5339         9.56719         9.56719 
       0.570708         10.2998         9.33962         9.33962 
       0.576825         10.0209         9.11983         9.11983 
       0.582926         9.82655         8.90745         8.90745 
       0.589034         9.52904         8.70142         8.70142 
       0.595184         9.36705         8.50051         8.50051 
       0.601379         9.14472         8.30466         8.30466 
       0.607522         8.98898         8.11672         8.11672 
       0.613639         8.84281         7.93565         7.93565 
       0.619772         8.59354         7.75996         7.75996 
       0.625918          8.4888         7.58943         7.58943 
       0.632068         8.33814         7.42402         7.42402 
       0.638161         8.11296         7.26499         7.26499 
         0.6443         7.93998         7.10936         7.10936 
       0.650464         7.75746         6.95759         6.95759 
       0.656582         7.67421         6.81124         6.81124 
       0.662703          7.5138         6.66903         6.66903 
       0.668861         7.36814         6.53008         6.53008 
       0.675024         7.20335         6.39505         6.39505 
       0.681124         7.06583          6.2653          6.2653 
       0.687237         6.94179         6.13897         6.13897 
       0.693381          6.8228         6.01561         6.01561 
       0.699536         6.63522         5.89548         5.89548 
       0.705665          6.5417         5.77917         5.77917 
       0.711789         6.42183         5.66611         5.66611 
       0.717957         6.29522         5.55528         5.55528 
        0.72409         6.17658         5.44803         5.44803 
       0.730186         6.08553         5.34424         5.34424 
       0.736317         6.00542         5.24259         5.24259 
       0.742472          5.8971          5.1432          5.1432 
       0.748622         5.78515         5.04649         5.04649 
        0.75476         5.65147         4.95248         4.95248 
       0.760888         5.56845         4.86102         4.86102 
       0.767043         5.49367         4.77151         4.77151 
       0.773185         5.37009         4.68446         4.68446 
       0.779291         5.30974         4.60009         4.60009 
       0.785407         5.21628         4.51768         4.51768 
       0.791564         5.12916         4.43679         4.43679 
       0.797719         5.03267         4.35792         4.35792 
       0.803834          4.9823         4.28148         4.28148 
       0.809972         4.90908         4.20661         4.20661 
       0.816124         4.79657         4.13336         4.13336 
       0.822261         4.71052         4.06206         4.06206 
       0.828378          4.6518         3.99267         3.99267 
       0.834502         4.59962         3.92484         3.92484 
       0.840667         4.50024         3.85815         3.85815 
       0.846816         4.41913         3.79321         3.79321 
       0.852925         4.37525         3.73017         3.73017 
       0.859047          4.3037         3.66844         3.66844 
       0.865192         4.25067         3.60791         3.60791 
       0.871341         4.19205         3.54871         3.54871 
       0.877463         4.12277         3.49111         3.49111 
       0.883569         4.04517         3.43494         3.43494 
       0.889708          3.9763         3.37972         3.37972 
       0.895864          3.9252         3.32557         3.32557 
       0.902008          3.8728         3.27273         3.27273 
       0.908149         3.82465         3.22107         3.22107 
       0.914301          3.7541         3.17045         3.17045 
       0.920448         3.69653         3.12096         3.12096 
       0.926574          3.6415         3.07271         3.07271 
       0.932687         3.59728         3.02558         3.02558 
       0.938823         3.54759         2.97927         2.97927 
       0.944975         3.49617         2.93383         2.93383 
       0.951105         3.45198          2.8895          2.8895 
       0.957225         3.42793         2.84616         2.84616 
       0.963368         3.36998         2.80356         2.80356 
       0.969511         3.31866         2.76184         2.76184 
       0.975621          3.2696         2.72119         2.72119 
       0.981748         3.23232         2.68125         2.68125 
       0.987916         3.18781         2.64187         2.64187 
        0.99406         3.13102         2.60343         2.60343 
        1.00019         3.08947         2.56583         2.56583 
        1.00632         3.05698           2.529           2.529 
        1.01246          3.0177         2.49285         2.49285 
        1.01859         2.97646         2.45746         2.45746 
        1.02471         2.93915          2.4228          2.4228 
        1.03085         2.89911         2.38869         2.38869 
        1.03698         2.85676         2.35531         2.35531 
        1.04314         2.82696         2.32243         2.32243 
        1.04929         2.78903         2.29025         2.29025 
        1.05541         2.75166         2.25881         2.25881 
        1.06154          2.7205         2.22788         2.22788 
        1.06769         2.69745         2.19749         2.19749 
        1.07382         2.65228         2.16776         2.16776 
        1.07993         2.61318         2.13865         2.13865 
        1.08607          2.5961         2.10996         2.10996 
        1.09222         2.55851         2.08176         2.08176 
        1.09836         2.53106         2.05412         2.05412 
        1.10449         2.50126         2.02701         2.02701 
        1.11063         2.46504         2.00036         2.00036 
        1.11677         2.43953         1.97419         1.97419 
         1.1229         2.40962         1.94855         1.94855 
        1.12903          2.3777         1.92333         1.92333 
        1.13518         2.35338         1.89854         1.89854 
        1.14131         2.31671         1.87421         1.87421 
        1.14745          2.2816         1.85031         1.85031 
        1.15359         2.26774         1.82682         1.82682 
        1.15973         2.23248         1.80374         1.80374 
        1.16584         2.21424         1.78115         1.78115 
        1.17197         2.18763         1.75892         1.75892 
        1.17811         2.16782         1.73701         1.73701 
        1.18424          2.1438         1.71553         1.71553 
        1.19038         2.11991         1.69435         1.69435 
        1.19652         2.09566         1.67353         1.67353 
        1.20267         2.07318         1.65307         1.65307 
        1.20881         2.04816         1.63295         1.63295 
        1.21495         2.02907          1.6132          1.6132 
        1.22108         2.00522         1.59378         1.59378 
         1.2272         1.98742         1.57472         1.57472 
        1.23334         1.95808         1.55593         1.55593 
        1.23949         1.93623          1.5374          1.5374 
        1.24562         1.92165         1.51923         1.51923 
        1.25174         1.89602         1.50137         1.50137 
        1.25789         1.87926         1.48375         1.48375 
        1.26402         1.85567         1.46644         1.46644 
        1.27014         1.83581         1.44945         1.44945 
        1.27628         1.82279         1.43268         1.43268 
        1.28244         1.79563         1.41614         1.41614 
        1.28858         1.78294         1.39988         1.39988 
        1.29471         1.75969         1.38392         1.38392 
        1.30084         1.73945         1.36821         1.36821 
        1.30697         1.73045         1.35273         1.35273 
        1.31312         1.69849         1.33747         1.33747 
        1.31925         1.68816         1.32249         1.32249 
        1.32537         1.66968         1.30775         1.30775 
        1.33151         1.65929         1.29319         1.29319 
        1.33765         1.63516         1.27885         1.27885 
        1.34378         1.62082         1.26476         1.26476 
        1.34992         1.60971         1.25088         1.25088 
        1.35606         1.58334         1.23717         1.23717 
         1.3622         1.57527         1.22369         1.22369 
        1.36833         1.55762         1.21044         1.21044 
        1.37445         1.54002          1.1974          1.1974 
        1.38059         1.53076         1.18451         1.18451 
        1.38675         1.51911         1.17177         1.17177 
        1.39288         1.49956         1.15928         1.15928 
        1.39901         1.48149         1.14697         1.14697 
        1.40515         1.46852         1.13482         1.13482 
         1.4113         1.45593         1.12284         1.12284 
        1.41742          1.4432         1.11108         1.11108 
        1.42355         1.43147         1.09947         1.09947 
         1.4297         1.41399         1.08799         1.08799 
        1.43585          1.4045         1.07668         1.07668 
        1.44198         1.39266         1.06557         1.06557 
        1.44809           1.375         1.05464         1.05464 
        1.45423         1.36258         1.04383         1.04383 
        1.46036         1.34906         1.03318         1.03318 
        1.46649         1.33739         1.02268         1.02268 
        1.47263         1.32314         1.01231         1.01231 
        1.47877         1.30967         1.00209         1.00209 
        1.48491         1.29942        0.992002        0.992002 
        1.49104          1.2891        0.982069        0.982069 
        1.49718         1.27749        0.972264        0.972264 
        1.50333         1.26464        0.962577        0.962577 
        1.50947         1.25452        0.953042        0.953042 
         1.5156         1.24243         0.94365         0.94365 
        1.52172         1.23135        0.934383        0.934383 
        1.52787         1.22014        0.925223        0.925223 
          1.534         1.20929        0.916196        0.916196 
        1.54013         1.19815        0.907299        0.907299 
        1.54627         1.18558        0.898504        0.898504 
        1.55241         1.17532        0.889823        0.889823 
        1.55855         1.16754        0.881269        0.881269 
        1.56467         1.15752        0.872852        0.872852 
         1.5708         1.14409         0.86452         0.86452 
        1.57695         1.13715        0.856284        0.856284 
        1.58308         1.12601        0.848175        0.848175 
        1.58922         1.11756        0.840164        0.840164 
        1.59535          1.1075         0.83226         0.83226 
         1.6015          1.0981        0.824446        0.824446 
        1.60764         1.09063        0.816736        0.816736 
        1.61376         1.08121        0.809146        0.809146 
        1.61989         1.07026        0.801646        0.801646 
        1.62604         1.06038        0.794224        0.794224 
        1.63218         1.05521          0.7869          0.7869 
        1.63831         1.04347        0.779685        0.779685 
        1.64444         1.03461        0.772557        0.772557 
        1.65059         1.02744        0.765502        0.765502 
        1.65673         1.01811        0.758542        0.758542 
        1.66285         1.00867        0.751688        0.751688 
        1.66898         1.00292        0.744917        0.744917 
        1.67512        0.991004        0.738215        0.738215 
        1.68127        0.984401         0.73159         0.73159 
         1.6874        0.979653         0.72506         0.72506 
        1.69353         0.96659        0.718614        0.718614 
        1.69967        0.959116        0.712231        0.712231 
        1.70581        0.955299        0.705928        0.705928 
        1.71193        0.945323        0.699725        0.699725 
        1.71806        0.939978        0.693583        0.693583 
        1.72421        0.931712        0.687503        0.687503 
        1.73035        0.922568        0.681502        0.681502 
        1.73649        0.916658        0.675575        0.675575 
        1.74262        0.909165        0.669722        0.669722 
        1.74876        0.902168        0.663934        0.663934 
        1.75489        0.892739        0.658227        0.658227 
        1.76101        0.886667        0.652588        0.652588 
        1.76715        0.880673        0.647007        0.647007 
        1.77329        0.874475        0.641485        0.641485 
        1.77943         0.86516        0.636024        0.636024 
        1.78557        0.859194        0.630635        0.630635 
        1.79171        0.855294        0.625307        0.625307 
        1.79785        0.845783        0.620039        0.620039 
        1.80399        0.840465        0.614833        0.614833 
        1.81012        0.834673        0.609694        0.609694 
        1.81625        0.827425        0.604615        0.604615 
        1.82239        0.821358        0.599586        0.599586 
        1.82853        0.812434        0.594617        0.594617 
        1.83466        0.808716        0.589709        0.589709 
        1.84078        0.802322        0.584862        0.584862 
        1.84692        0.797702         0.58006         0.58006 
        1.85306         0.79042        0.575307        0.575307 
         1.8592        0.784698        0.570614        0.570614 
        1.86533        0.778197        0.565977        0.565977 
        1.87147        0.773557        0.561385        0.561385 
