# k  (h/Mpc)    P(k)  (Mpc/h)^3    P_linear(k)  (Mpc/h)^3     P_NL(k)  ShotnoiseSubtracted = false
     0.00783031         11207.9         11360.1         11360.1 
       0.013688         13326.1         13225.1         13225.1 
       0.019231         12794.3         12753.6         12753.6 
      0.0249154         11089.4         11258.6         11258.6 
      0.0312784         9280.02         9326.29         9326.29 
      0.0375637         7742.51         7703.97         7703.97 
      0.0433917          6562.3         6616.79         6616.79 
      0.0492413         5885.06         5887.94         5887.94 
      0.0555754         5267.45         5365.63         5365.63 
      0.0619321         4994.44          4953.7          4953.7 
       0.067871            4494         4558.28         4558.28 
      0.0738098         4058.28         4110.58         4110.58 
      0.0800417         3541.99         3605.31         3605.31 
      0.0862327         3113.36         3124.47         3124.47 
      0.0921407         2776.64         2735.95         2735.95 
      0.0982031         2458.22         2434.53         2434.53 
       0.104506         2302.65         2221.77         2221.77 
       0.110769         2148.26         2084.26         2084.26 
       0.116806         2031.57         1985.46         1985.46 
       0.122832         1938.45         1887.73         1887.73 
       0.129052         1786.32          1767.4          1767.4 
       0.135211         1658.08         1625.96         1625.96 
       0.141259          1545.1         1477.14         1477.14 
       0.147318         1422.65         1335.29         1335.29 
       0.153489         1290.35         1212.89         1212.89 
       0.159709         1211.77          1118.9          1118.9 
       0.165845         1160.82         1053.14         1053.14 
       0.171974         1100.69          1006.1          1006.1 
       0.178125         1054.49         966.985         966.985 
       0.184229         1011.22         926.896         926.896 
        0.19034         942.409         880.221         880.221 
       0.196428         913.078         826.938         826.938 
       0.202534         871.503         770.364         770.364 
       0.208729         817.113         715.172         715.172 
       0.214876         770.188         667.174         667.174 
       0.220989          740.23         628.339         628.339 
       0.227147          704.97         597.837         597.837 
        0.23329         677.468         573.711         573.711 
       0.239377         662.263         552.864         552.864 
       0.245482         618.301         532.136         532.136 
       0.251667         610.471         509.578         509.578 
       0.257832         585.534         485.238         485.238 
       0.263955          562.37         460.171         460.171 
       0.270079         538.387         435.774         435.774 
        0.27624         528.656         413.326         413.326 
       0.282372         506.805         393.907         393.907 
        0.28843         492.801         377.625         377.625 
       0.294538         468.394         363.533         363.533 
       0.300721         464.636         350.726         350.726 
        0.30691         442.925         338.408         338.408 
       0.313033         432.985         326.108         326.108 
       0.319153         418.245         313.473         313.473 
       0.325316         405.948         300.624         300.624 
        0.33145         392.424         288.105         288.105 
       0.337538         385.615         276.387         276.387 
       0.343633         372.575         265.656         265.656 
       0.349808         359.419         255.873         255.873 
       0.355968         355.103         247.085         247.085 
       0.362074         347.714         239.054         239.054 
       0.368217         337.699         231.385         231.385 
       0.374374         323.458         223.869         223.869 
       0.380519         320.293         216.429         216.429 
       0.386598         311.618         209.152         209.152 
       0.392688         308.083         202.021         202.021 
        0.39888         299.462         195.069         195.069 
       0.405048         291.888         188.551         188.551 
       0.411186         286.066         182.491         182.491 
       0.417313         280.395         176.863         176.863 
       0.423458         274.275         171.568         171.568 
       0.429607         268.779          166.52          166.52 
       0.435692         261.281         161.702         161.702 
       0.441815         258.716         156.986         156.986 
       0.447964         252.989         152.353         152.353 
       0.454126          244.41         147.835         147.835 
       0.460267         240.739         143.493         143.493 
       0.466387         237.876          139.35          139.35 
        0.47254         232.073         135.378         135.378 
       0.478662         231.234         131.623         131.623 
       0.484765         223.206         128.064         128.064 
       0.490885         220.279         124.649         124.649 
       0.497035         216.547         121.341         121.341 
       0.503198         211.693         118.131         118.131 
       0.509342         209.449         115.029         115.029 
       0.515458         206.455         112.036         112.036 
       0.521598          202.03         109.124         109.124 
       0.527764         199.086         106.299         106.299 
       0.533884          196.48         103.599         103.599 
           0.54         193.282          101.01          101.01 
       0.546137         191.793         98.5138         98.5138 
       0.552299          187.76         96.1005         96.1005 
       0.558452         185.854         93.7736         93.7736 
       0.564573         182.895         91.5319         91.5319 
       0.570708         178.987         89.3548         89.3548 
       0.576825         176.421         87.2519         87.2519 
       0.582926         173.783           85.22           85.22 
       0.589034         171.795         83.2489         83.2489 
       0.595184         169.665         81.3268         81.3268 
       0.601379         167.506          79.453          79.453 
       0.607522         164.302         77.6549         77.6549 
       0.613639         162.949         75.9226         75.9226 
       0.619772         159.528         74.2417         74.2417 
       0.625918         158.061         72.6102         72.6102 
       0.632068         155.848         71.0277         71.0277 
       0.638161          154.67         69.5062         69.5062 
         0.6443         152.326         68.0172         68.0172 
       0.650464         150.639         66.5652         66.5652 
       0.656582         148.684          65.165          65.165 
       0.662703         147.387         63.8044         63.8044 
       0.668861         144.791         62.4751         62.4751 
       0.675024         142.769         61.1832         61.1832 
       0.681124         141.968         59.9418         59.9418 
       0.687237         139.663         58.7333         58.7333 
       0.693381         137.477          57.553          57.553 
       0.699536         136.537         56.4037         56.4037 
       0.705665         135.746         55.2909         55.2909 
       0.711789         133.227         54.2092         54.2092 
       0.717957         132.788         53.1489         53.1489 
        0.72409         130.753         52.1228         52.1228 
       0.730186         128.809         51.1298         51.1298 
       0.736317         127.721         50.1573         50.1573 
       0.742472         126.785         49.2064         49.2064 
       0.748622         125.501         48.2812         48.2812 
        0.75476         124.241         47.3817         47.3817 
       0.760888         122.586         46.5067         46.5067 
       0.767043         122.073         45.6504         45.6504 
       0.773185         120.699         44.8175         44.8175 
       0.779291         118.548         44.0103         44.0103 
       0.785407          118.02         43.2219         43.2219 
       0.791564         116.919          42.448          42.448 
       0.797719         114.878         41.6934         41.6934 
       0.803834         114.331         40.9621         40.9621 
       0.809972         113.131         40.2457         40.2457 
       0.816124         112.655          39.545          39.545 
       0.822261         111.381         38.8629         38.8629 
       0.828378         110.308         38.1989         38.1989 
       0.834502         109.944           37.55           37.55 
       0.840667         108.132          36.912          36.912 
       0.846816         106.965         36.2906         36.2906 
       0.852925         106.419         35.6876         35.6876 
       0.859047         105.064          35.097          35.097 
       0.865192         104.175         34.5179         34.5179 
       0.871341         103.281         33.9515         33.9515 
       0.877463         102.126         33.4004         33.4004 
       0.883569         101.762          32.863          32.863 
       0.889708         100.772         32.3347         32.3347 
       0.895864         99.6718         31.8166         31.8166 
       0.902008         98.9869         31.3111         31.3111 
       0.908149         98.4142         30.8169         30.8169 
       0.914301         97.2775         30.3325         30.3325 
       0.920448         96.5394         29.8591         29.8591 
       0.926574         95.7906         29.3974         29.3974 
       0.932687          95.649         28.9465         28.9465 
       0.938823         94.0668         28.5035         28.5035 
       0.944975          93.118         28.0687         28.0687 
       0.951105         92.6298         27.6446         27.6446 
       0.957225         91.6616           27.23           27.23 
       0.963368         90.7863         26.8224         26.8224 
       0.969511         90.6261         26.4232         26.4232 
       0.975621         90.0085         26.0343         26.0343 
       0.981748         89.3543         25.6523         25.6523 
       0.987916         88.3345         25.2755         25.2755 
        0.99406         87.6752         24.9077         24.9077 
        1.00019          87.276          24.548          24.548 
        1.00632          86.429         24.1956         24.1956 
        1.01246         85.9339         23.8497         23.8497 
        1.01859         84.8984         23.5112         23.5112 
        1.02471         84.4111         23.1796         23.1796 
        1.03085         83.6427         22.8532         22.8532 
        1.03698         83.2813         22.5339         22.5339 
        1.04314         82.4477         22.2193         22.2193 
        1.04929          81.948         21.9114         21.9114 
        1.05541         81.2081         21.6106         21.6106 
        1.06154         80.8823         21.3147         21.3147 
        1.06769         80.5058         21.0239         21.0239 
        1.07382         79.9015         20.7395         20.7395 
        1.07993          79.258          20.461          20.461 
        1.08607         78.6323         20.1865         20.1865 
        1.09222          78.379         19.9168         19.9168 
        1.09836         77.6392         19.6523         19.6523 
        1.10449         77.1224         19.3929         19.3929 
        1.11063         76.4771         19.1379         19.1379 
        1.11677         76.1482         18.8876         18.8876 
         1.1229         75.3427         18.6423         18.6423 
        1.12903         74.6943          18.401          18.401 
        1.13518         74.7642         18.1639         18.1639 
        1.14131         74.1617          17.931          17.931 
        1.14745         73.4806         17.7024         17.7024 
        1.15359         73.0653         17.4777         17.4777 
        1.15973         72.6467         17.2568         17.2568 
        1.16584         72.0209         17.0408         17.0408 
        1.17197         71.6222         16.8281         16.8281 
        1.17811         71.1689         16.6184         16.6184 
        1.18424         70.7018         16.4129         16.4129 
        1.19038         70.3124         16.2103         16.2103 
        1.19652         69.8801         16.0111         16.0111 
        1.20267         69.1803         15.8154         15.8154 
        1.20881         68.8518         15.6229         15.6229 
        1.21495         68.3562         15.4339         15.4339 
        1.22108         68.0842         15.2481         15.2481 
         1.2272          67.316         15.0658         15.0658 
        1.23334          67.084          14.886          14.886 
        1.23949         66.6855         14.7088         14.7088 
        1.24562         66.2024         14.5349         14.5349 
        1.25174         65.8324          14.364          14.364 
        1.25789         65.5646         14.1954         14.1954 
        1.26402         65.0927         14.0298         14.0298 
        1.27014         64.5714         13.8673         13.8673 
        1.27628         64.2649         13.7068         13.7068 
        1.28244         63.7736         13.5486         13.5486 
        1.28858         63.6071          13.393          13.393 
        1.29471          63.206         13.2403         13.2403 
        1.30084         62.7809         13.0901         13.0901 
        1.30697         62.3463         12.9419         12.9419 
        1.31312         61.9934         12.7959         12.7959 
        1.31925         61.6183         12.6526         12.6526 
        1.32537         61.3427         12.5116         12.5116 
        1.33151         60.7439         12.3722         12.3722 
        1.33765         60.4999         12.2351         12.2351 
        1.34378         60.1313         12.1003         12.1003 
        1.34992         59.8672         11.9674         11.9674 
        1.35606         59.5012         11.8363         11.8363 
         1.3622         58.9285         11.7073         11.7073 
        1.36833         58.8088         11.5806         11.5806 
        1.37445         58.4053         11.4558         11.4558 
        1.38059          57.973         11.3325         11.3325 
        1.38675         57.6573         11.2107         11.2107 
        1.39288         57.3225         11.0911         11.0911 
        1.39901         57.1021         10.9734         10.9734 
        1.40515          56.693         10.8571         10.8571 
         1.4113         56.4283         10.7425         10.7425 
        1.41742          56.318           10.63           10.63 
        1.42355         55.7614          10.519          10.519 
         1.4297          55.564         10.4091         10.4091 
        1.43585         55.1156         10.3009         10.3009 
        1.44198          54.795         10.1946         10.1946 
        1.44809         54.5841         10.0901         10.0901 
        1.45423         54.2613         9.98656         9.98656 
        1.46036         54.0457         9.88469         9.88469 
        1.46649         53.7007         9.78421         9.78421 
        1.47263         53.3063         9.68505         9.68505 
        1.47877          53.103          9.5873          9.5873 
        1.48491         52.8624         9.49074         9.49074 
        1.49104         52.5385         9.39571         9.39571 
        1.49718         52.1064          9.3019          9.3019 
        1.50333         51.9361         9.20922         9.20922 
        1.50947         51.6641         9.11799         9.11799 
         1.5156         51.3394         9.02814         9.02814 
        1.52172         51.1104         8.93948         8.93948 
        1.52787         50.9736         8.85184         8.85184 
          1.534          50.527         8.76548         8.76548 
        1.54013         50.2398         8.68036         8.68036 
        1.54627         50.0917         8.59621         8.59621 
        1.55241         49.6244         8.51316         8.51316 
        1.55855         49.4216         8.43133         8.43133 
        1.56467         49.0951         8.35079         8.35079 
         1.5708         49.0415         8.27108         8.27108 
        1.57695         48.8128         8.19229         8.19229 
        1.58308         48.3822          8.1147          8.1147 
        1.58922         48.2318         8.03806         8.03806 
        1.59535         48.0902         7.96244         7.96244 
         1.6015         47.6059         7.88768         7.88768 
        1.60764         47.4495         7.81392         7.81392 
        1.61376         47.1653          7.7413          7.7413 
        1.61989         46.9032         7.66955         7.66955 
        1.62604         46.7324         7.59854         7.59854 
        1.63218         46.5982         7.52847         7.52847 
        1.63831         46.1934         7.45944         7.45944 
        1.64444         45.9869         7.39125         7.39125 
        1.65059         45.7537         7.32375         7.32375 
        1.65673         45.5383         7.25716         7.25716 
        1.66285         45.1945         7.19159         7.19159 
        1.66898         45.0709          7.1268          7.1268 
        1.67512         44.7221         7.06269         7.06269 
        1.68127         44.5116          6.9993          6.9993 
         1.6874         44.3501         6.93683         6.93683 
        1.69353         44.0887         6.87516         6.87516 
        1.69967         43.8819         6.81409         6.81409 
        1.70581           43.75         6.75379         6.75379 
        1.71193         43.5504         6.69445         6.69445 
        1.71806         43.1123         6.63569         6.63569 
        1.72421         43.0104         6.57751         6.57751 
        1.73035         42.8139          6.5201          6.5201 
        1.73649         42.4702         6.46339         6.46339 
        1.74262         42.3764         6.40739         6.40739 
        1.74876         42.1398         6.35202         6.35202 
        1.75489         41.9375         6.29742         6.29742 
        1.76101         41.7672         6.24347         6.24347 
        1.76715          41.449         6.19008         6.19008 
        1.77329         41.2379         6.13724         6.13724 
        1.77943         41.0125           6.085           6.085 
        1.78557         40.8836         6.03344         6.03344 
        1.79171         40.6682         5.98247         5.98247 
        1.79785         40.4512         5.93207         5.93207 
        1.80399         40.3544         5.88226         5.88226 
        1.81012         40.0473         5.83309         5.83309 
        1.81625         39.7711          5.7845          5.7845 
        1.82239         39.6756         5.73639         5.73639 
        1.82853         39.3791         5.68885         5.68885 
        1.83466         39.1996         5.64189         5.64189 
        1.84078          38.968         5.59551         5.59551 
        1.84692         38.7689         5.54958         5.54958 
        1.85306         38.5897          5.5041          5.5041 
         1.8592         38.3372         5.45921         5.45921 
        1.86533         38.2301         5.41484         5.41484 
        1.87147          38.045         5.37091         5.37091 
        1.87761          37.887         5.32744         5.32744 
