# k  (h/Mpc)    P(k)  (Mpc/h)^3    P_linear(k)  (Mpc/h)^3     P_NL(k)  ShotnoiseSubtracted = false
     0.00783031         5609.17         5677.13         5677.13 
       0.013688         6637.34         6610.66         6610.66 
       0.019231         6390.71         6375.54         6375.54 
      0.0249154         5571.75         5628.47         5628.47 
      0.0312784         4653.84         4662.63         4662.63 
      0.0375637         3871.17         3851.64         3851.64 
      0.0433917         3294.97         3308.14         3308.14 
      0.0492413         2946.99         2943.77         2943.77 
      0.0555754         2653.44         2682.65         2682.65 
      0.0619321         2496.22         2476.72         2476.72 
       0.067871         2261.34         2279.02         2279.02 
      0.0738098          2039.8         2055.19         2055.19 
      0.0800417         1782.53         1802.57         1802.57 
      0.0862327          1559.4         1562.17         1562.17 
      0.0921407         1380.44         1367.92         1367.92 
      0.0982031         1222.22         1217.22         1217.22 
       0.104506         1136.16         1110.84         1110.84 
       0.110769          1061.5         1042.09         1042.09 
       0.116806         1003.07         992.695         992.695 
       0.122832         958.684          943.83          943.83 
       0.129052         887.275         883.668         883.668 
       0.135211         820.115         812.954         812.954 
       0.141259         757.291         738.544         738.544 
       0.147318         692.811         667.624         667.624 
       0.153489         627.748         606.423         606.423 
       0.159709         585.256         559.434         559.434 
       0.165845         558.083         526.553         526.553 
       0.171974         527.753         503.033         503.033 
       0.178125         507.415         483.478         483.478 
       0.184229         487.489         463.434         463.434 
        0.19034         454.363         440.097         440.097 
       0.196428         436.738         413.457         413.457 
       0.202534          415.07         385.171         385.171 
       0.208729         386.248         357.575         357.575 
       0.214876         360.763         333.577         333.577 
       0.220989         345.698          314.16          314.16 
       0.227147         326.942          298.91          298.91 
        0.23329         314.147         286.847         286.847 
       0.239377         305.661         276.424         276.424 
       0.245482         287.293          266.06          266.06 
       0.251667         281.335         254.782         254.782 
       0.257832         269.894         242.612         242.612 
       0.263955         257.513         230.079         230.079 
       0.270079         245.747         217.881         217.881 
        0.27624         238.894         206.657         206.657 
       0.282372         228.926         196.948         196.948 
        0.28843         219.832         188.807         188.807 
       0.294538         210.342         181.761         181.761 
       0.300721         206.972         175.358         175.358 
        0.30691         197.442         169.199         169.199 
       0.313033          191.76         163.049         163.049 
       0.319153         183.064         156.732         156.732 
       0.325316         178.744         150.308         150.308 
        0.33145         171.495         144.048         144.048 
       0.337538         167.711          138.19          138.19 
       0.343633         161.446         132.824         132.824 
       0.349808         156.099         127.933         127.933 
       0.355968         152.758         123.539         123.539 
       0.362074         148.215         119.524         119.524 
       0.368217         143.697         115.689         115.689 
       0.374374         139.062         111.931         111.931 
       0.380519         135.982         108.212         108.212 
       0.386598         132.056         104.573         104.573 
       0.392688          129.41         101.007         101.007 
        0.39888         125.722         97.5319         97.5319 
       0.405048         122.298         94.2728         94.2728 
       0.411186         119.326         91.2429         91.2429 
       0.417313         116.212         88.4293         88.4293 
       0.423458         113.335         85.7816         85.7816 
       0.429607         110.419         83.2576         83.2576 
       0.435692         106.764         80.8486         80.8486 
       0.441815         105.599         78.4906         78.4906 
       0.447964         103.482         76.1745         76.1745 
       0.454126           98.75         73.9157         73.9157 
       0.460267         97.4606         71.7446         71.7446 
       0.466387         95.5859         69.6732         69.6732 
        0.47254         93.4705         67.6871         67.6871 
       0.478662         92.2385         65.8096         65.8096 
       0.484765         89.4259         64.0304         64.0304 
       0.490885         87.6972          62.323          62.323 
       0.497035         86.3949         60.6688         60.6688 
       0.503198         83.8422         59.0638         59.0638 
       0.509342         82.0392          57.513          57.513 
       0.515458         80.6148         56.0164         56.0164 
       0.521598         79.3067         54.5604         54.5604 
       0.527764         77.9097         53.1479         53.1479 
       0.533884         76.5773         51.7981         51.7981 
           0.54         74.8405         50.5034         50.5034 
       0.546137         73.9294         49.2556         49.2556 
       0.552299         72.6905         48.0489         48.0489 
       0.558452         70.8411         46.8855         46.8855 
       0.564573         69.5076         45.7647         45.7647 
       0.570708         68.4583         44.6762         44.6762 
       0.576825         67.2962         43.6248         43.6248 
       0.582926          65.824         42.6089         42.6089 
       0.589034          64.454         41.6233         41.6233 
       0.595184         63.5402         40.6623         40.6623 
       0.601379         62.5891         39.7254         39.7254 
       0.607522         61.0408         38.8264         38.8264 
       0.613639         60.7541         37.9602         37.9602 
       0.619772         59.3337         37.1198         37.1198 
       0.625918         58.6153         36.3041         36.3041 
       0.632068         57.8622         35.5129         35.5129 
       0.638161         56.9418         34.7522         34.7522 
         0.6443         56.0579         34.0077         34.0077 
       0.650464         55.1814         33.2817         33.2817 
       0.656582         54.4605         32.5816         32.5816 
       0.662703         53.3473         31.9013         31.9013 
       0.668861         52.6474         31.2367         31.2367 
       0.675024         51.8661         30.5908         30.5908 
       0.681124          51.072         29.9701         29.9701 
       0.687237         50.0808         29.3658         29.3658 
       0.693381         49.5904         28.7757         28.7757 
       0.699536         48.7316         28.2011         28.2011 
       0.705665         48.8088         27.6447         27.6447 
       0.711789         47.4156         27.1039         27.1039 
       0.717957         46.9357         26.5737         26.5737 
        0.72409         46.2686         26.0607         26.0607 
       0.730186         45.4805         25.5642         25.5642 
       0.736317         45.2483          25.078          25.078 
       0.742472         44.5225         24.6026         24.6026 
       0.748622         44.0125         24.1399         24.1399 
        0.75476         43.4402         23.6902         23.6902 
       0.760888         42.7295         23.2527         23.2527 
       0.767043         42.2388         22.8246         22.8246 
       0.773185         41.6403         22.4082         22.4082 
       0.779291         41.3689         22.0046         22.0046 
       0.785407         40.9642         21.6104         21.6104 
       0.791564         40.2934         21.2234         21.2234 
       0.797719          39.523         20.8462         20.8462 
       0.803834           39.38         20.4805         20.4805 
       0.809972         38.6736         20.1223         20.1223 
       0.816124         38.1828          19.772          19.772 
       0.822261         37.8505         19.4309         19.4309 
       0.828378         37.5817          19.099          19.099 
       0.834502         37.0868         18.7745         18.7745 
       0.840667         36.6637         18.4555         18.4555 
       0.846816         36.0926         18.1448         18.1448 
       0.852925          35.787         17.8433         17.8433 
       0.859047         35.2791          17.548          17.548 
       0.865192         34.9505         17.2585         17.2585 
       0.871341         34.7753         16.9753         16.9753 
       0.877463         34.0692         16.6997         16.6997 
       0.883569         33.7613          16.431          16.431 
       0.889708         33.4985         16.1669         16.1669 
       0.895864         33.1286         15.9079         15.9079 
       0.902008         32.8133         15.6551         15.6551 
       0.908149         32.4846          15.408          15.408 
       0.914301         32.2741         15.1659         15.1659 
       0.920448         31.8302         14.9291         14.9291 
       0.926574         31.4815         14.6983         14.6983 
       0.932687         31.1881         14.4729         14.4729 
       0.938823         30.7152         14.2514         14.2514 
       0.944975          30.574          14.034          14.034 
       0.951105         30.2239         13.8219         13.8219 
       0.957225         29.8476         13.6146         13.6146 
       0.963368         29.8094         13.4109         13.4109 
       0.969511         29.4542         13.2113         13.2113 
       0.975621         29.2091         13.0168         13.0168 
       0.981748         28.7998         12.8258         12.8258 
       0.987916         28.5639         12.6374         12.6374 
        0.99406         28.3668         12.4535         12.4535 
        1.00019         27.9992         12.2736         12.2736 
        1.00632         27.8245         12.0975         12.0975 
        1.01246         27.6562         11.9246         11.9246 
        1.01859         27.1965         11.7553         11.7553 
        1.02471         27.1345         11.5895         11.5895 
        1.03085         26.8894         11.4263         11.4263 
        1.03698         26.4891         11.2666         11.2666 
        1.04314         26.2926         11.1093         11.1093 
        1.04929         26.0724         10.9554         10.9554 
        1.05541         25.7807          10.805          10.805 
        1.06154         25.6938         10.6571         10.6571 
        1.06769         25.4309         10.5117         10.5117 
        1.07382         25.2438         10.3695         10.3695 
        1.07993         25.0899         10.2302         10.2302 
        1.08607         24.7461          10.093          10.093 
        1.09222         24.6409         9.95813         9.95813 
        1.09836         24.3919         9.82588         9.82588 
        1.10449         24.1894          9.6962          9.6962 
        1.11063         23.8637         9.56871         9.56871 
        1.11677         23.7615         9.44357         9.44357 
         1.1229         23.6404         9.32088         9.32088 
        1.12903         23.3089         9.20027         9.20027 
        1.13518          23.218         9.08169         9.08169 
        1.14131         23.1024         8.96527         8.96527 
        1.14745         22.8018         8.85096         8.85096 
        1.15359          22.754         8.73862         8.73862 
        1.15973         22.4583         8.62818         8.62818 
        1.16584         22.2456         8.52016         8.52016 
        1.17197         22.2305         8.41382         8.41382 
        1.17811         21.9413         8.30898         8.30898 
        1.18424         21.7544         8.20623         8.20623 
        1.19038         21.6812         8.10492         8.10492 
        1.19652         21.5572         8.00536         8.00536 
        1.20267         21.3763         7.90747         7.90747 
        1.20881         21.1642         7.81124         7.81124 
        1.21495         21.0097         7.71676         7.71676 
        1.22108         20.8657         7.62385         7.62385 
         1.2272          20.622         7.53269         7.53269 
        1.23334          20.561         7.44281         7.44281 
        1.23949         20.4265         7.35418         7.35418 
        1.24562         20.2576         7.26724         7.26724 
        1.25174         20.1621         7.18183         7.18183 
        1.25789         19.9724         7.09753         7.09753 
        1.26402         19.8772         7.01473         7.01473 
        1.27014          19.634         6.93345         6.93345 
        1.27628         19.5304         6.85322         6.85322 
        1.28244         19.4132          6.7741          6.7741 
        1.28858         19.3273         6.69634         6.69634 
        1.29471         19.1977         6.61997         6.61997 
        1.30084         19.0551         6.54486         6.54486 
        1.30697         18.8818          6.4708          6.4708 
        1.31312         18.7101         6.39779         6.39779 
        1.31925         18.6178         6.32612         6.32612 
        1.32537         18.5373         6.25563         6.25563 
        1.33151         18.3737         6.18596         6.18596 
        1.33765         18.3093         6.11739         6.11739 
        1.34378         18.1806         6.04999         6.04999 
        1.34992         17.9732         5.98357         5.98357 
        1.35606         17.9064         5.91799         5.91799 
         1.3622         17.7902         5.85351         5.85351 
        1.36833         17.6406         5.79015         5.79015 
        1.37445         17.6295         5.72776         5.72776 
        1.38059         17.4633         5.66609         5.66609 
        1.38675         17.2666         5.60519         5.60519 
        1.39288         17.2397         5.54542         5.54542 
        1.39901         17.0944         5.48655         5.48655 
        1.40515         17.0137          5.4284          5.4284 
         1.4113         16.8926         5.37112         5.37112 
        1.41742         16.7269         5.31488         5.31488 
        1.42355          16.695         5.25934         5.25934 
         1.4297         16.5941         5.20442         5.20442 
        1.43585         16.5346         5.15031         5.15031 
        1.44198         16.3554         5.09718         5.09718 
        1.44809          16.269         5.04489         5.04489 
        1.45423         16.1903         4.99315         4.99315 
        1.46036         16.1175         4.94222         4.94222 
        1.46649         16.0025         4.89198         4.89198 
        1.47263         15.8751          4.8424          4.8424 
        1.47877         15.8143         4.79352         4.79352 
        1.48491          15.736         4.74524         4.74524 
        1.49104         15.6651         4.69773         4.69773 
        1.49718         15.5095         4.65083         4.65083 
        1.50333         15.4566         4.60449         4.60449 
        1.50947         15.3925         4.55888         4.55888 
         1.5156         15.2559         4.51395         4.51395 
        1.52172          15.142         4.46962         4.46962 
        1.52787          15.127         4.42581         4.42581 
          1.534         14.9913         4.38263         4.38263 
        1.54013         14.8646         4.34007         4.34007 
        1.54627         14.8197         4.29799         4.29799 
        1.55241         14.7244         4.25647         4.25647 
        1.55855         14.6316         4.21555         4.21555 
        1.56467         14.5494         4.17529         4.17529 
         1.5708         14.5205         4.13543         4.13543 
        1.57695         14.3642         4.09604         4.09604 
        1.58308          14.368         4.05724         4.05724 
        1.58922         14.2595         4.01893         4.01893 
        1.59535         14.1603         3.98112         3.98112 
         1.6015         14.0836         3.94374         3.94374 
        1.60764         14.0394         3.90686         3.90686 
        1.61376         13.9146         3.87055         3.87055 
        1.61989         13.8219         3.83467         3.83467 
        1.62604         13.8033         3.79917         3.79917 
        1.63218         13.7113         3.76414         3.76414 
        1.63831         13.6659         3.72962         3.72962 
        1.64444         13.5477         3.69553         3.69553 
        1.65059         13.4749         3.66178         3.66178 
        1.65673         13.4174         3.62849         3.62849 
        1.66285         13.3351          3.5957          3.5957 
        1.66898         13.2984         3.56331         3.56331 
        1.67512         13.2361         3.53125         3.53125 
        1.68127         13.1523         3.49956         3.49956 
         1.6874         13.0694         3.46832         3.46832 
        1.69353         13.0005         3.43749         3.43749 
        1.69967         12.9158         3.40696         3.40696 
        1.70581         12.8585         3.37681         3.37681 
        1.71193         12.8021         3.34714         3.34714 
        1.71806         12.7258         3.31776         3.31776 
        1.72421         12.6642         3.28867         3.28867 
        1.73035         12.5899         3.25997         3.25997 
        1.73649         12.5438         3.23161         3.23161 
        1.74262         12.5026         3.20361         3.20361 
        1.74876         12.4292         3.17593         3.17593 
        1.75489         12.3634         3.14863         3.14863 
        1.76101         12.2838         3.12165         3.12165 
        1.76715         12.2519         3.09496         3.09496 
        1.77329          12.178         3.06854         3.06854 
        1.77943         12.1063         3.04242         3.04242 
        1.78557         12.0673         3.01664         3.01664 
        1.79171         12.0204         2.99115         2.99115 
        1.79785         11.9095         2.96596         2.96596 
        1.80399         11.8673         2.94105         2.94105 
        1.81012          11.855         2.91647         2.91647 
        1.81625         11.7745         2.89218         2.89218 
        1.82239          11.742         2.86812         2.86812 
        1.82853          11.634         2.84435         2.84435 
        1.83466         11.5616         2.82087         2.82087 
        1.84078         11.5034         2.79768         2.79768 
        1.84692         11.4936         2.77472         2.77472 
        1.85306          11.411         2.75198         2.75198 
         1.8592         11.3704         2.72953         2.72953 
        1.86533         11.3229         2.70735         2.70735 
        1.87147         11.2612         2.68538         2.68538 
        1.87761          11.227         2.66365         2.66365 
