# k  (h/Mpc)    P(k)  (Mpc/h)^3    P_linear(k)  (Mpc/h)^3     P_NL(k)  ShotnoiseSubtracted = false
     0.00783031         1667.02         1684.78         1684.78 
       0.013688         1961.99         1962.47         1962.47 
       0.019231         1894.61         1892.92         1892.92 
      0.0249154         1662.04         1671.23         1671.23 
      0.0312784         1384.83         1384.51         1384.51 
      0.0375637         1148.44         1143.72         1143.72 
      0.0433917         981.783          982.35          982.35 
      0.0492413         875.629         874.162         874.162 
      0.0555754         792.915         796.628         796.628 
      0.0619321         739.187          735.48          735.48 
       0.067871         674.472         676.776         676.776 
      0.0738098         607.996          610.31          610.31 
      0.0800417         532.216         535.295         535.295 
      0.0862327         463.463         463.904         463.904 
      0.0921407         407.639         406.221         406.221 
      0.0982031         361.507         361.469         361.469 
       0.104506         333.042          329.88          329.88 
       0.110769         311.624         309.463         309.463 
       0.116806         295.023         294.795         294.795 
       0.122832         281.664         280.284         280.284 
       0.129052         262.068         262.418         262.418 
       0.135211         241.316         241.419         241.419 
       0.141259         220.888         219.322         219.322 
       0.147318         200.902         198.261         198.261 
       0.153489         182.082         180.087         180.087 
       0.159709         168.483         166.133         166.133 
       0.165845         159.855         156.368         156.368 
       0.171974         151.285         149.384         149.384 
       0.178125         145.622         143.576         143.576 
       0.184229         139.888         137.624         137.624 
        0.19034         131.368         130.694         130.694 
       0.196428         124.711         122.783         122.783 
       0.202534          117.56         114.383         114.383 
       0.208729         108.847         106.188         106.188 
       0.214876         101.225         99.0612         99.0612 
       0.220989         96.4297         93.2951         93.2951 
       0.227147         90.9742         88.7661         88.7661 
        0.23329         87.3365         85.1839         85.1839 
       0.239377         84.4578         82.0886         82.0886 
       0.245482         80.4956          79.011          79.011 
       0.251667         77.9396         75.6617         75.6617 
       0.257832         74.3351         72.0476         72.0476 
       0.263955         70.6341         68.3258         68.3258 
       0.270079         67.1573         64.7034         64.7034 
        0.27624         64.4251         61.3703         61.3703 
       0.282372          61.547          58.487          58.487 
        0.28843          58.786         56.0695         56.0695 
       0.294538         56.5047         53.9771         53.9771 
       0.300721         55.0104         52.0756         52.0756 
        0.30691         52.6988         50.2466         50.2466 
       0.313033         50.8505         48.4202         48.4202 
       0.319153         48.3574         46.5442         46.5442 
       0.325316         47.2711         44.6364         44.6364 
        0.33145         45.1829         42.7776         42.7776 
       0.337538         43.6292         41.0378         41.0378 
       0.343633         41.8596         39.4444         39.4444 
       0.349808         40.5061         37.9918         37.9918 
       0.355968         39.2638         36.6871         36.6871 
       0.362074         37.9501         35.4946         35.4946 
       0.368217         36.7307          34.356          34.356 
       0.374374         35.5046         33.2399         33.2399 
       0.380519         34.5157         32.1353         32.1353 
       0.386598         33.4493         31.0548         31.0548 
       0.392688         32.5625         29.9959         29.9959 
        0.39888         31.4297         28.9638         28.9638 
       0.405048         30.5298         27.9959         27.9959 
       0.411186         29.6591         27.0961         27.0961 
       0.417313         28.6491         26.2606         26.2606 
       0.423458         27.8514         25.4743         25.4743 
       0.429607         27.0253         24.7248         24.7248 
       0.435692         26.2031         24.0094         24.0094 
       0.441815         25.6032         23.3091         23.3091 
       0.447964         25.0593         22.6213         22.6213 
       0.454126         24.0568         21.9505         21.9505 
       0.460267         23.5312         21.3058         21.3058 
       0.466387           22.76         20.6906         20.6906 
        0.47254         22.3057         20.1008         20.1008 
       0.478662         21.8336         19.5433         19.5433 
       0.484765         21.1445         19.0149         19.0149 
       0.490885         20.6287         18.5079         18.5079 
       0.497035         20.2861         18.0166         18.0166 
       0.503198         19.7102           17.54           17.54 
       0.509342         19.1967         17.0795         17.0795 
       0.515458         18.6942          16.635          16.635 
       0.521598         18.3082         16.2026         16.2026 
       0.527764         17.8467         15.7832         15.7832 
       0.533884         17.5117         15.3823         15.3823 
           0.54         17.0738         14.9979         14.9979 
       0.546137         16.7375         14.6273         14.6273 
       0.552299         16.3976          14.269          14.269 
       0.558452         15.8774         13.9235         13.9235 
       0.564573         15.6243         13.5906         13.5906 
       0.570708         15.2985         13.2674         13.2674 
       0.576825          14.885         12.9551         12.9551 
       0.582926         14.5888         12.6534         12.6534 
       0.589034         14.1584         12.3608         12.3608 
       0.595184         13.9384         12.0754         12.0754 
       0.601379         13.6144         11.7971         11.7971 
       0.607522         13.3757         11.5302         11.5302 
       0.613639         13.1795         11.2729         11.2729 
       0.619772          12.812         11.0234         11.0234 
       0.625918         12.6882         10.7811         10.7811 
       0.632068          12.464         10.5462         10.5462 
       0.638161         12.1349         10.3203         10.3203 
         0.6443          11.876         10.0992         10.0992 
       0.650464         11.6171         9.88357         9.88357 
       0.656582         11.5131         9.67568         9.67568 
       0.662703         11.2747         9.47366         9.47366 
       0.668861         11.0443         9.27628         9.27628 
       0.675024         10.8089         9.08446         9.08446 
       0.681124         10.6117         8.90014         8.90014 
       0.687237         10.4182         8.72069         8.72069 
       0.693381         10.2643         8.54545         8.54545 
       0.699536         9.98286         8.37479         8.37479 
       0.705665         9.86945         8.20957         8.20957 
       0.711789         9.67099         8.04896         8.04896 
       0.717957         9.49621         7.89153         7.89153 
        0.72409          9.3254         7.73917         7.73917 
       0.730186         9.19335         7.59174         7.59174 
       0.736317         9.06879         7.44733         7.44733 
       0.742472         8.90664         7.30615         7.30615 
       0.748622          8.7594         7.16877         7.16877 
        0.75476         8.56241         7.03522         7.03522 
       0.760888          8.4376         6.90529         6.90529 
       0.767043           8.322         6.77815         6.77815 
       0.773185         8.14184         6.65449         6.65449 
       0.779291         8.06477         6.53463         6.53463 
       0.785407         7.93615         6.41757         6.41757 
       0.791564         7.79375         6.30266         6.30266 
       0.797719         7.62899         6.19063         6.19063 
       0.803834         7.57954         6.08204         6.08204 
       0.809972         7.48287         5.97567         5.97567 
       0.816124         7.30181         5.87163         5.87163 
       0.822261         7.18669         5.77035         5.77035 
       0.828378         7.09909         5.67176         5.67176 
       0.834502         7.02241         5.57541         5.57541 
       0.840667          6.8835         5.48068         5.48068 
       0.846816         6.75256         5.38842         5.38842 
       0.852925         6.68472         5.29888         5.29888 
       0.859047         6.58429         5.21119         5.21119 
       0.865192         6.51379          5.1252          5.1252 
       0.871341         6.42841          5.0411          5.0411 
       0.877463          6.3151         4.95928         4.95928 
       0.883569         6.20493         4.87948         4.87948 
       0.889708           6.094         4.80104         4.80104 
       0.895864         6.02785         4.72412         4.72412 
       0.902008         5.96173         4.64906         4.64906 
       0.908149         5.88805         4.57568         4.57568 
       0.914301         5.79606         4.50377         4.50377 
       0.920448         5.69714         4.43347         4.43347 
       0.926574         5.62137         4.36492         4.36492 
       0.932687         5.55316         4.29797         4.29797 
       0.938823         5.47255         4.23219         4.23219 
       0.944975         5.39395         4.16764         4.16764 
       0.951105         5.33189         4.10466         4.10466 
       0.957225         5.29549          4.0431          4.0431 
       0.963368         5.21198         3.98259         3.98259 
       0.969511         5.14317         3.92331         3.92331 
       0.975621         5.07361         3.86557         3.86557 
       0.981748         5.00937         3.80884         3.80884 
       0.987916         4.95237          3.7529          3.7529 
        0.99406          4.8667         3.69829         3.69829 
        1.00019         4.79016         3.64487         3.64487 
        1.00632         4.75938         3.59256         3.59256 
        1.01246         4.69736          3.5412          3.5412 
        1.01859         4.62586         3.49093         3.49093 
        1.02471         4.58023          3.4417          3.4417 
        1.03085         4.52031         3.39324         3.39324 
        1.03698         4.45052         3.34583         3.34583 
        1.04314         4.41116         3.29911         3.29911 
        1.04929         4.35151          3.2534          3.2534 
        1.05541         4.29136         3.20874         3.20874 
        1.06154         4.25094          3.1648          3.1648 
        1.06769         4.22171         3.12163         3.12163 
        1.07382         4.14948          3.0794          3.0794 
        1.07993         4.09488         3.03805         3.03805 
        1.08607          4.0653         2.99729         2.99729 
        1.09222           4.013         2.95724         2.95724 
        1.09836          3.9634         2.91797         2.91797 
        1.10449         3.92164         2.87945         2.87945 
        1.11063         3.87054          2.8416          2.8416 
        1.11677         3.83789         2.80443         2.80443 
         1.1229         3.79574           2.768           2.768 
        1.12903         3.74429         2.73218         2.73218 
        1.13518         3.70025         2.69697         2.69697 
        1.14131         3.65132         2.66239         2.66239 
        1.14745         3.60428         2.62845         2.62845 
        1.15359         3.58064         2.59509         2.59509 
        1.15973         3.53255         2.56229         2.56229 
        1.16584          3.4888         2.53021         2.53021 
        1.17197         3.45464         2.49863         2.49863 
        1.17811         3.43003          2.4675          2.4675 
        1.18424         3.39008         2.43698         2.43698 
        1.19038          3.3631          2.4069          2.4069 
        1.19652         3.32116         2.37733         2.37733 
        1.20267         3.28235         2.34826         2.34826 
        1.20881         3.25667         2.31968         2.31968 
        1.21495         3.22301         2.29163         2.29163 
        1.22108          3.1825         2.26404         2.26404 
         1.2272         3.15598         2.23696         2.23696 
        1.23334         3.11123         2.21027         2.21027 
        1.23949         3.07936         2.18395         2.18395 
        1.24562         3.05719         2.15813         2.15813 
        1.25174         3.02051         2.13277         2.13277 
        1.25789         2.99526         2.10773         2.10773 
        1.26402         2.96717         2.08315         2.08315 
        1.27014         2.93457         2.05901         2.05901 
        1.27628         2.90586         2.03518         2.03518 
        1.28244         2.86641         2.01169         2.01169 
        1.28858         2.85435         1.98859         1.98859 
        1.29471         2.81536         1.96592         1.96592 
        1.30084         2.78404         1.94361         1.94361 
        1.30697         2.77707         1.92162         1.92162 
        1.31312           2.722         1.89993         1.89993 
        1.31925         2.70335         1.87865         1.87865 
        1.32537         2.67556         1.85772         1.85772 
        1.33151         2.66483         1.83703         1.83703 
        1.33765         2.62513         1.81667         1.81667 
        1.34378          2.6053         1.79665         1.79665 
        1.34992         2.58729         1.77692         1.77692 
        1.35606         2.54801         1.75745         1.75745 
         1.3622         2.53519          1.7383          1.7383 
        1.36833         2.50747         1.71949         1.71949 
        1.37445         2.48375         1.70096         1.70096 
        1.38059         2.47279         1.68265         1.68265 
        1.38675         2.44897         1.66456         1.66456 
        1.39288         2.42518         1.64681         1.64681 
        1.39901         2.39319         1.62933         1.62933 
        1.40515         2.37447         1.61206         1.61206 
         1.4113         2.35474         1.59505         1.59505 
        1.41742         2.33579         1.57835         1.57835 
        1.42355         2.31167         1.56185         1.56185 
         1.4297         2.29132         1.54554         1.54554 
        1.43585         2.27799         1.52948         1.52948 
        1.44198         2.25909          1.5137          1.5137 
        1.44809         2.23311         1.49817         1.49817 
        1.45423          2.2123          1.4828          1.4828 
        1.46036         2.19026         1.46768         1.46768 
        1.46649         2.17387         1.45276         1.45276 
        1.47263         2.15195         1.43803         1.43803 
        1.47877         2.13216         1.42352         1.42352 
        1.48491         2.11677         1.40918         1.40918 
        1.49104         2.10043         1.39507         1.39507 
        1.49718          2.0805         1.38114         1.38114 
        1.50333         2.06564         1.36738         1.36738 
        1.50947         2.04483         1.35384         1.35384 
         1.5156         2.02878          1.3405          1.3405 
        1.52172         2.01298         1.32733         1.32733 
        1.52787         1.99747         1.31432         1.31432 
          1.534         1.97702          1.3015          1.3015 
        1.54013         1.96397         1.28886         1.28886 
        1.54627         1.94307         1.27636         1.27636 
        1.55241         1.92576         1.26403         1.26403 
        1.55855         1.91535         1.25188         1.25188 
        1.56467         1.89963         1.23992         1.23992 
         1.5708         1.88177         1.22809         1.22809 
        1.57695         1.86599         1.21639         1.21639 
        1.58308          1.8479         1.20487         1.20487 
        1.58922         1.83941         1.19349         1.19349 
        1.59535          1.8238         1.18226         1.18226 
         1.6015         1.80757         1.17116         1.17116 
        1.60764         1.79468         1.16021         1.16021 
        1.61376         1.78173         1.14943         1.14943 
        1.61989         1.76443         1.13877         1.13877 
        1.62604         1.75034         1.12823         1.12823 
        1.63218         1.74287         1.11783         1.11783 
        1.63831         1.72446         1.10758         1.10758 
        1.64444         1.71159         1.09745         1.09745 
        1.65059         1.69588         1.08743         1.08743 
        1.65673         1.68729         1.07754         1.07754 
        1.66285         1.66899         1.06781         1.06781 
        1.66898         1.65919         1.05819         1.05819 
        1.67512         1.64318         1.04867         1.04867 
        1.68127         1.63253         1.03926         1.03926 
         1.6874         1.62555         1.02998         1.02998 
        1.69353         1.60415         1.02082         1.02082 
        1.69967         1.59525         1.01176         1.01176 
        1.70581          1.5869          1.0028          1.0028 
        1.71193          1.5721        0.993991        0.993991 
        1.71806         1.56307        0.985266        0.985266 
        1.72421         1.55086        0.976629        0.976629 
        1.73035         1.53884        0.968105        0.968105 
        1.73649         1.52661        0.959684        0.959684 
        1.74262         1.51469         0.95137         0.95137 
        1.74876         1.50652        0.943148        0.943148 
        1.75489          1.4932        0.935041        0.935041 
        1.76101         1.48022         0.92703         0.92703 
        1.76715          1.4732        0.919103        0.919103 
        1.77329         1.46395        0.911258        0.911258 
        1.77943          1.4469        0.903501        0.903501 
        1.78557         1.43939        0.895845        0.895845 
        1.79171         1.43246        0.888276        0.888276 
        1.79785         1.41824        0.880794        0.880794 
        1.80399         1.40877        0.873398        0.873398 
        1.81012         1.39954        0.866097        0.866097 
        1.81625         1.39028        0.858883        0.858883 
        1.82239         1.37927        0.851739        0.851739 
        1.82853         1.36647        0.844681        0.844681 
        1.83466         1.36152        0.837708        0.837708 
        1.84078         1.35261        0.830822        0.830822 
        1.84692         1.34337        0.824002        0.824002 
        1.85306         1.33071        0.817249        0.817249 
         1.8592         1.32102        0.810583        0.810583 
        1.86533         1.31195        0.803995        0.803995 
        1.87147         1.30586        0.797472        0.797472 
        1.87761         1.29506        0.791019        0.791019 
