# k  (h/Mpc)    Pcb(k)  (Mpc/h)^3    Pcb_linear(k) (Mpc/h)^3    Pcb_NL(k) (Mpc/h)^3   ShotnoiseSubtracted = false
     0.00783031         6256.53         6333.42         6333.42 
       0.013688         7407.82         7374.64         7374.64 
       0.019231          7130.1         7112.27         7112.27 
      0.0249154         6211.95         6278.82         6278.82 
      0.0312784         5189.88         5201.36         5201.36 
      0.0375637         4318.61         4296.66         4296.66 
      0.0433917         3673.93         3690.35         3690.35 
      0.0492413         3287.01         3283.89         3283.89 
      0.0555754         2957.53         2992.59         2992.59 
      0.0619321         2785.08         2762.86         2762.86 
       0.067871         2520.92         2542.33         2542.33 
      0.0738098         2274.21         2292.64         2292.64 
      0.0800417         1987.03         2010.83         2010.83 
      0.0862327         1739.28         1742.65         1742.65 
      0.0921407         1540.99         1525.96         1525.96 
      0.0982031         1364.25         1357.85         1357.85 
       0.104506         1269.45         1239.18         1239.18 
       0.110769         1185.83         1162.49         1162.49 
       0.116806         1120.52         1107.38         1107.38 
       0.122832         1070.85         1052.87         1052.87 
       0.129052         990.513         985.759         985.759 
       0.135211         916.011         906.876         906.876 
       0.141259         846.763         823.869         823.869 
       0.147318         775.231         744.756         744.756 
       0.153489         702.466         676.484         676.484 
       0.159709         655.536         624.065         624.065 
       0.165845         625.431         587.387         587.387 
       0.171974         591.567         561.149         561.149 
       0.178125         568.575         539.334         539.334 
       0.184229         546.188         516.975         516.975 
        0.19034         508.837         490.942         490.942 
       0.196428         489.716         461.223         461.223 
       0.202534         465.754          429.67          429.67 
       0.208729         433.772         398.886         398.886 
       0.214876         405.506         372.115         372.115 
       0.220989         388.753         350.456         350.456 
       0.227147         367.922         333.444         333.444 
        0.23329         353.544         319.987         319.987 
       0.239377         344.214          308.36          308.36 
       0.245482         323.106         296.799         296.799 
       0.251667         316.782         284.217         284.217 
       0.257832         303.993         270.641         270.641 
       0.263955          290.27          256.66          256.66 
       0.270079         277.107         243.053         243.053 
        0.27624          269.77         230.533         230.533 
       0.282372         258.564         219.702         219.702 
        0.28843         248.578          210.62          210.62 
       0.294538         237.661         202.761         202.761 
       0.300721         234.134         195.617         195.617 
        0.30691         223.279         188.747         188.747 
       0.313033         217.057         181.887         181.887 
       0.319153          207.46          174.84          174.84 
       0.325316         202.398         167.673         167.673 
        0.33145         194.357          160.69          160.69 
       0.337538         190.269         154.155         154.155 
       0.343633         183.228         148.169         148.169 
       0.349808         177.116         142.713         142.713 
       0.355968         173.545         137.812         137.812 
       0.362074         168.527         133.332         133.332 
       0.368217         163.446         129.055         129.055 
       0.374374         158.023         124.863         124.863 
       0.380519         154.727         120.713         120.713 
       0.386598         150.307         116.655         116.655 
       0.392688         147.426         112.677         112.677 
        0.39888         143.296           108.8           108.8 
       0.405048         139.397         105.164         105.164 
       0.411186         136.053         101.785         101.785 
       0.417313         132.675         98.6455         98.6455 
       0.423458         129.457         95.6921         95.6921 
       0.429607         126.181         92.8764         92.8764 
       0.435692         122.053         90.1892         90.1892 
       0.441815         120.786         87.5587         87.5587 
       0.447964         118.346          84.975          84.975 
       0.454126         112.978         82.4552         82.4552 
       0.460267         111.543         80.0334         80.0334 
       0.466387         109.588         77.7226         77.7226 
        0.47254         107.071         75.5069         75.5069 
       0.478662         105.796         73.4129         73.4129 
       0.484765         102.545         71.4278         71.4278 
       0.490885         100.639         69.5232         69.5232 
       0.497035         99.1483         67.6778         67.6778 
       0.503198         96.2283         65.8874         65.8874 
       0.509342         94.2945         64.1575         64.1575 
       0.515458         92.7199          62.488          62.488 
       0.521598         91.1992         60.8638         60.8638 
       0.527764         89.6637         59.2881         59.2881 
       0.533884          88.146         57.7824         57.7824 
           0.54         86.2101          56.338          56.338 
       0.546137         85.2039         54.9461         54.9461 
       0.552299         83.7559            53.6            53.6 
       0.558452         81.7637         52.3022         52.3022 
       0.564573         80.2345         51.0519         51.0519 
       0.570708         78.9831         49.8376         49.8376 
       0.576825         77.7339         48.6648         48.6648 
       0.582926         76.0592         47.5315         47.5315 
       0.589034         74.5794         46.4321         46.4321 
       0.595184         73.5112           45.36           45.36 
       0.601379         72.4595         44.3149         44.3149 
       0.607522         70.6784          43.312          43.312 
       0.613639         70.3515         42.3458         42.3458 
       0.619772         68.7503         41.4083         41.4083 
       0.625918         67.8683         40.4984         40.4984 
       0.632068         67.0384         39.6157         39.6157 
       0.638161         66.0445         38.7671         38.7671 
         0.6443         65.0744         37.9366         37.9366 
       0.650464         64.1073         37.1267         37.1267 
       0.656582         63.1918         36.3458         36.3458 
       0.662703         61.9449         35.5869         35.5869 
       0.668861         61.1566         34.8455         34.8455 
       0.675024         60.2909          34.125          34.125 
       0.681124         59.4409         33.4326         33.4326 
       0.687237         58.2813         32.7585         32.7585 
       0.693381         57.6649         32.1002         32.1002 
       0.699536         56.7868         31.4592         31.4592 
       0.705665         56.8708         30.8385         30.8385 
       0.711789         55.2562         30.2352         30.2352 
       0.717957         54.7496         29.6438         29.6438 
        0.72409         53.9512         29.0715         29.0715 
       0.730186         53.0308         28.5177         28.5177 
       0.736317         52.8107         27.9752         27.9752 
       0.742472         52.0232         27.4449         27.4449 
       0.748622         51.4065         26.9288         26.9288 
        0.75476         50.7741         26.4272         26.4272 
       0.760888         49.9654         25.9391         25.9391 
       0.767043         49.4204         25.4615         25.4615 
       0.773185         48.7424          24.997          24.997 
       0.779291         48.3867         24.5468         24.5468 
       0.785407         47.9255          24.107          24.107 
       0.791564         47.2038         23.6754         23.6754 
       0.797719         46.3468         23.2545         23.2545 
       0.803834         46.1577         22.8466         22.8466 
       0.809972         45.2905         22.4471         22.4471 
       0.816124         44.8245         22.0562         22.0562 
       0.822261         44.4369         21.6758         21.6758 
       0.828378         44.1088         21.3055         21.3055 
       0.834502         43.5444         20.9435         20.9435 
       0.840667         43.0578         20.5877         20.5877 
       0.846816         42.4169         20.2411         20.2411 
       0.852925         42.0626         19.9047         19.9047 
       0.859047         41.4551         19.5753         19.5753 
       0.865192         41.1077         19.2523         19.2523 
       0.871341         40.8929         18.9364         18.9364 
       0.877463         40.0829         18.6291         18.6291 
       0.883569         39.7535         18.3293         18.3293 
       0.889708         39.4764         18.0347         18.0347 
       0.895864         39.0471         17.7457         17.7457 
       0.902008         38.6681         17.4638         17.4638 
       0.908149         38.3043         17.1881         17.1881 
       0.914301         38.0056          16.918          16.918 
       0.920448         37.5631         16.6539         16.6539 
       0.926574         37.1315         16.3964         16.3964 
       0.932687         36.8396         16.1449         16.1449 
       0.938823         36.2626         15.8978         15.8978 
       0.944975         36.1058         15.6553         15.6553 
       0.951105         35.6947         15.4188         15.4188 
       0.957225         35.2527         15.1875         15.1875 
       0.963368         35.2231         14.9602         14.9602 
       0.969511         34.8216         14.7376         14.7376 
       0.975621         34.5322         14.5207         14.5207 
       0.981748         34.0787         14.3076         14.3076 
       0.987916         33.7834         14.0974         14.0974 
        0.99406         33.5782         13.8923         13.8923 
        1.00019          33.149         13.6916         13.6916 
        1.00632         32.9551         13.4951         13.4951 
        1.01246         32.7355         13.3022         13.3022 
        1.01859         32.2116         13.1134         13.1134 
        1.02471         32.1566         12.9284         12.9284 
        1.03085         31.8576         12.7464         12.7464 
        1.03698         31.4355         12.5683         12.5683 
        1.04314         31.1855         12.3928         12.3928 
        1.04929         30.9439         12.2211         12.2211 
        1.05541         30.6026         12.0533         12.0533 
        1.06154         30.5206         11.8883         11.8883 
        1.06769         30.1859         11.7261         11.7261 
        1.07382         29.9964         11.5675         11.5675 
        1.07993         29.8136         11.4122         11.4122 
        1.08607         29.4348          11.259          11.259 
        1.09222         29.2991         11.1086         11.1086 
        1.09836         29.0319         10.9611         10.9611 
        1.10449         28.7785         10.8164         10.8164 
        1.11063         28.4103         10.6742         10.6742 
        1.11677         28.2684         10.5346         10.5346 
         1.1229         28.1261         10.3977         10.3977 
        1.12903         27.7215         10.2632         10.2632 
        1.13518         27.6933         10.1309         10.1309 
        1.14131          27.535          10.001          10.001 
        1.14745         27.1469         9.87351         9.87351 
        1.15359          27.111          9.7482          9.7482 
        1.15973         26.7597           9.625           9.625 
        1.16584         26.5454         9.50449         9.50449 
        1.17197         26.4814         9.38588         9.38588 
        1.17811          26.197         9.26892         9.26892 
        1.18424         25.9605          9.1543          9.1543 
        1.19038         25.8682         9.04129         9.04129 
        1.19652         25.7402         8.93022         8.93022 
        1.20267         25.5201         8.82103         8.82103 
        1.20881         25.2773         8.71368         8.71368 
        1.21495         25.0841         8.60828         8.60828 
        1.22108         24.9245         8.50464         8.50464 
         1.2272           24.63         8.40295         8.40295 
        1.23334         24.5603         8.30269         8.30269 
        1.23949         24.4526         8.20381         8.20381 
        1.24562         24.2114         8.10683         8.10683 
        1.25174         24.1102         8.01155         8.01155 
        1.25789         23.8993         7.91751         7.91751 
        1.26402         23.7555         7.82514         7.82514 
        1.27014         23.4904         7.73448         7.73448 
        1.27628           23.38         7.64497         7.64497 
        1.28244         23.2253         7.55672         7.55672 
        1.28858         23.1252         7.46997         7.46997 
        1.29471         23.0003         7.38478         7.38478 
        1.30084         22.8357         7.30099         7.30099 
        1.30697         22.6238         7.21838         7.21838 
        1.31312         22.4247         7.13693         7.13693 
        1.31925         22.3246         7.05699         7.05699 
        1.32537         22.2178         6.97835         6.97835 
        1.33151         22.0312         6.90063         6.90063 
        1.33765         21.9633         6.82414         6.82414 
        1.34378         21.8041         6.74895         6.74895 
        1.34992         21.5739         6.67485         6.67485 
        1.35606         21.4731          6.6017          6.6017 
         1.3622         21.3409         6.52977         6.52977 
        1.36833         21.1727         6.45909         6.45909 
        1.37445         21.1606         6.38949         6.38949 
        1.38059         20.9758          6.3207          6.3207 
        1.38675         20.7439         6.25276         6.25276 
        1.39288         20.7211         6.18608         6.18608 
        1.39901         20.5308         6.12041         6.12041 
        1.40515         20.4327         6.05555         6.05555 
         1.4113         20.3132         5.99165         5.99165 
        1.41742         20.1122         5.92891         5.92891 
        1.42355         20.0692         5.86695         5.86695 
         1.4297         19.9399         5.80569         5.80569 
        1.43585         19.8842         5.74533         5.74533 
        1.44198         19.6621         5.68606         5.68606 
        1.44809         19.5736         5.62773         5.62773 
        1.45423          19.481         5.57001         5.57001 
        1.46036         19.3987         5.51319         5.51319 
        1.46649         19.2534         5.45715         5.45715 
        1.47263         19.1132         5.40184         5.40184 
        1.47877         19.0514         5.34732         5.34732 
        1.48491         18.9551         5.29346         5.29346 
        1.49104         18.8489         5.24046         5.24046 
        1.49718         18.6663         5.18814         5.18814 
        1.50333         18.6173         5.13645         5.13645 
        1.50947         18.5427         5.08557         5.08557 
         1.5156          18.392         5.03545         5.03545 
        1.52172         18.2496           4.986           4.986 
        1.52787         18.2354         4.93712         4.93712 
          1.534         18.0736         4.88895         4.88895 
        1.54013         17.9305         4.84148         4.84148 
        1.54627           17.88         4.79454         4.79454 
        1.55241         17.7542         4.74822         4.74822 
        1.55855         17.6568         4.70258         4.70258 
        1.56467         17.5431         4.65766         4.65766 
         1.5708         17.5158          4.6132          4.6132 
        1.57695         17.3239         4.56925         4.56925 
        1.58308         17.3307         4.52598         4.52598 
        1.58922         17.2094         4.48323         4.48323 
        1.59535         17.0873         4.44106         4.44106 
         1.6015         16.9957         4.39936         4.39936 
        1.60764         16.9439         4.35822         4.35822 
        1.61376         16.7899         4.31772         4.31772 
        1.61989         16.6849         4.27769         4.27769 
        1.62604         16.6672         4.23809         4.23809 
        1.63218          16.558         4.19901         4.19901 
        1.63831         16.4928         4.16051         4.16051 
        1.64444         16.3755         4.12248         4.12248 
        1.65059         16.2773         4.08483         4.08483 
        1.65673         16.1909         4.04769         4.04769 
        1.66285         16.1215         4.01111         4.01111 
        1.66898         16.0595         3.97498         3.97498 
        1.67512         15.9916         3.93922         3.93922 
        1.68127          15.879         3.90386         3.90386 
         1.6874         15.7944         3.86902         3.86902 
        1.69353         15.7177         3.83463         3.83463 
        1.69967         15.6062         3.80056         3.80056 
        1.70581         15.5341         3.76693         3.76693 
        1.71193         15.4837         3.73383         3.73383 
        1.71806         15.3846         3.70106         3.70106 
        1.72421         15.3048         3.66861         3.66861 
        1.73035          15.216         3.63659         3.63659 
        1.73649         15.1754         3.60496         3.60496 
        1.74262         15.0987         3.57373         3.57373 
        1.74876         15.0375         3.54285         3.54285 
        1.75489         14.9431         3.51239         3.51239 
        1.76101         14.8576          3.4823          3.4823 
        1.76715         14.8051         3.45252         3.45252 
        1.77329         14.7409         3.42305         3.42305 
        1.77943         14.6397         3.39391         3.39391 
        1.78557         14.5932         3.36516         3.36516 
        1.79171         14.5332         3.33672         3.33672 
        1.79785         14.4113         3.30862         3.30862 
        1.80399         14.3568         3.28084         3.28084 
        1.81012         14.3402         3.25341         3.25341 
        1.81625         14.2541         3.22631         3.22631 
        1.82239         14.2206         3.19948         3.19948 
        1.82853         14.0855         3.17296         3.17296 
        1.83466         14.0008         3.14677         3.14677 
        1.84078          13.923          3.1209          3.1209 
        1.84692           13.91         3.09528         3.09528 
        1.85306          13.819         3.06992         3.06992 
         1.8592         13.7614         3.04488         3.04488 
        1.86533         13.6956         3.02013         3.02013 
        1.87147         13.6301         2.99563         2.99563 
