# k  (h/Mpc)    P(k)  (Mpc/h)^3    P_linear(k)  (Mpc/h)^3     P_NL(k)  ShotnoiseSubtracted = false
     0.00783031         188.234         190.041         190.041 
       0.013688          220.62         221.476         221.476 
       0.019231         213.519         213.664         213.664 
      0.0249154         188.201         188.657         188.657 
      0.0312784         156.472         156.299         156.299 
      0.0375637         129.482         129.121         129.121 
      0.0433917         111.058         110.905         110.905 
      0.0492413         98.8519         98.6916         98.6916 
      0.0555754         89.8656         89.9389         89.9389 
      0.0619321         83.1734         83.0358         83.0358 
       0.067871         76.3063         76.4085         76.4085 
      0.0738098         68.7951         68.9048         68.9048 
      0.0800417         60.3201         60.4357         60.4357 
      0.0862327         52.3756         52.3758         52.3758 
      0.0921407         45.9169         45.8634         45.8634 
      0.0982031         40.8164         40.8108         40.8108 
       0.104506         37.3499         37.2444         37.2444 
       0.110769         34.9907         34.9393         34.9393 
       0.116806         33.2374         33.2832         33.2832 
       0.122832         31.6446         31.6449         31.6449 
       0.129052         29.5662         29.6278         29.6278 
       0.135211         27.1969         27.2569         27.2569 
       0.141259         24.7661         24.7622         24.7622 
       0.147318         22.4373         22.3844         22.3844 
       0.153489          20.364         20.3325         20.3325 
       0.159709          18.786          18.757          18.757 
       0.165845         17.7321         17.6546         17.6546 
       0.171974         16.8661         16.8659         16.8659 
       0.178125         16.2176         16.2103         16.2103 
       0.184229         15.5596         15.5382         15.5382 
        0.19034         14.7229         14.7558         14.7558 
       0.196428         13.8662         13.8626         13.8626 
       0.202534         12.9715         12.9142         12.9142 
       0.208729         12.0175          11.989          11.989 
       0.214876         11.1898         11.1844         11.1844 
       0.220989         10.5843         10.5334         10.5334 
       0.227147         10.0285          10.022          10.022 
        0.23329         9.62189          9.6176          9.6176 
       0.239377         9.27429         9.26813         9.26813 
       0.245482         8.91147         8.92065         8.92065 
       0.251667         8.56041         8.54249         8.54249 
       0.257832         8.14124         8.13445         8.13445 
       0.263955         7.72978         7.71425         7.71425 
       0.270079         7.32697         7.30527         7.30527 
        0.27624         6.97033         6.92896         6.92896 
       0.282372         6.64428         6.60342         6.60342 
        0.28843         6.35339         6.33047         6.33047 
       0.294538          6.1151         6.09423         6.09423 
       0.300721         5.91578         5.87954         5.87954 
        0.30691         5.69125         5.67304         5.67304 
       0.313033         5.48521         5.46684         5.46684 
       0.319153         5.24756         5.25503         5.25503 
       0.325316         5.07214         5.03963         5.03963 
        0.33145         4.85677         4.82976         4.82976 
       0.337538         4.65961         4.63333         4.63333 
       0.343633         4.47095         4.45343         4.45343 
       0.349808         4.31484         4.28943         4.28943 
       0.355968         4.17014         4.14212         4.14212 
       0.362074          4.0291         4.00748         4.00748 
       0.368217         3.90046         3.87893         3.87893 
       0.374374         3.76401         3.75292         3.75292 
       0.380519         3.64933          3.6282          3.6282 
       0.386598          3.5312         3.50621         3.50621 
       0.392688         3.41847         3.38666         3.38666 
        0.39888         3.29587         3.27013         3.27013 
       0.405048         3.18846         3.16085         3.16085 
       0.411186         3.08816         3.05926         3.05926 
       0.417313         2.98829         2.96493         2.96493 
       0.423458         2.90459         2.87615         2.87615 
       0.429607         2.81267         2.79153         2.79153 
       0.435692           2.732         2.71076         2.71076 
       0.441815         2.65324          2.6317          2.6317 
       0.447964         2.58372         2.55404         2.55404 
       0.454126         2.49882          2.4783          2.4783 
       0.460267         2.42627         2.40551         2.40551 
       0.466387         2.35309         2.33606         2.33606 
        0.47254           2.289         2.26947         2.26947 
       0.478662         2.22911         2.20652         2.20652 
       0.484765         2.16461         2.14686         2.14686 
       0.490885         2.10977         2.08962         2.08962 
       0.497035         2.06225         2.03415         2.03415 
       0.503198         2.00308         1.98034         1.98034 
       0.509342         1.95435         1.92834         1.92834 
       0.515458         1.89947         1.87816         1.87816 
       0.521598         1.85129         1.82935         1.82935 
       0.527764         1.79963         1.78199         1.78199 
       0.533884         1.76188         1.73673         1.73673 
           0.54         1.71601         1.69332         1.69332 
       0.546137         1.67545         1.65148         1.65148 
       0.552299         1.63421         1.61102         1.61102 
       0.558452         1.59125         1.57202         1.57202 
       0.564573         1.55677         1.53444         1.53444 
       0.570708         1.51967         1.49794         1.49794 
       0.576825         1.48233         1.46269         1.46269 
       0.582926         1.45173         1.42863         1.42863 
       0.589034         1.41108         1.39558         1.39558 
       0.595184          1.3807         1.36336         1.36336 
       0.601379         1.34942         1.33195         1.33195 
       0.607522         1.32252          1.3018          1.3018 
       0.613639         1.29622         1.27276         1.27276 
       0.619772         1.26247         1.24458         1.24458 
       0.625918         1.23706         1.21723         1.21723 
       0.632068         1.21281         1.19071         1.19071 
       0.638161         1.18445          1.1652          1.1652 
         0.6443         1.15948         1.14024         1.14024 
       0.650464         1.13203          1.1159          1.1159 
       0.656582         1.11139         1.09242         1.09242 
       0.662703         1.08853         1.06962         1.06962 
       0.668861         1.06919         1.04733         1.04733 
       0.675024         1.04485         1.02567         1.02567 
       0.681124         1.02157         1.00486         1.00486 
       0.687237         1.00385        0.984602        0.984602 
       0.693381        0.984391        0.964817        0.964817 
       0.699536        0.960423        0.945549        0.945549 
       0.705665        0.942588        0.926895        0.926895 
       0.711789        0.926595        0.908761        0.908761 
       0.717957        0.906556        0.890987        0.890987 
        0.72409        0.889936        0.873785        0.873785 
       0.730186         0.87237        0.857139        0.857139 
       0.736317        0.859852        0.840835        0.840835 
       0.742472        0.842708        0.824895        0.824895 
       0.748622        0.825809        0.809384        0.809384 
        0.75476        0.809028        0.794306        0.794306 
       0.760888         0.79388        0.779636        0.779636 
       0.767043        0.783808        0.765282        0.765282 
       0.773185        0.766773         0.75132         0.75132 
       0.779291        0.753577        0.737788        0.737788 
       0.785407        0.740217        0.724571        0.724571 
       0.791564        0.727924        0.711597        0.711597 
       0.797719        0.716063        0.698948        0.698948 
       0.803834        0.703997        0.686688        0.686688 
       0.809972        0.690889        0.674679        0.674679 
       0.816124        0.678226        0.662932        0.662932 
       0.822261        0.665674        0.651496        0.651496 
       0.828378         0.65588        0.640366        0.640366 
       0.834502        0.646132        0.629487        0.629487 
       0.840667         0.63287        0.618792        0.618792 
       0.846816         0.62274        0.608376        0.608376 
       0.852925         0.61465        0.598266        0.598266 
       0.859047        0.604283        0.588365        0.588365 
       0.865192        0.593098        0.578657        0.578657 
       0.871341        0.583626        0.569162        0.569162 
       0.877463        0.576096        0.559923        0.559923 
       0.883569        0.565535        0.550914        0.550914 
       0.889708        0.556808        0.542058        0.542058 
       0.895864        0.547622        0.533374        0.533374 
       0.902008        0.538758        0.524899        0.524899 
       0.908149        0.530376        0.516614        0.516614 
       0.914301        0.520319        0.508494        0.508494 
       0.920448        0.513201        0.500557        0.500557 
       0.926574        0.505243        0.492818        0.492818 
       0.932687        0.497175        0.485259        0.485259 
       0.938823        0.491595        0.477832        0.477832 
       0.944975        0.483831        0.470544        0.470544 
       0.951105        0.476816        0.463434        0.463434 
       0.957225        0.470861        0.456483        0.456483 
       0.963368        0.463219        0.449651        0.449651 
       0.969511        0.455529        0.442959        0.442959 
       0.975621        0.448586        0.436439        0.436439 
       0.981748        0.443786        0.430034        0.430034 
       0.987916        0.436602        0.423718        0.423718 
        0.99406        0.429931        0.417552        0.417552 
        1.00019        0.424868        0.411522        0.411522 
        1.00632        0.417333        0.405616        0.405616 
        1.01246        0.411508        0.399817        0.399817 
        1.01859        0.406507        0.394141        0.394141 
        1.02471        0.400495        0.388582        0.388582 
        1.03085        0.396223        0.383112        0.383112 
        1.03698         0.38976        0.377758        0.377758 
        1.04314        0.384676        0.372484        0.372484 
        1.04929        0.378902        0.367322        0.367322 
        1.05541        0.374643         0.36228         0.36228 
        1.06154        0.368817         0.35732         0.35732 
        1.06769        0.363573        0.352445        0.352445 
        1.07382        0.358978        0.347677        0.347677 
        1.07993        0.353705        0.343009        0.343009 
        1.08607        0.350469        0.338407        0.338407 
        1.09222        0.344925        0.333885        0.333885 
        1.09836        0.341579        0.329451        0.329451 
        1.10449        0.337047        0.325103        0.325103 
        1.11063        0.331546        0.320828        0.320828 
        1.11677        0.326982        0.316632        0.316632 
         1.1229        0.323418        0.312519        0.312519 
        1.12903        0.318976        0.308475        0.308475 
        1.13518         0.31542        0.304499        0.304499 
        1.14131        0.311029        0.300596        0.300596 
        1.14745        0.305863        0.296763        0.296763 
        1.15359        0.303003        0.292996        0.292996 
        1.15973        0.298476        0.289293        0.289293 
        1.16584        0.296114        0.285671        0.285671 
        1.17197        0.292097        0.282106        0.282106 
        1.17811        0.289011        0.278591        0.278591 
        1.18424        0.285892        0.275146        0.275146 
        1.19038        0.281591        0.271749        0.271749 
        1.19652        0.277559        0.268411        0.268411 
        1.20267        0.275337        0.265129        0.265129 
        1.20881        0.271556        0.261902        0.261902 
        1.21495        0.268997        0.258734        0.258734 
        1.22108        0.265368        0.255619        0.255619 
         1.2272        0.262672        0.252563        0.252563 
        1.23334        0.259113        0.249549        0.249549 
        1.23949        0.256259        0.246578        0.246578 
        1.24562         0.25325        0.243662        0.243662 
        1.25174        0.250568        0.240799        0.240799 
        1.25789         0.24799        0.237972        0.237972 
        1.26402        0.244231        0.235196        0.235196 
        1.27014        0.241703        0.232471        0.232471 
        1.27628        0.239499        0.229781        0.229781 
        1.28244        0.235836        0.227128        0.227128 
        1.28858        0.233646        0.224521        0.224521 
        1.29471        0.231633         0.22196         0.22196 
        1.30084         0.22846        0.219442        0.219442 
        1.30697        0.225874        0.216959        0.216959 
        1.31312        0.222717        0.214511        0.214511 
        1.31925        0.220661        0.212108        0.212108 
        1.32537         0.21859        0.209744        0.209744 
        1.33151        0.216506        0.207408        0.207408 
        1.33765        0.214027        0.205109        0.205109 
        1.34378         0.21117         0.20285         0.20285 
        1.34992        0.209137        0.200622        0.200622 
        1.35606        0.206929        0.198424        0.198424 
         1.3622        0.204751        0.196262        0.196262 
        1.36833         0.20239        0.194137        0.194137 
        1.37445        0.199743        0.192045        0.192045 
        1.38059        0.197886        0.189978        0.189978 
        1.38675        0.196673        0.187936        0.187936 
        1.39288        0.194215        0.185932        0.185932 
        1.39901        0.192147        0.183958        0.183958 
        1.40515        0.190423        0.182008        0.182008 
         1.4113        0.187903        0.180088        0.180088 
        1.41742        0.186093        0.178202        0.178202 
        1.42355        0.184689         0.17634         0.17634 
         1.4297        0.182276        0.174499        0.174499 
        1.43585        0.180588        0.172684        0.172684 
        1.44198        0.179178        0.170903        0.170903 
        1.44809        0.176958         0.16915         0.16915 
        1.45423        0.175341        0.167415        0.167415 
        1.46036        0.173462        0.165707        0.165707 
        1.46649        0.172109        0.164023        0.164023 
        1.47263        0.170178         0.16236         0.16236 
        1.47877        0.168103        0.160722        0.160722 
        1.48491        0.166766        0.159103        0.159103 
        1.49104        0.164676         0.15751         0.15751 
        1.49718        0.163141        0.155937        0.155937 
        1.50333        0.161979        0.154384        0.154384 
        1.50947        0.160174        0.152854        0.152854 
         1.5156         0.15852        0.151348        0.151348 
        1.52172        0.157151        0.149862        0.149862 
        1.52787        0.155559        0.148392        0.148392 
          1.534        0.153914        0.146945        0.146945 
        1.54013        0.152423        0.145518        0.145518 
        1.54627        0.151309        0.144107        0.144107 
        1.55241        0.149526        0.142715        0.142715 
        1.55855        0.148035        0.141343        0.141343 
        1.56467        0.147319        0.139993        0.139993 
         1.5708         0.14556        0.138657        0.138657 
        1.57695        0.144212        0.137336        0.137336 
        1.58308        0.142767        0.136035        0.136035 
        1.58922        0.141548         0.13475         0.13475 
        1.59535        0.140168        0.133482        0.133482 
         1.6015        0.138798        0.132229        0.132229 
        1.60764        0.137692        0.130993        0.130993 
        1.61376        0.136103        0.129775        0.129775 
        1.61989        0.135101        0.128572        0.128572 
        1.62604        0.133973        0.127382        0.127382 
        1.63218        0.132749        0.126207        0.126207 
        1.63831        0.131616         0.12505         0.12505 
        1.64444         0.13036        0.123907        0.123907 
        1.65059        0.129223        0.122776        0.122776 
        1.65673        0.128118        0.121659        0.121659 
        1.66285        0.127148         0.12056         0.12056 
        1.66898        0.125966        0.119474        0.119474 
        1.67512        0.124578        0.118399        0.118399 
        1.68127        0.123425        0.117336        0.117336 
         1.6874        0.122688        0.116289        0.116289 
        1.69353        0.121281        0.115255        0.115255 
        1.69967        0.120575        0.114232        0.114232 
        1.70581        0.119133        0.113221        0.113221 
        1.71193        0.118289        0.112226        0.112226 
        1.71806        0.117103        0.111241        0.111241 
        1.72421        0.116423        0.110266        0.110266 
        1.73035        0.115202        0.109303        0.109303 
        1.73649        0.114406        0.108352        0.108352 
        1.74262        0.113341        0.107414        0.107414 
        1.74876        0.112336        0.106485        0.106485 
        1.75489        0.111554         0.10557         0.10557 
        1.76101        0.110415        0.104666        0.104666 
        1.76715        0.109498        0.103771        0.103771 
        1.77329        0.108446        0.102885        0.102885 
        1.77943        0.107575        0.102009        0.102009 
        1.78557        0.106943        0.101145        0.101145 
        1.79171         0.10603         0.10029         0.10029 
        1.79785        0.105116       0.0994454       0.0994454 
        1.80399        0.104235       0.0986104       0.0986104 
        1.81012        0.103438       0.0977861       0.0977861 
        1.81625        0.102538       0.0969716       0.0969716 
        1.82239        0.101723        0.096165        0.096165 
        1.82853        0.100781       0.0953681       0.0953681 
        1.83466        0.100018       0.0945809       0.0945809 
        1.84078         0.09921       0.0938034       0.0938034 
        1.84692        0.098302       0.0930333       0.0930333 
        1.85306       0.0977945        0.092271        0.092271 
         1.8592       0.0967672       0.0915183       0.0915183 
        1.86533       0.0961812       0.0907745       0.0907745 
        1.87147        0.095321       0.0900381       0.0900381 
        1.87761       0.0946852       0.0893094       0.0893094 
