# k  (h/Mpc)    Pcb(k)  (Mpc/h)^3    Pcb_linear(k) (Mpc/h)^3    Pcb_NL(k) (Mpc/h)^3   ShotnoiseSubtracted = false
     0.00783031         14396.1         14601.2         14601.2 
       0.013688         17152.1           16997           16997 
       0.019231         16445.9         16390.4         16390.4 
      0.0249154         14216.8         14468.7         14468.7 
      0.0312784         11905.7         11985.3         11985.3 
      0.0375637         9947.01          9900.4          9900.4 
      0.0433917         8414.69         8503.21         8503.21 
      0.0492413         7555.28         7566.54         7566.54 
      0.0555754         6743.46         6895.29         6895.29 
      0.0619321          6414.8         6365.92         6365.92 
       0.067871         5754.98         5857.76         5857.76 
      0.0738098         5200.25         5282.42         5282.42 
      0.0800417         4536.67          4633.1          4633.1 
      0.0862327         3996.49         4015.18         4015.18 
      0.0921407         3577.04         3515.91         3515.91 
      0.0982031         3168.25         3128.56         3128.56 
       0.104506         2976.56         2855.14         2855.14 
       0.110769         2775.41         2678.43         2678.43 
       0.116806         2627.29         2551.46         2551.46 
       0.122832         2503.52         2425.87         2425.87 
       0.129052         2303.38         2271.23         2271.23 
       0.135211         2141.72         2089.48         2089.48 
       0.141259         2004.06         1898.23         1898.23 
       0.147318         1851.26         1715.95         1715.95 
       0.153489         1680.53         1558.64         1558.64 
       0.159709         1582.37         1437.87         1437.87 
       0.165845         1519.44         1353.36         1353.36 
       0.171974         1442.97         1292.91         1292.91 
       0.178125         1379.83         1242.64         1242.64 
       0.184229         1321.14         1191.13         1191.13 
        0.19034          1234.8         1131.15         1131.15 
       0.196428         1198.31         1062.67         1062.67 
       0.202534         1144.54         989.972         989.972 
       0.208729         1077.08         919.045         919.045 
       0.214876         1020.71         857.365         857.365 
       0.220989         981.766          807.46          807.46 
       0.227147         938.163         768.264         768.264 
        0.23329         901.471         737.259         737.259 
       0.239377         882.908         710.469         710.469 
       0.245482         824.416         683.834         683.834 
       0.251667         815.975         654.845         654.845 
       0.257832         781.626         623.564         623.564 
       0.263955         752.441         591.352         591.352 
       0.270079         721.617             560             560 
        0.27624         710.452         531.154         531.154 
       0.282372         680.872         506.199         506.199 
        0.28843         666.854         485.275         485.275 
       0.294538         632.522         467.166         467.166 
       0.300721         628.508         450.708         450.708 
        0.30691         600.085         434.878         434.878 
       0.313033         587.349         419.071         419.071 
       0.319153         570.638         402.835         402.835 
       0.325316         553.041         386.322         386.322 
        0.33145         536.448         370.234         370.234 
       0.337538         526.883         355.177         355.177 
       0.343633         510.737         341.385         341.385 
       0.349808         492.091         328.814         328.814 
       0.355968         487.669         317.522         317.522 
       0.362074         479.655         307.201         307.201 
       0.368217         465.473         297.347         297.347 
       0.374374         444.809         287.687         287.687 
       0.380519         442.798         278.126         278.126 
       0.386598         430.437         268.775         268.775 
       0.392688         427.175          259.61          259.61 
        0.39888         414.663         250.678         250.678 
       0.405048          405.44         242.301         242.301 
       0.411186         398.573         234.514         234.514 
       0.417313         390.505         227.281         227.281 
       0.423458         382.157         220.477         220.477 
       0.429607          375.86         213.989         213.989 
       0.435692         366.034         207.798         207.798 
       0.441815         362.344         201.737         201.737 
       0.447964         354.113         195.784         195.784 
       0.454126         345.584         189.979         189.979 
       0.460267         339.128         184.399         184.399 
       0.466387         335.092         179.075         179.075 
        0.47254         328.127          173.97          173.97 
       0.478662         327.015         169.145         169.145 
       0.484765         315.266         164.571         164.571 
       0.490885         311.966         160.183         160.183 
       0.497035         306.081         155.931         155.931 
       0.503198          301.13         151.806         151.806 
       0.509342         298.664          147.82          147.82 
       0.515458         294.809         143.974         143.974 
       0.521598         287.432         140.232         140.232 
       0.527764         283.109         136.601         136.601 
       0.533884         280.357         133.132         133.132 
           0.54         276.216         129.804         129.804 
       0.546137         274.513         126.597         126.597 
       0.552299          268.66         123.496         123.496 
       0.558452         267.017         120.505         120.505 
       0.564573         263.081         117.625         117.625 
       0.570708         257.603         114.827         114.827 
       0.576825         252.918         112.125         112.125 
       0.582926         250.586         109.514         109.514 
       0.589034         248.005         106.981         106.981 
       0.595184          245.46          104.51          104.51 
       0.601379         241.823         102.103         102.103 
       0.607522         238.144         99.7919         99.7919 
       0.613639         236.222         97.5658         97.5658 
       0.619772           231.2         95.4056         95.4056 
       0.625918         230.062         93.3091         93.3091 
       0.632068         226.094         91.2755         91.2755 
       0.638161         224.941         89.3202         89.3202 
         0.6443         221.222         87.4068         87.4068 
       0.650464         218.832         85.5408         85.5408 
       0.656582         216.634         83.7416         83.7416 
       0.662703         215.808         81.9931         81.9931 
       0.668861         211.915         80.2848         80.2848 
       0.675024         208.961         78.6246         78.6246 
       0.681124           207.6         77.0293         77.0293 
       0.687237         205.145         75.4763         75.4763 
       0.693381         201.823         73.9596         73.9596 
       0.699536         200.159         72.4826         72.4826 
       0.705665         198.267         71.0526         71.0526 
       0.711789         196.345         69.6625         69.6625 
       0.717957          195.27            68.3            68.3 
        0.72409         192.907         66.9813         66.9813 
       0.730186         190.356         65.7053         65.7053 
       0.736317          188.26         64.4555         64.4555 
       0.742472          186.97         63.2336         63.2336 
       0.748622         185.274         62.0446         62.0446 
        0.75476         183.382         60.8888         60.8888 
       0.760888         181.216         59.7642         59.7642 
       0.767043         180.936         58.6638         58.6638 
       0.773185         178.926         57.5936         57.5936 
       0.779291         175.442         56.5563         56.5563 
       0.785407         174.944         55.5431         55.5431 
       0.791564         173.135         54.5485         54.5485 
       0.797719         170.599         53.5789         53.5789 
       0.803834          169.59         52.6391         52.6391 
       0.809972         168.631         51.7185         51.7185 
       0.816124         167.838          50.818          50.818 
       0.822261          165.99         49.9415         49.9415 
       0.828378         164.265         49.0882         49.0882 
       0.834502         163.768         48.2543         48.2543 
       0.840667         161.314         47.4344         47.4344 
       0.846816         159.831          46.636          46.636 
       0.852925         159.177          45.861          45.861 
       0.859047         157.608          45.102          45.102 
       0.865192          155.64         44.3578         44.3578 
       0.871341         154.425           43.63           43.63 
       0.877463         153.144         42.9218         42.9218 
       0.883569         152.804         42.2312         42.2312 
       0.889708          151.01         41.5522         41.5522 
       0.895864         149.273         40.8866         40.8866 
       0.902008         148.445         40.2369         40.2369 
       0.908149         147.887         39.6018         39.6018 
       0.914301         145.808         38.9794         38.9794 
       0.920448         144.883          38.371          38.371 
       0.926574         143.813         37.7777         37.7777 
       0.932687         143.662         37.1983         37.1983 
       0.938823         141.607          36.629          36.629 
       0.944975         140.552         36.0702         36.0702 
       0.951105         139.729         35.5252         35.5252 
       0.957225         138.478         34.9924         34.9924 
       0.963368         136.523         34.4687         34.4687 
       0.969511         136.246         33.9557         33.9557 
       0.975621         135.062         33.4559         33.4559 
       0.981748         134.846         32.9649         32.9649 
       0.987916         133.325         32.4807         32.4807 
        0.99406         132.115         32.0081         32.0081 
        1.00019         131.928         31.5458         31.5458 
        1.00632         130.448         31.0931         31.0931 
        1.01246         129.718         30.6486         30.6486 
        1.01859         129.043         30.2135         30.2135 
        1.02471         127.408         29.7874         29.7874 
        1.03085         126.356          29.368          29.368 
        1.03698          125.81         28.9576         28.9576 
        1.04314         124.462         28.5533         28.5533 
        1.04929         123.999         28.1576         28.1576 
        1.05541         123.256         27.7711         27.7711 
        1.06154         122.339         27.3909         27.3909 
        1.06769         122.077         27.0172         27.0172 
        1.07382         120.787         26.6517         26.6517 
        1.07993         119.806         26.2938         26.2938 
        1.08607         119.125         25.9411         25.9411 
        1.09222          118.72         25.5944         25.5944 
        1.09836         117.651         25.2545         25.2545 
        1.10449         116.374         24.9212         24.9212 
        1.11063         115.551         24.5936         24.5936 
        1.11677         115.088         24.2719         24.2719 
         1.1229         114.213         23.9566         23.9566 
        1.12903         113.604         23.6466         23.6466 
        1.13518         113.089         23.3418         23.3418 
        1.14131         111.926         23.0426         23.0426 
        1.14745         111.572         22.7488         22.7488 
        1.15359         110.709           22.46           22.46 
        1.15973          110.12         22.1762         22.1762 
        1.16584         108.997         21.8985         21.8985 
        1.17197         108.474         21.6253         21.6253 
        1.17811         107.836         21.3558         21.3558 
        1.18424         107.368         21.0917         21.0917 
        1.19038         106.968         20.8313         20.8313 
        1.19652         106.015         20.5754         20.5754 
        1.20267         105.308         20.3238         20.3238 
        1.20881          104.55         20.0765         20.0765 
        1.21495         103.891         19.8337         19.8337 
        1.22108         103.344         19.5949         19.5949 
         1.2272         102.385         19.3606         19.3606 
        1.23334         101.956         19.1296         19.1296 
        1.23949         101.316         18.9018         18.9018 
        1.24562          100.64         18.6783         18.6783 
        1.25174         99.9849         18.4588         18.4588 
        1.25789         99.4738         18.2421         18.2421 
        1.26402         98.4333         18.0293         18.0293 
        1.27014         98.0252         17.8204         17.8204 
        1.27628         97.6022         17.6142         17.6142 
        1.28244         97.1213         17.4108         17.4108 
        1.28858         96.6796          17.211          17.211 
        1.29471         95.6688         17.0147         17.0147 
        1.30084         95.4508         16.8216         16.8216 
        1.30697         94.4897         16.6313         16.6313 
        1.31312         94.1067         16.4436         16.4436 
        1.31925         93.3802         16.2594         16.2594 
        1.32537          92.949         16.0783         16.0783 
        1.33151         92.1356         15.8992         15.8992 
        1.33765         91.7554         15.7229         15.7229 
        1.34378         91.2936         15.5497         15.5497 
        1.34992          90.976          15.379          15.379 
        1.35606          90.355         15.2104         15.2104 
         1.3622         89.4697         15.0447         15.0447 
        1.36833         89.1213         14.8819         14.8819 
        1.37445         88.6301         14.7215         14.7215 
        1.38059         87.9721          14.563          14.563 
        1.38675         87.4383         14.4065         14.4065 
        1.39288         87.2409         14.2529         14.2529 
        1.39901         86.6413         14.1016         14.1016 
        1.40515         85.9182         13.9521         13.9521 
         1.4113         85.5339         13.8049         13.8049 
        1.41742         85.1156         13.6603         13.6603 
        1.42355         84.5316         13.5176         13.5176 
         1.4297         84.1692         13.3764         13.3764 
        1.43585          83.447         13.2374         13.2374 
        1.44198         83.0714         13.1008         13.1008 
        1.44809          82.641         12.9664         12.9664 
        1.45423         82.2361         12.8334         12.8334 
        1.46036         81.8209         12.7025         12.7025 
        1.46649         81.1463         12.5734         12.5734 
        1.47263         80.5922          12.446          12.446 
        1.47877         80.4444         12.3203         12.3203 
        1.48491         79.6732         12.1962         12.1962 
        1.49104         79.5315         12.0741         12.0741 
        1.49718         78.9764         11.9536         11.9536 
        1.50333         78.5573         11.8345         11.8345 
        1.50947         78.0734         11.7172         11.7172 
         1.5156         77.6291         11.6018         11.6018 
        1.52172         77.1082         11.4878         11.4878 
        1.52787         76.7742         11.3752         11.3752 
          1.534          76.221         11.2642         11.2642 
        1.54013         75.8464         11.1549         11.1549 
        1.54627         75.5512         11.0467         11.0467 
        1.55241         74.9694           10.94           10.94 
        1.55855         74.6304         10.8348         10.8348 
        1.56467         74.3483         10.7313         10.7313 
         1.5708         73.7635         10.6289         10.6289 
        1.57695         73.7189         10.5276         10.5276 
        1.58308         73.0269         10.4279         10.4279 
        1.58922         72.7451         10.3295         10.3295 
        1.59535         72.3866         10.2323         10.2323 
         1.6015         71.8107         10.1362         10.1362 
        1.60764         71.4884         10.0414         10.0414 
        1.61376         71.2424          9.9481          9.9481 
        1.61989         70.7086         9.85589         9.85589 
        1.62604          70.463         9.76464         9.76464 
        1.63218         70.1366         9.67459         9.67459 
        1.63831         69.3155         9.58589         9.58589 
        1.64444         69.1475         9.49826         9.49826 
        1.65059         68.8223         9.41152         9.41152 
        1.65673         68.2413         9.32595         9.32595 
        1.66285         68.0112         9.24168         9.24168 
        1.66898         67.7799         9.15843         9.15843 
        1.67512          67.178         9.07604         9.07604 
        1.68127         66.9558         8.99458         8.99458 
         1.6874         66.4959          8.9143          8.9143 
        1.69353         66.1135         8.83505         8.83505 
        1.69967         65.8222         8.75657         8.75657 
        1.70581         65.5334         8.67908         8.67908 
        1.71193         65.2225         8.60282         8.60282 
        1.71806          64.802         8.52731         8.52731 
        1.72421         64.3582         8.45255         8.45255 
        1.73035         64.1072         8.37878         8.37878 
        1.73649         63.8409          8.3059          8.3059 
        1.74262         63.3688         8.23394         8.23394 
        1.74876         63.1397         8.16278         8.16278 
        1.75489         62.6855         8.09261         8.09261 
        1.76101         62.4834         8.02329         8.02329 
        1.76715         61.9838         7.95467         7.95467 
        1.77329         61.7322         7.88678         7.88678 
        1.77943         61.3225         7.81964         7.81964 
        1.78557         61.1827         7.75338         7.75338 
        1.79171         60.6707         7.68788         7.68788 
        1.79785         60.3242         7.62311         7.62311 
        1.80399         60.1786         7.55911         7.55911 
        1.81012         59.8907         7.49592         7.49592 
        1.81625         59.4615         7.43348         7.43348 
        1.82239         59.2002         7.37165         7.37165 
        1.82853         58.9037         7.31056         7.31056 
        1.83466         58.6158         7.25022         7.25022 
        1.84078          58.223         7.19062         7.19062 
        1.84692         57.9247         7.13159         7.13159 
        1.85306         57.6174         7.07315         7.07315 
         1.8592         57.3702         7.01545         7.01545 
        1.86533         57.0042         6.95843         6.95843 
        1.87147         56.5673         6.90198         6.90198 
