# k  (h/Mpc)    Pcb(k)  (Mpc/h)^3    Pcb_linear(k) (Mpc/h)^3    Pcb_NL(k) (Mpc/h)^3   ShotnoiseSubtracted = false
     0.00783031         8151.18         8255.57         8255.57 
       0.013688         9667.84         9611.99         9611.99 
       0.019231         9295.97         9269.69         9269.69 
      0.0249154         8081.99         8183.28         8183.28 
      0.0312784         6756.98         6778.92         6778.92 
      0.0375637         5628.59         5599.78         5599.78 
      0.0433917         4781.17         4809.57         4809.57 
      0.0492413         4281.75         4279.81         4279.81 
      0.0555754         3844.51         3900.17         3900.17 
      0.0619321         3630.73         3600.76         3600.76 
       0.067871         3278.39         3313.34         3313.34 
      0.0738098         2958.67         2987.92         2987.92 
      0.0800417         2583.83         2620.65         2620.65 
      0.0862327         2265.46         2271.13         2271.13 
      0.0921407         2012.39         1988.73         1988.73 
      0.0982031         1781.35         1769.63         1769.63 
       0.104506         1662.26         1614.98         1614.98 
       0.110769         1551.95         1515.02         1515.02 
       0.116806         1466.64         1443.21         1443.21 
       0.122832         1401.01         1372.17         1372.17 
       0.129052         1293.81          1284.7          1284.7 
       0.135211         1198.33          1181.9          1181.9 
       0.141259         1111.33         1073.72         1073.72 
       0.147318          1019.7         970.611         970.611 
       0.153489         924.236         881.634         881.634 
       0.159709         864.826         813.319         813.319 
       0.165845         826.415         765.518         765.518 
       0.171974         782.334         731.323         731.323 
       0.178125         751.035         702.892         702.892 
       0.184229          721.11         673.752         673.752 
        0.19034         671.346         639.825         639.825 
       0.196428         648.224         601.093         601.093 
       0.202534         617.615         559.971         559.971 
       0.208729         576.701         519.852         519.852 
       0.214876         540.718         484.963         484.963 
       0.220989          518.99         456.734         456.734 
       0.227147         492.343         434.563         434.563 
        0.23329         473.158         417.026         417.026 
       0.239377         461.473         401.872         401.872 
       0.245482         431.832         386.806         386.806 
       0.251667         424.738         370.409         370.409 
       0.257832         407.724         352.715         352.715 
       0.263955         390.251         334.494         334.494 
       0.270079         372.954          316.76          316.76 
        0.27624         364.514         300.444         300.444 
       0.282372         349.484         286.328         286.328 
        0.28843         337.333         274.493         274.493 
       0.294538         321.733          264.25          264.25 
       0.300721         317.987          254.94          254.94 
        0.30691          303.06         245.986         245.986 
       0.313033         295.378         237.045         237.045 
       0.319153         283.452         227.861         227.861 
       0.325316          275.87         218.521         218.521 
        0.33145         265.624         209.421         209.421 
       0.337538         260.645         200.904         200.904 
       0.343633         251.272         193.103         193.103 
       0.349808         242.705         185.992         185.992 
       0.355968         238.671         179.605         179.605 
       0.362074         232.473         173.766         173.766 
       0.368217         225.671         168.193         168.193 
       0.374374         217.373         162.728         162.728 
       0.380519         213.779         157.321         157.321 
       0.386598          207.85         152.031         152.031 
       0.392688         204.475         146.847         146.847 
        0.39888         198.893         141.795         141.795 
       0.405048         193.541         137.056         137.056 
       0.411186          189.12         132.652         132.652 
       0.417313         185.015          128.56          128.56 
       0.423458         180.756         124.711         124.711 
       0.429607         176.492         121.042         121.042 
       0.435692         171.027          117.54          117.54 
       0.441815         169.368         114.112         114.112 
       0.447964         165.833         110.744         110.744 
       0.454126         158.778          107.46          107.46 
       0.460267         156.768         104.304         104.304 
       0.466387         154.606         101.293         101.293 
        0.47254         150.778          98.405          98.405 
       0.478662         149.577         95.6759         95.6759 
       0.484765         144.772         93.0888         93.0888 
       0.490885         142.403         90.6067         90.6067 
       0.497035         140.246         88.2017         88.2017 
       0.503198         136.329         85.8683         85.8683 
       0.509342         134.169         83.6137         83.6137 
       0.515458          132.11          81.438          81.438 
       0.521598         129.762         79.3212         79.3212 
       0.527764         127.801         77.2676         77.2676 
       0.533884         125.748         75.3054         75.3054 
           0.54         123.303          73.423          73.423 
       0.546137         122.035         71.6089         71.6089 
       0.552299         119.798         69.8547         69.8547 
       0.558452         117.612         68.1633         68.1633 
       0.564573         115.534         66.5339         66.5339 
       0.570708         113.436         64.9513         64.9513 
       0.576825         111.889         63.4228         63.4228 
       0.582926         109.677         61.9458         61.9458 
       0.589034         107.979          60.513          60.513 
       0.595184         106.446         59.1158         59.1158 
       0.601379         105.061         57.7538         57.7538 
       0.607522         102.651         56.4467         56.4467 
       0.613639         102.052         55.1875         55.1875 
       0.619772         99.8641         53.9657         53.9657 
       0.625918         98.5393         52.7798         52.7798 
       0.632068         97.4116         51.6295         51.6295 
       0.638161         96.2656         50.5235         50.5235 
         0.6443         94.9603         49.4412         49.4412 
       0.650464         93.7611         48.3857         48.3857 
       0.656582         92.2425          47.368          47.368 
       0.662703         90.7669         46.3789         46.3789 
       0.668861         89.4985         45.4127         45.4127 
       0.675024         88.3278         44.4736         44.4736 
       0.681124         87.4597         43.5712         43.5712 
       0.687237         85.7633         42.6927         42.6927 
       0.693381         84.6403         41.8349         41.8349 
       0.699536         83.8093         40.9994         40.9994 
       0.705665         83.7704         40.1905         40.1905 
       0.711789         81.5623         39.4042         39.4042 
       0.717957         81.0805         38.6335         38.6335 
        0.72409         79.7875         37.8876         37.8876 
       0.730186           78.45         37.1659         37.1659 
       0.736317          78.163         36.4589         36.4589 
       0.742472         77.2801         35.7678         35.7678 
       0.748622         76.3647         35.0952         35.0952 
        0.75476         75.5087         34.4414         34.4414 
       0.760888         74.3993         33.8053         33.8053 
       0.767043         73.7807         33.1829         33.1829 
       0.773185         72.8373         32.5775         32.5775 
       0.779291         72.0243         31.9907         31.9907 
       0.785407         71.4567         31.4177         31.4177 
       0.791564         70.6351         30.8551         30.8551 
       0.797719         69.4065         30.3066         30.3066 
       0.803834         69.0768          29.775          29.775 
       0.809972          67.862         29.2543         29.2543 
       0.816124         67.4821          28.745          28.745 
       0.822261         66.8655         28.2491         28.2491 
       0.828378         66.2857         27.7665         27.7665 
       0.834502         65.6386         27.2948         27.2948 
       0.840667         64.8261          26.831          26.831 
       0.846816         63.9748         26.3794         26.3794 
       0.852925         63.4804          25.941          25.941 
       0.859047           62.58         25.5117         25.5117 
       0.865192         62.1643         25.0908         25.0908 
       0.871341         61.7223         24.6791         24.6791 
       0.877463         60.7139         24.2785         24.2785 
       0.883569         60.3411         23.8878         23.8878 
       0.889708         59.8963         23.5038         23.5038 
       0.895864          59.334         23.1273         23.1273 
       0.902008         58.7584         22.7598         22.7598 
       0.908149         58.2907         22.4005         22.4005 
       0.914301         57.6807         22.0485         22.0485 
       0.920448         57.2381         21.7044         21.7044 
       0.926574         56.5849         21.3688         21.3688 
       0.932687          56.384          21.041          21.041 
       0.938823         55.4375          20.719          20.719 
       0.944975         55.0659         20.4029         20.4029 
       0.951105         54.5531         20.0946         20.0946 
       0.957225          53.904         19.7932         19.7932 
       0.963368         53.7679          19.497          19.497 
       0.969511         53.3456         19.2069         19.2069 
       0.975621         52.9644         18.9242         18.9242 
       0.981748         52.3541         18.6464         18.6464 
       0.987916         51.8415         18.3726         18.3726 
        0.99406         51.5452         18.1052         18.1052 
        1.00019         50.9854         17.8437         17.8437 
        1.00632         50.6916         17.5876         17.5876 
        1.01246         50.2885         17.3362         17.3362 
        1.01859         49.5517         17.0901         17.0901 
        1.02471         49.5183         16.8491         16.8491 
        1.03085         49.0235         16.6119         16.6119 
        1.03698         48.5934         16.3797         16.3797 
        1.04314         48.1566          16.151          16.151 
        1.04929         47.8052         15.9272         15.9272 
        1.05541         47.3147         15.7086         15.7086 
        1.06154         47.2462         15.4935         15.4935 
        1.06769         46.7364         15.2821         15.2821 
        1.07382         46.5235         15.0754         15.0754 
        1.07993         46.1956          14.873          14.873 
        1.08607         45.7652         14.6734         14.6734 
        1.09222         45.4896         14.4774         14.4774 
        1.09836         45.1209         14.2851         14.2851 
        1.10449         44.7836         14.0966         14.0966 
        1.11063         44.3261         13.9112         13.9112 
        1.11677         44.0533         13.7293         13.7293 
         1.1229         43.7193         13.5509         13.5509 
        1.12903         43.1188         13.3756         13.3756 
        1.13518         43.2894         13.2032         13.2032 
        1.14131         42.9774         13.0339         13.0339 
        1.14745         42.3574         12.8677         12.8677 
        1.15359         42.2911         12.7044         12.7044 
        1.15973         41.7965         12.5439         12.5439 
        1.16584          41.566         12.3868         12.3868 
        1.17197         41.3015         12.2322         12.2322 
        1.17811         41.0894         12.0798         12.0798 
        1.18424         40.6824         11.9304         11.9304 
        1.19038         40.4308         11.7831         11.7831 
        1.19652         40.3053         11.6384         11.6384 
        1.20267         39.9147         11.4961         11.4961 
        1.20881         39.6743         11.3562         11.3562 
        1.21495         39.3012         11.2188         11.2188 
        1.22108         39.1261         11.0837         11.0837 
         1.2272         38.6765         10.9512         10.9512 
        1.23334          38.544         10.8205         10.8205 
        1.23949         38.4865         10.6917         10.6917 
        1.24562         38.0218         10.5653         10.5653 
        1.25174         37.8933         10.4411         10.4411 
        1.25789         37.6845         10.3185         10.3185 
        1.26402         37.3582         10.1982         10.1982 
        1.27014         36.9819           10.08           10.08 
        1.27628         36.8291         9.96337         9.96337 
        1.28244         36.5737         9.84835         9.84835 
        1.28858         36.4178         9.73529         9.73529 
        1.29471         36.2877         9.62426         9.62426 
        1.30084         36.0419         9.51507         9.51507 
        1.30697         35.7309         9.40741         9.40741 
        1.31312         35.4584         9.30125         9.30125 
        1.31925         35.3274         9.19707         9.19707 
        1.32537         35.1377         9.09458         9.09458 
        1.33151         34.8023         8.99329         8.99329 
        1.33765         34.7132         8.89361         8.89361 
        1.34378         34.4675         8.79562         8.79562 
        1.34992         34.2142         8.69905         8.69905 
        1.35606         34.0046         8.60371         8.60371 
         1.3622         33.7873         8.50998         8.50998 
        1.36833         33.5662         8.41786         8.41786 
        1.37445         33.4687         8.32715         8.32715 
        1.38059         33.2414          8.2375          8.2375 
        1.38675         32.9584         8.14895         8.14895 
        1.39288         32.8952         8.06206         8.06206 
        1.39901         32.6095         7.97647         7.97647 
        1.40515         32.4355         7.89194         7.89194 
         1.4113         32.3004         7.80866         7.80866 
        1.41742         32.0788         7.72689         7.72689 
        1.42355         31.8669         7.64615         7.64615 
         1.4297          31.708         7.56631         7.56631 
        1.43585         31.5997         7.48765         7.48765 
        1.44198         31.2766          7.4104          7.4104 
        1.44809          31.202         7.33438         7.33438 
        1.45423         31.0319         7.25915         7.25915 
        1.46036         30.8861         7.18511         7.18511 
        1.46649         30.6779         7.11207         7.11207 
        1.47263         30.4763         7.03999         7.03999 
        1.47877          30.373         6.96893         6.96893 
        1.48491         30.3029         6.89875         6.89875 
        1.49104         30.0127         6.82967         6.82967 
        1.49718         29.7055         6.76148         6.76148 
        1.50333         29.6881         6.69412         6.69412 
        1.50947         29.5707          6.6278          6.6278 
         1.5156          29.344         6.56248         6.56248 
        1.52172         29.1837         6.49804         6.49804 
        1.52787         29.1258         6.43434         6.43434 
          1.534         28.9197         6.37156         6.37156 
        1.54013         28.7073         6.30969         6.30969 
        1.54627         28.6214         6.24852         6.24852 
        1.55241         28.3661         6.18816         6.18816 
        1.55855          28.281         6.12867         6.12867 
        1.56467         28.0083         6.07013         6.07013 
         1.5708         28.0576         6.01219         6.01219 
        1.57695         27.7779         5.95491         5.95491 
        1.58308         27.6798         5.89852         5.89852 
        1.58922          27.622         5.84281         5.84281 
        1.59535         27.4356         5.78784         5.78784 
         1.6015         27.2164          5.7335          5.7335 
        1.60764         27.0763         5.67988         5.67988 
        1.61376           26.95          5.6271          5.6271 
        1.61989         26.7555         5.57494         5.57494 
        1.62604         26.7004         5.52332         5.52332 
        1.63218         26.6035         5.47239         5.47239 
        1.63831         26.4117         5.42221         5.42221 
        1.64444         26.3007         5.37265         5.37265 
        1.65059         26.1153         5.32358         5.32358 
        1.65673         25.9582         5.27518         5.27518 
        1.66285         25.8709         5.22751         5.22751 
        1.66898         25.7316         5.18042         5.18042 
        1.67512         25.6181         5.13382         5.13382 
        1.68127         25.4359         5.08774         5.08774 
         1.6874         25.3331         5.04233         5.04233 
        1.69353         25.2221          4.9975          4.9975 
        1.69967          25.072         4.95311         4.95311 
        1.70581         24.9879         4.90928         4.90928 
        1.71193         24.8729         4.86614         4.86614 
        1.71806         24.6861         4.82343         4.82343 
        1.72421         24.5405         4.78115         4.78115 
        1.73035         24.4251         4.73942         4.73942 
        1.73649         24.3197         4.69819         4.69819 
        1.74262         24.1988         4.65749         4.65749 
        1.74876         24.1712         4.61724         4.61724 
        1.75489         23.9985         4.57755         4.57755 
        1.76101         23.8513         4.53833         4.53833 
        1.76715         23.7711         4.49952         4.49952 
        1.77329         23.6676         4.46112         4.46112 
        1.77943         23.5443         4.42314         4.42314 
        1.78557         23.3914         4.38566         4.38566 
        1.79171         23.2871         4.34861         4.34861 
        1.79785         23.1655         4.31198         4.31198 
        1.80399         23.1011         4.27577         4.27577 
        1.81012         22.9882         4.24003         4.24003 
        1.81625         22.8825         4.20471         4.20471 
        1.82239         22.7862         4.16974         4.16974 
        1.82853         22.6201         4.13518         4.13518 
        1.83466         22.5442         4.10105         4.10105 
        1.84078           22.36         4.06734         4.06734 
        1.84692         22.2877         4.03395         4.03395 
        1.85306         22.1935         4.00089         4.00089 
         1.8592         22.0752         3.96826         3.96826 
        1.86533         21.9528         3.93601         3.93601 
        1.87147          21.888         3.90407         3.90407 
