# k  (h/Mpc)    P(k)  (Mpc/h)^3    P_linear(k)  (Mpc/h)^3     P_NL(k)  ShotnoiseSubtracted = false
     0.00783031          1951.4         1972.46         1972.46 
       0.013688         2297.92         2297.48         2297.48 
       0.019231         2218.38         2216.02         2216.02 
      0.0249154         1944.91         1956.47         1956.47 
      0.0312784         1620.94         1620.81         1620.81 
      0.0375637         1344.63         1338.92         1338.92 
      0.0433917         1149.02         1150.01         1150.01 
      0.0492413         1025.06         1023.35         1023.35 
      0.0555754         927.746         932.586         932.586 
      0.0619321         865.661             861             861 
       0.067871         789.328         792.278         792.278 
      0.0738098         711.552         714.468         714.468 
      0.0800417         622.752          626.65          626.65 
      0.0862327         542.527         543.075         543.075 
      0.0921407         477.432         475.548         475.548 
      0.0982031         423.306         423.158         423.158 
       0.104506         390.317         386.178         386.178 
       0.110769         365.163         362.277         362.277 
       0.116806         345.605         345.105         345.105 
       0.122832         330.035         328.118         328.118 
       0.129052         306.912         307.203         307.203 
       0.135211         282.687          282.62          282.62 
       0.141259         258.956         256.752         256.752 
       0.147318          235.65         232.097         232.097 
       0.153489         213.556         210.821         210.821 
       0.159709         197.727         194.485         194.485 
       0.165845         187.704         183.054         183.054 
       0.171974         177.582         174.878         174.878 
       0.178125         170.941         168.079         168.079 
       0.184229         164.224         161.111         161.111 
        0.19034         154.081         152.998         152.998 
       0.196428          146.45         143.737         143.737 
       0.202534         138.178         133.903         133.903 
       0.208729         127.969          124.31          124.31 
       0.214876         119.025         115.967         115.967 
       0.220989         113.469         109.217         109.217 
       0.227147         107.036         103.915         103.915 
        0.23329         102.767         99.7215         99.7215 
       0.239377         99.4365          96.098          96.098 
       0.245482         94.6441         92.4952         92.4952 
       0.251667         91.7397         88.5742         88.5742 
       0.257832          87.555         84.3433         84.3433 
       0.263955         83.2102         79.9863         79.9863 
       0.270079         79.1472         75.7457         75.7457 
        0.27624         76.0213         71.8439         71.8439 
       0.282372          72.651         68.4685         68.4685 
        0.28843         69.4045         65.6384         65.6384 
       0.294538         66.6935         63.1889         63.1889 
       0.300721         64.9906         60.9628         60.9628 
        0.30691         62.2316         58.8217         58.8217 
       0.313033         60.0722         56.6837         56.6837 
       0.319153         57.1143         54.4875         54.4875 
       0.325316         55.8671         52.2541         52.2541 
        0.33145         53.3994          50.078          50.078 
       0.337538         51.6284         48.0413         48.0413 
       0.343633          49.548          46.176          46.176 
       0.349808         47.9509         44.4755         44.4755 
       0.355968         46.5109         42.9481         42.9481 
       0.362074         44.9628         41.5521         41.5521 
       0.368217         43.5194         40.2192         40.2192 
       0.374374         42.0924         38.9127         38.9127 
       0.380519         40.9293         37.6195         37.6195 
       0.386598         39.6707         36.3546         36.3546 
       0.392688         38.6449          35.115          35.115 
        0.39888         37.3205         33.9068         33.9068 
       0.405048         36.2662         32.7737         32.7737 
       0.411186         35.2507         31.7204         31.7204 
       0.417313         34.0588         30.7422         30.7422 
       0.423458          33.112         29.8218         29.8218 
       0.429607         32.1469         28.9443         28.9443 
       0.435692         31.1523         28.1068         28.1068 
       0.441815         30.4818         27.2871         27.2871 
       0.447964         29.8459         26.4819         26.4819 
       0.454126         28.6237         25.6966         25.6966 
       0.460267         28.0302         24.9418         24.9418 
       0.466387         27.1264         24.2217         24.2217 
        0.47254         26.6006         23.5313         23.5313 
       0.478662         26.0554         22.8786         22.8786 
       0.484765         25.2344           22.26           22.26 
       0.490885         24.6251         21.6664         21.6664 
       0.497035         24.2244         21.0914         21.0914 
       0.503198         23.5386         20.5334         20.5334 
       0.509342         22.9197         19.9943         19.9943 
       0.515458         22.3385          19.474          19.474 
       0.521598         21.8927         18.9678         18.9678 
       0.527764         21.3574         18.4767         18.4767 
       0.533884         20.9585         18.0075         18.0075 
           0.54         20.4381         17.5574         17.5574 
       0.546137          20.052         17.1236         17.1236 
       0.552299         19.6582         16.7041         16.7041 
       0.558452         19.0323         16.2997         16.2997 
       0.564573         18.7289           15.91           15.91 
       0.570708          18.354         15.5316         15.5316 
       0.576825         17.8641         15.1661         15.1661 
       0.582926         17.5023         14.8129         14.8129 
       0.589034         16.9954         14.4703         14.4703 
       0.595184          16.742         14.1362         14.1362 
       0.601379         16.3615         13.8105         13.8105 
       0.607522         16.0649         13.4979         13.4979 
       0.613639         15.8444         13.1968         13.1968 
       0.619772         15.4069         12.9046         12.9046 
       0.625918         15.2717         12.6211         12.6211 
       0.632068         15.0034          12.346          12.346 
       0.638161         14.6175         12.0815         12.0815 
         0.6443         14.3069         11.8227         11.8227 
       0.650464         14.0043         11.5703         11.5703 
       0.656582         13.8872         11.3269         11.3269 
       0.662703         13.6007         11.0904         11.0904 
       0.668861         13.3199         10.8594         10.8594 
       0.675024         13.0436         10.6348         10.6348 
       0.681124         12.8086          10.419          10.419 
       0.687237         12.5712          10.209          10.209 
       0.693381         12.4018         10.0038         10.0038 
       0.699536         12.0648         9.80404         9.80404 
       0.705665         11.9471         9.61062         9.61062 
       0.711789         11.6938          9.4226          9.4226 
       0.717957         11.4928         9.23831         9.23831 
        0.72409         11.2935         9.05994         9.05994 
       0.730186         11.1322         8.88735         8.88735 
       0.736317         10.9818          8.7183          8.7183 
       0.742472         10.7843         8.55303         8.55303 
       0.748622         10.6214          8.3922          8.3922 
        0.75476         10.3888         8.23586         8.23586 
       0.760888         10.2347         8.08376         8.08376 
       0.767043         10.0946         7.93491         7.93491 
       0.773185         9.88229         7.79015         7.79015 
       0.779291         9.79621         7.64984         7.64984 
       0.785407         9.65022          7.5128          7.5128 
       0.791564         9.47086         7.37828         7.37828 
       0.797719         9.26019         7.24712         7.24712 
       0.803834         9.21445            7.12            7.12 
       0.809972         9.10419         6.99549         6.99549 
       0.816124          8.8799         6.87369         6.87369 
       0.822261         8.75157         6.75512         6.75512 
       0.828378         8.64751         6.63971         6.63971 
       0.834502         8.55421         6.52691         6.52691 
       0.840667         8.39396         6.41602         6.41602 
       0.846816         8.23175         6.30802         6.30802 
       0.852925         8.14809         6.20319         6.20319 
       0.859047         8.03228         6.10053         6.10053 
       0.865192         7.94762         5.99987         5.99987 
       0.871341         7.84784         5.90142         5.90142 
       0.877463         7.70707         5.80563         5.80563 
       0.883569         7.57906         5.71222         5.71222 
       0.889708         7.44268         5.62039         5.62039 
       0.895864          7.3676         5.53035         5.53035 
       0.902008         7.29458         5.44248         5.44248 
       0.908149         7.20415         5.35657         5.35657 
       0.914301         7.10478         5.27238         5.27238 
       0.920448         6.97662         5.19009         5.19009 
       0.926574         6.89047         5.10985         5.10985 
       0.932687         6.80503         5.03147         5.03147 
       0.938823         6.70671         4.95446         4.95446 
       0.944975         6.61158         4.87889         4.87889 
       0.951105         6.53865         4.80517         4.80517 
       0.957225         6.49003         4.73309         4.73309 
       0.963368         6.39437         4.66226         4.66226 
       0.969511         6.31672         4.59287         4.59287 
       0.975621         6.23595         4.52527         4.52527 
       0.981748         6.15295         4.45886         4.45886 
       0.987916         6.08965         4.39337         4.39337 
        0.99406         5.98831         4.32944         4.32944 
        1.00019         5.88998         4.26691         4.26691 
        1.00632         5.85967         4.20567         4.20567 
        1.01246         5.78472         4.14555         4.14555 
        1.01859         5.69218          4.0867          4.0867 
        1.02471         5.64387         4.02906         4.02906 
        1.03085         5.57322         3.97234         3.97234 
        1.03698         5.48351         3.91683         3.91683 
        1.04314         5.44004         3.86214         3.86214 
        1.04929          5.3654         3.80863         3.80863 
        1.05541         5.29151         3.75634         3.75634 
        1.06154         5.24583         3.70491         3.70491 
        1.06769         5.21131         3.65437         3.65437 
        1.07382         5.12524         3.60493         3.60493 
        1.07993         5.06195         3.55653         3.55653 
        1.08607         5.02142         3.50881         3.50881 
        1.09222         4.96203         3.46192         3.46192 
        1.09836         4.89787         3.41595         3.41595 
        1.10449         4.84966         3.37087         3.37087 
        1.11063         4.78783         3.32655         3.32655 
        1.11677         4.75189         3.28304         3.28304 
         1.1229         4.70408         3.24039         3.24039 
        1.12903         4.63958         3.19846         3.19846 
        1.13518         4.58177         3.15723         3.15723 
        1.14131         4.52922         3.11676         3.11676 
        1.14745         4.47516         3.07702         3.07702 
        1.15359         4.44422         3.03796         3.03796 
        1.15973         4.38868         2.99957         2.99957 
        1.16584         4.32729         2.96202         2.96202 
        1.17197         4.28932         2.92505         2.92505 
        1.17811         4.26201          2.8886          2.8886 
        1.18424         4.21238         2.85288         2.85288 
        1.19038          4.1832         2.81766         2.81766 
        1.19652         4.12937         2.78305         2.78305 
        1.20267         4.08103         2.74902         2.74902 
        1.20881         4.05629         2.71556         2.71556 
        1.21495         4.01367         2.68272         2.68272 
        1.22108         3.96114         2.65042         2.65042 
         1.2272          3.9288         2.61873         2.61873 
        1.23334         3.87612         2.58748         2.58748 
        1.23949         3.83745         2.55667         2.55667 
        1.24562         3.81067         2.52644         2.52644 
        1.25174          3.7699         2.49675         2.49675 
        1.25789         3.73729         2.46744         2.46744 
        1.26402         3.70825         2.43866         2.43866 
        1.27014         3.66745          2.4104          2.4104 
        1.27628          3.6262         2.38251         2.38251 
        1.28244         3.58005           2.355           2.355 
        1.28858         3.56997         2.32797         2.32797 
        1.29471         3.52154         2.30142         2.30142 
        1.30084         3.48227         2.27531         2.27531 
        1.30697         3.47544         2.24956         2.24956 
        1.31312         3.40772         2.22418         2.22418 
        1.31925         3.38272         2.19927         2.19927 
        1.32537         3.35042         2.17476         2.17476 
        1.33151         3.33866         2.15054         2.15054 
        1.33765         3.29042          2.1267          2.1267 
        1.34378         3.26515         2.10327         2.10327 
        1.34992         3.24241         2.08018         2.08018 
        1.35606         3.19883         2.05738         2.05738 
         1.3622         3.18109         2.03496         2.03496 
        1.36833         3.14619         2.01294         2.01294 
        1.37445          3.1193         1.99125         1.99125 
        1.38059         3.10631         1.96981         1.96981 
        1.38675         3.07511         1.94863         1.94863 
        1.39288         3.05019         1.92786         1.92786 
        1.39901         3.00877         1.90739         1.90739 
        1.40515         2.98767         1.88717         1.88717 
         1.4113         2.96209         1.86726         1.86726 
        1.41742         2.93856         1.84771         1.84771 
        1.42355         2.90732          1.8284          1.8284 
         1.4297         2.88537         1.80931         1.80931 
        1.43585         2.86918          1.7905          1.7905 
        1.44198         2.84738         1.77203         1.77203 
        1.44809         2.81555         1.75385         1.75385 
        1.45423         2.78939         1.73586         1.73586 
        1.46036         2.76236         1.71815         1.71815 
        1.46649         2.74299         1.70069         1.70069 
        1.47263          2.7157         1.68345         1.68345 
        1.47877          2.6925         1.66646         1.66646 
        1.48491         2.67396         1.64968         1.64968 
        1.49104         2.65298         1.63316         1.63316 
        1.49718         2.62898         1.61685         1.61685 
        1.50333         2.61187         1.60074         1.60074 
        1.50947          2.5845         1.58489         1.58489 
         1.5156         2.56666         1.56927         1.56927 
        1.52172         2.54787         1.55386         1.55386 
        1.52787         2.52916         1.53862         1.53862 
          1.534         2.50359         1.52361         1.52361 
        1.54013         2.48865         1.50882         1.50882 
        1.54627         2.46228         1.49419         1.49419 
        1.55241         2.44077         1.47975         1.47975 
        1.55855         2.42883         1.46553         1.46553 
        1.56467         2.40871         1.45153         1.45153 
         1.5708         2.38934         1.43768         1.43768 
        1.57695         2.36775         1.42398         1.42398 
        1.58308         2.34489         1.41049         1.41049 
        1.58922         2.33652         1.39717         1.39717 
        1.59535         2.31856         1.38403         1.38403 
         1.6015         2.29638         1.37103         1.37103 
        1.60764         2.27928         1.35821         1.35821 
        1.61376         2.26439         1.34559         1.34559 
        1.61989         2.24434         1.33312         1.33312 
        1.62604         2.22715         1.32077         1.32077 
        1.63218         2.21838          1.3086          1.3086 
        1.63831         2.19604          1.2966          1.2966 
        1.64444         2.18104         1.28474         1.28474 
        1.65059         2.15727         1.27301         1.27301 
        1.65673         2.15144         1.26144         1.26144 
        1.66285         2.12664         1.25004         1.25004 
        1.66898         2.11411         1.23878         1.23878 
        1.67512         2.09674         1.22763         1.22763 
        1.68127         2.08257         1.21662         1.21662 
         1.6874         2.07344         1.20576         1.20576 
        1.69353         2.04883         1.19504         1.19504 
        1.69967         2.03897         1.18442         1.18442 
        1.70581         2.02636         1.17394         1.17394 
        1.71193         2.00894         1.16363         1.16363 
        1.71806         1.99715         1.15341         1.15341 
        1.72421         1.98223          1.1433          1.1433 
        1.73035         1.96913         1.13332         1.13332 
        1.73649         1.95344         1.12346         1.12346 
        1.74262         1.93792         1.11373         1.11373 
        1.74876         1.92828         1.10411         1.10411 
        1.75489         1.91414         1.09462         1.09462 
        1.76101         1.89603         1.08524         1.08524 
        1.76715         1.88852         1.07596         1.07596 
        1.77329         1.87686         1.06677         1.06677 
        1.77943         1.85491         1.05769         1.05769 
        1.78557         1.84658         1.04873         1.04873 
        1.79171         1.83666         1.03987         1.03987 
        1.79785         1.82144         1.03111         1.03111 
        1.80399         1.80832         1.02245         1.02245 
        1.81012         1.79629         1.01391         1.01391 
        1.81625         1.78596         1.00546         1.00546 
        1.82239         1.77293        0.997098        0.997098 
        1.82853         1.75715        0.988834        0.988834 
        1.83466         1.75099        0.980672        0.980672 
        1.84078         1.74094        0.972611        0.972611 
        1.84692         1.72937        0.964627        0.964627 
        1.85306         1.71286        0.956722        0.956722 
         1.8592         1.70052        0.948918        0.948918 
        1.86533         1.68968        0.941206        0.941206 
        1.87147         1.68224         0.93357         0.93357 
        1.87761         1.66864        0.926015        0.926015 
