# k  (h/Mpc)    Pcb(k)  (Mpc/h)^3    Pcb_linear(k) (Mpc/h)^3    Pcb_NL(k) (Mpc/h)^3   ShotnoiseSubtracted = false
     0.00783031         2955.31         2988.43         2988.43 
       0.013688         3485.58         3480.49         3480.49 
       0.019231         3362.13         3356.95         3356.95 
      0.0249154         2942.43          2963.7          2963.7 
      0.0312784         2454.12          2455.2          2455.2 
      0.0375637         2037.55         2028.19         2028.19 
      0.0433917         1738.96         1742.01         1742.01 
      0.0492413          1552.6         1550.15         1550.15 
      0.0555754         1402.97         1412.65         1412.65 
      0.0619321         1312.58         1304.22         1304.22 
       0.067871         1194.36         1200.12         1200.12 
      0.0738098         1076.82         1082.25         1082.25 
      0.0800417         941.948         949.226         949.226 
      0.0862327         821.655          822.63          822.63 
      0.0921407         724.313         720.342         720.342 
      0.0982031          641.82         640.983         640.983 
       0.104506          593.36         584.966         584.966 
       0.110769         554.883         548.763         548.763 
       0.116806         524.768         522.751         522.751 
       0.122832         501.402          497.02          497.02 
       0.129052         465.546         465.338         465.338 
       0.135211         429.216         428.101         428.101 
       0.141259         394.134         388.917         388.917 
       0.147318         359.247         351.571         351.571 
       0.153489         325.506         319.342         319.342 
       0.159709          301.99         294.597         294.597 
       0.165845         287.125         277.283         277.283 
       0.171974         271.472         264.897         264.897 
       0.178125         261.299         254.599         254.599 
       0.184229         251.073         244.044         244.044 
        0.19034         234.964         231.755         231.755 
       0.196428         224.153         217.726         217.726 
       0.202534         212.041         202.831         202.831 
       0.208729         196.595         188.299         188.299 
       0.214876         182.998         175.662         175.662 
       0.220989         174.801         165.437         165.437 
       0.227147         164.912         157.406         157.406 
        0.23329         158.381         151.054         151.054 
       0.239377         153.526         145.565         145.565 
       0.245482         145.516         140.108         140.108 
       0.251667         141.522         134.169         134.169 
       0.257832         135.338         127.759         127.759 
       0.263955         128.724          121.16          121.16 
       0.270079         122.583         114.736         114.736 
        0.27624         118.194         108.826         108.826 
       0.282372         113.071         103.713         103.713 
        0.28843         108.122         99.4261         99.4261 
       0.294538         103.795         95.7159         95.7159 
       0.300721         101.448         92.3438         92.3438 
        0.30691          97.014         89.1006         89.1006 
       0.313033          93.791         85.8619         85.8619 
       0.319153         89.1845         82.5353         82.5353 
       0.325316          87.306         79.1521         79.1521 
        0.33145         83.4896          75.856          75.856 
       0.337538         81.0413         72.7709         72.7709 
       0.343633         77.8516         69.9452         69.9452 
       0.349808         75.3432         67.3695         67.3695 
       0.355968         73.2555         65.0559         65.0559 
       0.362074         70.8671         62.9413         62.9413 
       0.368217         68.6099         60.9224         60.9224 
       0.374374         66.4626         58.9431         58.9431 
       0.380519         64.6876         56.9843         56.9843 
       0.386598         62.7289         55.0684         55.0684 
       0.392688          61.223         53.1906         53.1906 
        0.39888         59.2394         51.3606         51.3606 
       0.405048         57.6103         49.6441         49.6441 
       0.411186         56.0836         48.0487         48.0487 
       0.417313         54.2724         46.5669         46.5669 
       0.423458         52.7922         45.1727         45.1727 
       0.429607         51.3267         43.8435         43.8435 
       0.435692         49.6614          42.575          42.575 
       0.441815         48.8041         41.3332         41.3332 
       0.447964         47.8229         40.1136         40.1136 
       0.454126         45.7411         38.9241         38.9241 
       0.460267         44.9372         37.7808         37.7808 
       0.466387         43.6249           36.69           36.69 
        0.47254         42.8039         35.6441         35.6441 
       0.478662         42.0121         34.6555         34.6555 
       0.484765         40.7085         33.7185         33.7185 
       0.490885         39.7724         32.8194         32.8194 
       0.497035         39.1511         31.9482         31.9482 
       0.503198         38.0371         31.1031         31.1031 
       0.509342         37.0383         30.2864         30.2864 
       0.515458         36.2012         29.4983         29.4983 
       0.521598         35.5483         28.7316         28.7316 
       0.527764         34.7599         27.9877         27.9877 
       0.533884         34.1272          27.277          27.277 
           0.54         33.2924         26.5951         26.5951 
       0.546137         32.7481          25.938          25.938 
       0.552299         32.1609         25.3026         25.3026 
       0.558452         31.1586           24.69           24.69 
       0.564573         30.6322         24.0998         24.0998 
       0.570708          30.101         23.5265         23.5265 
       0.576825         29.3655         22.9729         22.9729 
       0.582926         28.7381         22.4379         22.4379 
       0.589034         27.9645         21.9189         21.9189 
       0.595184         27.5815         21.4128         21.4128 
       0.601379         27.0203         20.9195         20.9195 
       0.607522         26.4574          20.446          20.446 
       0.613639         26.1845         19.9899         19.9899 
       0.619772         25.4902         19.5473         19.5473 
       0.625918         25.2869         19.1178         19.1178 
       0.632068         24.8644         18.7011         18.7011 
       0.638161         24.3006         18.3005         18.3005 
         0.6443         23.8058         17.9085         17.9085 
       0.650464         23.3466         17.5262         17.5262 
       0.656582         23.1608         17.1575         17.1575 
       0.662703         22.6814         16.7993         16.7993 
       0.668861         22.2398         16.4493         16.4493 
       0.675024         21.8178         16.1091         16.1091 
       0.681124         21.4282         15.7823         15.7823 
       0.687237         21.0192         15.4641         15.4641 
       0.693381         20.8072         15.1533         15.1533 
       0.699536         20.2752         14.8507         14.8507 
       0.705665         20.1823         14.5577         14.5577 
       0.711789         19.6831         14.2729         14.2729 
       0.717957         19.3954         13.9938         13.9938 
        0.72409         19.0995         13.7236         13.7236 
       0.730186         18.8021         13.4622         13.4622 
       0.736317          18.577         13.2061         13.2061 
       0.742472         18.2323         12.9557         12.9557 
       0.748622         18.0238         12.7121         12.7121 
        0.75476         17.6755         12.4753         12.4753 
       0.760888         17.3919         12.2449         12.2449 
       0.767043         17.1607         12.0194         12.0194 
       0.773185         16.8408         11.8002         11.8002 
       0.779291         16.7242         11.5876         11.5876 
       0.785407         16.5242         11.3801         11.3801 
       0.791564          16.198         11.1763         11.1763 
       0.797719         15.8081         10.9776         10.9776 
       0.803834         15.7736         10.7851         10.7851 
       0.809972         15.5959         10.5964         10.5964 
       0.816124         15.2187         10.4119         10.4119 
       0.822261         15.0525         10.2323         10.2323 
       0.828378         14.9017         10.0575         10.0575 
       0.834502         14.7315         9.88667         9.88667 
       0.840667         14.4984         9.71869         9.71869 
       0.846816          14.221          9.5551          9.5551 
       0.852925         14.0778         9.39631         9.39631 
       0.859047         13.9035         9.24081         9.24081 
       0.865192         13.7439         9.08833         9.08833 
       0.871341         13.6089          8.9392          8.9392 
       0.877463          13.355         8.79411         8.79411 
       0.883569         13.1684         8.65261         8.65261 
       0.889708         12.9525         8.51351         8.51351 
       0.895864         12.8325         8.37712         8.37712 
       0.902008         12.7258         8.24401         8.24401 
       0.908149         12.5706         8.11389         8.11389 
       0.914301           12.47         7.98637         7.98637 
       0.920448          12.217         7.86171         7.86171 
       0.926574         12.0958         7.74016         7.74016 
       0.932687         11.9387         7.62144         7.62144 
       0.938823         11.7763         7.50479         7.50479 
       0.944975         11.6309         7.39032         7.39032 
       0.951105         11.5113         7.27865         7.27865 
       0.957225         11.3909         7.16948         7.16948 
       0.963368         11.2741         7.06218         7.06218 
       0.969511         11.1565         6.95707         6.95707 
       0.975621         11.0435         6.85468         6.85468 
       0.981748         10.8751         6.75408         6.75408 
       0.987916         10.7866         6.65488         6.65488 
        0.99406          10.637         6.55804         6.55804 
        1.00019         10.4714         6.46332         6.46332 
        1.00632         10.4221         6.37056         6.37056 
        1.01246         10.3164         6.27949         6.27949 
        1.01859         10.1352         6.19034         6.19034 
        1.02471         10.0804         6.10304         6.10304 
        1.03085         9.97264         6.01712         6.01712 
        1.03698         9.79424         5.93303         5.93303 
        1.04314         9.73677         5.85019         5.85019 
        1.04929         9.60438         5.76913         5.76913 
        1.05541         9.48052         5.68994         5.68994 
        1.06154         9.41771         5.61203         5.61203 
        1.06769         9.35298         5.53547         5.53547 
        1.07382         9.22551         5.46059         5.46059 
        1.07993         9.13479         5.38726         5.38726 
        1.08607         9.03204         5.31499         5.31499 
        1.09222         8.95634         5.24396         5.24396 
        1.09836         8.83662         5.17432         5.17432 
        1.10449         8.76698         5.10603         5.10603 
        1.11063         8.65154          5.0389          5.0389 
        1.11677         8.60767           4.973           4.973 
         1.1229         8.54315         4.90839         4.90839 
        1.12903         8.42236         4.84488         4.84488 
        1.13518         8.31253         4.78243         4.78243 
        1.14131         8.26269         4.72113         4.72113 
        1.14745         8.17889         4.66093         4.66093 
        1.15359         8.11719         4.60177         4.60177 
        1.15973         8.02481         4.54362         4.54362 
        1.16584         7.90298         4.48673         4.48673 
        1.17197         7.86344         4.43073         4.43073 
        1.17811         7.80132         4.37552         4.37552 
        1.18424         7.71958         4.32141         4.32141 
        1.19038         7.67564         4.26806         4.26806 
        1.19652         7.58564         4.21564         4.21564 
        1.20267         7.50563         4.16409         4.16409 
        1.20881         7.46964         4.11341         4.11341 
        1.21495         7.40187         4.06366         4.06366 
        1.22108         7.30417         4.01473         4.01473 
         1.2272          7.2413         3.96673         3.96673 
        1.23334         7.17262          3.9194          3.9194 
        1.23949         7.09863         3.87272         3.87272 
        1.24562         7.05895         3.82694         3.82694 
        1.25174          7.0059         3.78196         3.78196 
        1.25789         6.93646         3.73757         3.73757 
        1.26402         6.90548         3.69397         3.69397 
        1.27014         6.82814         3.65117         3.65117 
        1.27628         6.73906         3.60892         3.60892 
        1.28244         6.67807         3.56725         3.56725 
        1.28858         6.67043          3.5263          3.5263 
        1.29471         6.58858         3.48609         3.48609 
        1.30084         6.51533         3.44653         3.44653 
        1.30697         6.49126         3.40754         3.40754 
        1.31312         6.39358         3.36908         3.36908 
        1.31925         6.34156         3.33135         3.33135 
        1.32537         6.30317         3.29423         3.29423 
        1.33151         6.26802         3.25754         3.25754 
        1.33765         6.20183         3.22143         3.22143 
        1.34378         6.14936         3.18594         3.18594 
        1.34992         6.09629         3.15096         3.15096 
        1.35606         6.05746         3.11642         3.11642 
         1.3622         6.01584         3.08247         3.08247 
        1.36833         5.94348          3.0491          3.0491 
        1.37445         5.91075         3.01625         3.01625 
        1.38059          5.8743         2.98377         2.98377 
        1.38675         5.81295          2.9517          2.9517 
        1.39288         5.78808         2.92023         2.92023 
        1.39901         5.71801         2.88923         2.88923 
        1.40515         5.68847          2.8586          2.8586 
         1.4113         5.63795         2.82844         2.82844 
        1.41742         5.59312         2.79882         2.79882 
        1.42355         5.54274         2.76958         2.76958 
         1.4297         5.51383         2.74066         2.74066 
        1.43585         5.48151         2.71216         2.71216 
        1.44198          5.4435         2.68418         2.68418 
        1.44809         5.39327         2.65665         2.65665 
        1.45423         5.34532          2.6294          2.6294 
        1.46036         5.30298         2.60258         2.60258 
        1.46649         5.27589         2.57612         2.57612 
        1.47263         5.22092         2.55001         2.55001 
        1.47877         5.18431         2.52428         2.52428 
        1.48491         5.15482         2.49885         2.49885 
        1.49104         5.11562         2.47383         2.47383 
        1.49718         5.07989         2.44913         2.44913 
        1.50333         5.04352         2.42473         2.42473 
        1.50947          4.9972         2.40071         2.40071 
         1.5156         4.97152         2.37705         2.37705 
        1.52172         4.94342         2.35371         2.35371 
        1.52787         4.90153         2.33064         2.33064 
          1.534         4.86273          2.3079          2.3079 
        1.54013         4.83194         2.28549         2.28549 
        1.54627         4.78805         2.26333         2.26333 
        1.55241         4.75645         2.24146         2.24146 
        1.55855         4.73527         2.21992         2.21992 
        1.56467         4.69355         2.19871         2.19871 
         1.5708         4.67436         2.17773         2.17773 
        1.57695         4.63055         2.15698         2.15698 
        1.58308         4.59015         2.13655         2.13655 
        1.58922         4.57495         2.11637         2.11637 
        1.59535          4.5505         2.09646         2.09646 
         1.6015           4.504         2.07678         2.07678 
        1.60764         4.46839         2.05736         2.05736 
        1.61376         4.45202         2.03824         2.03824 
        1.61989         4.41638         2.01935         2.01935 
        1.62604         4.38928         2.00065         2.00065 
        1.63218         4.37061          1.9822          1.9822 
        1.63831          4.3346         1.96403         1.96403 
        1.64444         4.30736         1.94607         1.94607 
        1.65059         4.26024          1.9283          1.9283 
        1.65673          4.2595         1.91077         1.91077 
        1.66285         4.21033          1.8935          1.8935 
        1.66898         4.18525         1.87644         1.87644 
        1.67512         4.16727         1.85956         1.85956 
        1.68127         4.13508         1.84287         1.84287 
         1.6874         4.11494         1.82643         1.82643 
        1.69353         4.07879         1.81019         1.81019 
        1.69967         4.06329         1.79411         1.79411 
        1.70581         4.03951         1.77823         1.77823 
        1.71193         4.00273         1.76261         1.76261 
        1.71806         3.98449         1.74714         1.74714 
        1.72421         3.95834         1.73182         1.73182 
        1.73035         3.94089          1.7167          1.7167 
        1.73649         3.91388         1.70177         1.70177 
        1.74262         3.88288         1.68703         1.68703 
        1.74876         3.86643         1.67245         1.67245 
        1.75489          3.8448         1.65807         1.65807 
        1.76101         3.81228         1.64387         1.64387 
        1.76715         3.79696         1.62981         1.62981 
        1.77329         3.76865          1.6159          1.6159 
        1.77943         3.74099         1.60214         1.60214 
        1.78557         3.72845         1.58857         1.58857 
        1.79171         3.70603         1.57515         1.57515 
        1.79785         3.67919         1.56188         1.56188 
        1.80399         3.65559         1.54876         1.54876 
        1.81012         3.63635         1.53582         1.53582 
        1.81625           3.614         1.52302         1.52302 
        1.82239         3.59706         1.51036         1.51036 
        1.82853         3.56815         1.49784         1.49784 
        1.83466         3.55149         1.48548         1.48548 
        1.84078         3.53703         1.47327         1.47327 
        1.84692          3.5206         1.46117         1.46117 
        1.85306         3.49021          1.4492          1.4492 
         1.8592         3.46802         1.43738         1.43738 
        1.86533         3.44848         1.42569         1.42569 
        1.87147         3.43202         1.41413         1.41413 
