# k  (h/Mpc)    Pcb(k)  (Mpc/h)^3    Pcb_linear(k) (Mpc/h)^3    Pcb_NL(k) (Mpc/h)^3   ShotnoiseSubtracted = false
     0.00783031         2277.68         2302.58         2302.58 
       0.013688         2683.55         2681.89         2681.89 
       0.019231         2589.95         2586.76         2586.76 
      0.0249154         2269.33         2283.78         2283.78 
      0.0312784         1891.79         1891.95         1891.95 
      0.0375637         1569.77         1562.91         1562.91 
      0.0433917         1340.85         1342.38         1342.38 
      0.0492413         1196.51         1194.54         1194.54 
      0.0555754         1082.35         1088.59         1088.59 
      0.0619321         1010.82         1005.03         1005.03 
       0.067871         921.054          924.81          924.81 
      0.0738098         830.331         833.984         833.984 
      0.0800417         726.578         731.475         731.475 
      0.0862327         633.244          633.92          633.92 
      0.0921407         557.573         555.097         555.097 
      0.0982031         494.257         493.943         493.943 
       0.104506         456.138         450.777         450.777 
       0.110769         426.681         422.878         422.878 
       0.116806         403.716         402.834         402.834 
       0.122832         385.611         383.005         383.005 
       0.129052         358.406         358.591         358.591 
       0.135211         330.216         329.896         329.896 
       0.141259         302.733         299.701         299.701 
       0.147318         275.635         270.922         270.922 
       0.153489         249.774         246.086         246.086 
       0.159709         231.409         227.018         227.018 
       0.165845         219.796         213.675         213.675 
       0.171974         207.888         204.131         204.131 
       0.178125         200.114         196.195         196.195 
       0.184229         192.264         188.061         188.061 
        0.19034          180.23         178.591         178.591 
       0.196428         171.513         167.781         167.781 
       0.202534         161.969         156.302         156.302 
       0.208729         150.051         145.104         145.104 
       0.214876         139.591         135.366         135.366 
       0.220989         133.168         127.486         127.486 
       0.227147         125.613         121.298         121.298 
        0.23329         120.615         116.403         116.403 
       0.239377         116.776         112.173         112.173 
       0.245482         110.994         107.968         107.968 
       0.251667         107.707         103.391         103.391 
       0.257832         102.864         98.4519         98.4519 
       0.263955         97.7805         93.3661         93.3661 
       0.270079         93.0439         88.4161         88.4161 
        0.27624         89.4821         83.8618         83.8618 
       0.282372         85.5452         79.9218         79.9218 
        0.28843         81.7431         76.6182         76.6182 
       0.294538         78.5269          73.759          73.759 
       0.300721          76.596         71.1605         71.1605 
        0.30691         73.3119         68.6613         68.6613 
       0.313033         70.7999         66.1656         66.1656 
       0.319153         67.3078         63.6021         63.6021 
       0.325316         65.8675         60.9949         60.9949 
        0.33145          62.963         58.4549         58.4549 
       0.337538         60.9545         56.0776         56.0776 
       0.343633         58.5163            53.9            53.9 
       0.349808          56.633         51.9152         51.9152 
       0.355968         54.9724         50.1324         50.1324 
       0.362074         53.1536         48.5028         48.5028 
       0.368217         51.4501          46.947          46.947 
       0.374374         49.7923         45.4218         45.4218 
       0.380519         48.4291         43.9123         43.9123 
       0.386598         46.9471          42.436          42.436 
       0.392688         45.7629         40.9889         40.9889 
        0.39888         44.2211         39.5787         39.5787 
       0.405048         42.9859          38.256          38.256 
       0.411186         41.8045         37.0266         37.0266 
       0.417313         40.4066         35.8847         35.8847 
       0.423458         39.2877         34.8103         34.8103 
       0.429607         38.1622          33.786          33.786 
       0.435692         36.9613         32.8085         32.8085 
       0.441815         36.2184         31.8516         31.8516 
       0.447964         35.4743         30.9117         30.9117 
       0.454126          33.989          29.995          29.995 
       0.460267         33.3215         29.1141         29.1141 
       0.466387         32.2733         28.2734         28.2734 
        0.47254         31.6602         27.4675         27.4675 
       0.478662         31.0323         26.7057         26.7057 
       0.484765         30.0582         25.9836         25.9836 
       0.490885          29.342         25.2907         25.2907 
       0.497035         28.8723         24.6194         24.6194 
       0.503198         28.0554         23.9681         23.9681 
       0.509342         27.3141         23.3388         23.3388 
       0.515458         26.6456         22.7315         22.7315 
       0.521598          26.132         22.1407         22.1407 
       0.527764          25.513         21.5675         21.5675 
       0.533884         25.0398         21.0198         21.0198 
           0.54         24.4216         20.4943         20.4943 
       0.546137         23.9808          19.988          19.988 
       0.552299         23.5248         19.4983         19.4983 
       0.558452         22.7773         19.0262         19.0262 
       0.564573         22.4099         18.5714         18.5714 
       0.570708         21.9812         18.1296         18.1296 
       0.576825         21.4068          17.703          17.703 
       0.582926          20.965         17.2907         17.2907 
       0.589034         20.3709         16.8908         16.8908 
       0.595184         20.0779         16.5008         16.5008 
       0.601379         19.6351         16.1206         16.1206 
       0.607522         19.2638         15.7558         15.7558 
       0.613639         19.0197         15.4043         15.4043 
       0.619772         18.5007         15.0633         15.0633 
       0.625918         18.3491         14.7323         14.7323 
       0.632068         18.0301         14.4112         14.4112 
       0.638161         17.5824         14.1025         14.1025 
         0.6443         17.2119         13.8004         13.8004 
       0.650464         16.8589         13.5058         13.5058 
       0.656582         16.7241         13.2217         13.2217 
       0.662703         16.3797         12.9456         12.9456 
       0.668861         16.0429         12.6759         12.6759 
       0.675024         15.7195         12.4138         12.4138 
       0.681124          15.438         12.1619         12.1619 
       0.687237          15.148         11.9167         11.9167 
       0.693381         14.9632         11.6772         11.6772 
       0.699536         14.5624          11.444          11.444 
       0.705665         14.4452         11.2183         11.2183 
       0.711789         14.1219         10.9988         10.9988 
       0.717957         13.8917         10.7837         10.7837 
        0.72409         13.6608         10.5755         10.5755 
       0.730186         13.4611          10.374          10.374 
       0.736317          13.283         10.1767         10.1767 
       0.742472         13.0415         9.98375         9.98375 
       0.748622         12.8628         9.79601         9.79601 
        0.75476         12.5906         9.61352         9.61352 
       0.760888         12.3992         9.43598         9.43598 
       0.767043         12.2306         9.26224         9.26224 
       0.773185         11.9822         9.09326         9.09326 
       0.779291         11.8858         8.92948         8.92948 
       0.785407         11.7214         8.76952         8.76952 
       0.791564         11.4971         8.61249         8.61249 
       0.797719         11.2308          8.4594          8.4594 
       0.803834         11.1895         8.31101         8.31101 
       0.809972         11.0619         8.16567         8.16567 
       0.816124         10.7871         8.02349         8.02349 
       0.822261         10.6454         7.88509         7.88509 
       0.828378         10.5238         7.75038         7.75038 
       0.834502         10.4092         7.61871         7.61871 
       0.840667         10.2249         7.48926         7.48926 
       0.846816         10.0261          7.3632          7.3632 
       0.852925         9.92349         7.24084         7.24084 
       0.859047         9.79018         7.12101         7.12101 
       0.865192         9.68526         7.00351         7.00351 
       0.871341         9.57087         6.88859         6.88859 
       0.877463           9.397         6.77678         6.77678 
       0.883569         9.24916         6.66774         6.66774 
       0.889708          9.0845         6.56055         6.56055 
       0.895864         8.99767         6.45545         6.45545 
       0.902008          8.9159         6.35287         6.35287 
       0.908149         8.80534          6.2526          6.2526 
       0.914301         8.70129         6.15433         6.15433 
       0.920448         8.53614         6.05827         6.05827 
       0.926574         8.43876          5.9646          5.9646 
       0.932687         8.33165         5.87312         5.87312 
       0.938823         8.21339         5.78323         5.78323 
       0.944975         8.09986         5.69501         5.69501 
       0.951105         8.01349         5.60896         5.60896 
       0.957225         7.94647         5.52483         5.52483 
       0.963368         7.83972         5.44214         5.44214 
       0.969511          7.7515         5.36115         5.36115 
       0.975621         7.65884         5.28224         5.28224 
       0.981748         7.55178         5.20473         5.20473 
       0.987916         7.48103         5.12828         5.12828 
        0.99406         7.36276         5.05365         5.05365 
        1.00019         7.24068         4.98066         4.98066 
        1.00632         7.20816         4.90918         4.90918 
        1.01246         7.12014           4.839           4.839 
        1.01859         7.00139         4.77031         4.77031 
        1.02471         6.95066         4.70303         4.70303 
        1.03085         6.86798         4.63682         4.63682 
        1.03698         6.75277         4.57202         4.57202 
        1.04314         6.70509         4.50819         4.50819 
        1.04929          6.6121         4.44572         4.44572 
        1.05541         6.52237         4.38469         4.38469 
        1.06154         6.47071         4.32466         4.32466 
        1.06769         6.42838         4.26566         4.26566 
        1.07382         6.32801         4.20795         4.20795 
        1.07993         6.25498         4.15145         4.15145 
        1.08607         6.19866         4.09575         4.09575 
        1.09222         6.13239         4.04102         4.04102 
        1.09836         6.05107         3.98736         3.98736 
        1.10449         5.99564         3.93473         3.93473 
        1.11063         5.91928           3.883           3.883 
        1.11677         5.88004         3.83221         3.83221 
         1.1229         5.82651         3.78243         3.78243 
        1.12903         5.74563         3.73348         3.73348 
        1.13518         5.67131         3.68536         3.68536 
        1.14131         5.61721         3.63812         3.63812 
        1.14745         5.55446         3.59173         3.59173 
        1.15359         5.51412         3.54614         3.54614 
        1.15973          5.4489         3.50133         3.50133 
        1.16584         5.36729         3.45749         3.45749 
        1.17197         5.32599         3.41434         3.41434 
        1.17811         5.29328          3.3718          3.3718 
        1.18424         5.23272          3.3301          3.3301 
        1.19038         5.19981         3.28899         3.28899 
        1.19652          5.1327         3.24859         3.24859 
        1.20267         5.07389         3.20886         3.20886 
        1.20881         5.04889         3.16981         3.16981 
        1.21495         4.99681         3.13147         3.13147 
        1.22108         4.92948         3.09377         3.09377 
         1.2272         4.88938         3.05678         3.05678 
        1.23334         4.82918          3.0203          3.0203 
        1.23949         4.78126         2.98434         2.98434 
        1.24562         4.74959         2.94906         2.94906 
        1.25174         4.70515          2.9144          2.9144 
        1.25789         4.66224         2.88019         2.88019 
        1.26402         4.63245         2.84659         2.84659 
        1.27014          4.5816         2.81361         2.81361 
        1.27628          4.5247         2.78105         2.78105 
        1.28244          4.4719         2.74894         2.74894 
        1.28858         4.46412         2.71738         2.71738 
        1.29471         4.40489         2.68639         2.68639 
        1.30084         4.35537         2.65591         2.65591 
        1.30697          4.3465         2.62586         2.62586 
        1.31312         4.26643         2.59623         2.59623 
        1.31925         4.23332         2.56715         2.56715 
        1.32537         4.19719         2.53854         2.53854 
        1.33151         4.18179         2.51027         2.51027 
        1.33765          4.1253         2.48245         2.48245 
        1.34378         4.09211          2.4551          2.4551 
        1.34992         4.06263         2.42814         2.42814 
        1.35606         4.01711         2.40153         2.40153 
         1.3622         3.99256         2.37537         2.37537 
        1.36833         3.94772         2.34965         2.34965 
        1.37445         3.91783         2.32433         2.32433 
        1.38059          3.9005         2.29931         2.29931 
        1.38675         3.86069         2.27459         2.27459 
        1.39288         3.83512         2.25034         2.25034 
        1.39901         3.78295         2.22645         2.22645 
        1.40515         3.75967         2.20285         2.20285 
         1.4113         3.72657         2.17961         2.17961 
        1.41742         3.69697         2.15679         2.15679 
        1.42355         3.65849         2.13425         2.13425 
         1.4297         3.63419         2.11196         2.11196 
        1.43585         3.61394         2.09001         2.09001 
        1.44198         3.58879         2.06844         2.06844 
        1.44809         3.55014         2.04723         2.04723 
        1.45423          3.5175         2.02623         2.02623 
        1.46036         3.48507         2.00556         2.00556 
        1.46649         3.46254         1.98517         1.98517 
        1.47263         3.42788         1.96505         1.96505 
        1.47877         3.40054         1.94522         1.94522 
        1.48491         3.37848         1.92563         1.92563 
        1.49104         3.35174         1.90635         1.90635 
        1.49718         3.32397         1.88731         1.88731 
        1.50333         3.30232         1.86851         1.86851 
        1.50947         3.26815            1.85            1.85 
         1.5156         3.24837         1.83177         1.83177 
        1.52172         3.22616         1.81378         1.81378 
        1.52787         3.20205           1.796           1.796 
          1.534         3.17169         1.77848         1.77848 
        1.54013         3.15331         1.76121         1.76121 
        1.54627         3.12073         1.74413         1.74413 
        1.55241          3.0949         1.72728         1.72728 
        1.55855          3.0811         1.71068         1.71068 
        1.56467         3.05465         1.69434         1.69434 
         1.5708         3.03415         1.67817         1.67817 
        1.57695         3.00608         1.66218         1.66218 
        1.58308          2.9775         1.64644         1.64644 
        1.58922         2.96834         1.63089         1.63089 
        1.59535          2.9485         1.61554         1.61554 
         1.6015         2.91846         1.60038         1.60038 
        1.60764          2.8958         1.58541         1.58541 
        1.61376          2.8795         1.57068         1.57068 
        1.61989         2.85606         1.55612         1.55612 
        1.62604         2.83467         1.54171         1.54171 
        1.63218         2.82438         1.52749         1.52749 
        1.63831         2.79739         1.51349         1.51349 
        1.64444         2.77994         1.49965         1.49965 
        1.65059         2.74631         1.48596         1.48596 
        1.65673         2.74378         1.47245         1.47245 
        1.66285         2.71132         1.45914         1.45914 
        1.66898          2.6949           1.446           1.446 
        1.67512         2.67707         1.43299         1.43299 
        1.68127         2.65759         1.42013         1.42013 
         1.6874         2.64546         1.40745         1.40745 
        1.69353         2.61804         1.39494         1.39494 
        1.69967         2.60662         1.38255         1.38255 
        1.70581         2.58921         1.37031         1.37031 
        1.71193         2.56765         1.35827         1.35827 
        1.71806         2.55308         1.34635         1.34635 
        1.72421         2.53471         1.33455         1.33455 
        1.73035         2.52052          1.3229          1.3229 
        1.73649         2.50116         1.31139         1.31139 
        1.74262         2.48102         1.30003         1.30003 
        1.74876         2.46893          1.2888          1.2888 
        1.75489         2.45394         1.27772         1.27772 
        1.76101         2.43048         1.26677         1.26677 
        1.76715         2.42126         1.25594         1.25594 
        1.77329         2.40595         1.24522         1.24522 
        1.77943          2.3798         1.23462         1.23462 
        1.78557         2.37027         1.22416         1.22416 
        1.79171         2.35635         1.21382         1.21382 
        1.79785         2.33976         1.20359         1.20359 
        1.80399         2.32229         1.19349         1.19349 
        1.81012          2.3071         1.18351         1.18351 
        1.81625          2.2948         1.17365         1.17365 
        1.82239         2.28039         1.16389         1.16389 
        1.82853         2.26042         1.15424         1.15424 
        1.83466         2.25211         1.14472         1.14472 
        1.84078         2.24106         1.13531         1.13531 
        1.84692         2.22742         1.12599         1.12599 
        1.85306         2.20629         1.11676         1.11676 
         1.8592          2.1907         1.10765         1.10765 
        1.86533         2.17728         1.09865         1.09865 
        1.87147         2.16766         1.08973         1.08973 
