# k  (h/Mpc)    P(k)  (Mpc/h)^3    P_linear(k)  (Mpc/h)^3     P_NL(k)  ShotnoiseSubtracted = false
     0.00783031           17985         18254.9         18254.9 
       0.013688         21475.3         21248.3         21248.3 
       0.019231         20561.1         20489.2         20489.2 
      0.0249154         17722.4         18086.7         18086.7 
      0.0312784         14852.2         14982.1         14982.1 
      0.0375637           12428         12375.7         12375.7 
      0.0433917         10491.5         10629.1         10629.1 
      0.0492413          9432.2         9458.26         9458.26 
      0.0555754         8392.34         8619.17         8619.17 
      0.0619321          8010.3         7957.43         7957.43 
       0.067871         7163.61          7322.2          7322.2 
      0.0738098         6478.08         6603.03         6603.03 
      0.0800417         5649.18         5791.37         5791.37 
      0.0862327         4988.81         5018.96         5018.96 
      0.0921407         4483.26         4394.87         4394.87 
      0.0982031         3974.15         3910.68         3910.68 
       0.104506         3744.57         3568.91         3568.91 
       0.110769         3489.69         3348.01         3348.01 
       0.116806          3308.2         3189.31         3189.31 
       0.122832         3146.99         3032.32         3032.32 
       0.129052         2891.22         2839.02         2839.02 
       0.135211         2692.67         2611.83         2611.83 
       0.141259         2531.12         2372.77         2372.77 
       0.147318         2347.09         2144.92         2144.92 
       0.153489         2133.18         1948.29         1948.29 
       0.159709          2013.1         1797.32         1797.32 
       0.165845         1938.72         1691.69         1691.69 
       0.171974         1844.27         1616.12         1616.12 
       0.178125         1760.33         1553.29         1553.29 
       0.184229          1681.5          1488.9          1488.9 
        0.19034         1579.91         1413.92         1413.92 
       0.196428         1533.92         1328.33         1328.33 
       0.202534         1465.02         1237.46         1237.46 
       0.208729         1384.28          1148.8          1148.8 
       0.214876         1320.54          1071.7          1071.7 
       0.220989         1270.61         1009.32         1009.32 
       0.227147         1218.52          960.32          960.32 
        0.23329         1170.84         921.565         921.565 
       0.239377         1149.18         888.078         888.078 
       0.245482         1075.04         854.783         854.783 
       0.251667            1066         818.547         818.547 
       0.257832         1020.05         779.448         779.448 
       0.263955         983.268         739.183         739.183 
       0.270079         945.181         699.994         699.994 
        0.27624         931.762         663.936         663.936 
       0.282372         892.938         632.742         632.742 
        0.28843         881.363         606.588         606.588 
       0.294538         835.542         583.951         583.951 
       0.300721         830.239         563.379         563.379 
        0.30691         795.372         543.593         543.593 
       0.313033         778.604         523.834         523.834 
       0.319153         760.929         503.538         503.538 
       0.325316         736.617         482.899         482.899 
        0.33145         717.249         462.789         462.789 
       0.337538         703.143         443.967         443.967 
       0.343633         685.068         426.729         426.729 
       0.349808         659.688         411.014         411.014 
       0.355968         654.651         396.899         396.899 
       0.362074         646.614         383.998         383.998 
       0.368217         626.302         371.679         371.679 
       0.374374         599.559         359.606         359.606 
       0.380519         599.335         347.655         347.655 
       0.386598          581.34         335.965         335.965 
       0.392688         578.372          324.51          324.51 
        0.39888         560.927         313.344         313.344 
       0.405048         551.186         302.873         302.873 
       0.411186         543.082         293.139         293.139 
       0.417313         531.714         284.099         284.099 
       0.423458         520.294         275.593         275.593 
       0.429607         513.741         267.484         267.484 
       0.435692         500.692         259.745         259.745 
       0.441815          495.46         252.169         252.169 
       0.447964         484.698         244.728         244.728 
       0.454126         477.719         237.471         237.471 
       0.460267         466.495         230.496         230.496 
       0.466387         460.918         223.841         223.841 
        0.47254         454.598          217.46          217.46 
       0.478662         451.317         211.429         211.429 
       0.484765         435.513         205.712         205.712 
       0.490885         431.953         200.227         200.227 
       0.497035          423.19         194.912         194.912 
       0.503198         418.836         189.756         189.756 
       0.509342         415.568         184.774         184.774 
       0.515458         411.274         179.965         179.965 
       0.521598         399.804         175.288         175.288 
       0.527764          393.87          170.75          170.75 
       0.533884         390.887         166.413         166.413 
           0.54         385.748         162.254         162.254 
       0.546137         383.124         158.245         158.245 
       0.552299         376.167         154.368         154.368 
       0.558452         373.754         150.631         150.631 
       0.564573         368.881          147.03          147.03 
       0.570708         362.574         143.532         143.532 
       0.576825         354.152         140.155         140.155 
       0.582926         353.081         136.891         136.891 
       0.589034         349.371         133.724         133.724 
       0.595184         346.488         130.637         130.637 
       0.601379         340.231         127.627         127.627 
       0.607522         336.076         124.739         124.739 
       0.613639         334.058         121.956         121.956 
       0.619772         327.412         119.256         119.256 
       0.625918         325.948         116.635         116.635 
       0.632068         320.186         114.093         114.093 
       0.638161         318.683         111.649         111.649 
         0.6443         313.599         109.257         109.257 
       0.650464         310.765         106.925         106.925 
       0.656582         307.532         104.676         104.676 
       0.662703         307.017          102.49          102.49 
       0.668861         301.939         100.355         100.355 
       0.675024         298.485         98.2798         98.2798 
       0.681124         295.759         96.2857         96.2857 
       0.687237         292.954         94.3444         94.3444 
       0.693381         288.476         92.4486         92.4486 
       0.699536         285.212         90.6023         90.6023 
       0.705665         282.965         88.8148         88.8148 
       0.711789         281.693         87.0773         87.0773 
       0.717957         279.165         85.3742         85.3742 
        0.72409         276.926         83.7259         83.7259 
       0.730186         272.965         82.1308         82.1308 
       0.736317         270.491         80.5686         80.5686 
       0.742472         268.414         79.0413         79.0413 
       0.748622         266.011          77.555          77.555 
        0.75476         262.658         76.1102         76.1102 
       0.760888         259.927         74.7046         74.7046 
       0.767043         259.896         73.3291         73.3291 
       0.773185         257.056         71.9913         71.9913 
       0.779291         252.842         70.6946         70.6946 
       0.785407         252.155         69.4282         69.4282 
       0.791564         249.021          68.185          68.185 
       0.797719         246.612          66.973          66.973 
       0.803834         244.121         65.7982         65.7982 
       0.809972         243.583         64.6475         64.6475 
       0.816124         242.402         63.5219         63.5219 
       0.822261         239.867         62.4262         62.4262 
       0.828378         237.468         61.3597         61.3597 
       0.834502         235.555         60.3173         60.3173 
       0.840667         233.509         59.2925         59.2925 
       0.846816         231.913         58.2944         58.2944 
       0.852925         230.487         57.3256         57.3256 
       0.859047         228.554          56.377          56.377 
       0.865192         225.413         55.4467         55.4467 
       0.871341         223.708         54.5369         54.5369 
       0.877463         223.048         53.6517         53.6517 
       0.883569         221.628         52.7884         52.7884 
       0.889708         218.937         51.9398         51.9398 
       0.895864         217.598         51.1077         51.1077 
       0.902008         215.818         50.2956         50.2956 
       0.908149         214.302         49.5018         49.5018 
       0.914301         211.679         48.7238         48.7238 
       0.920448         210.621         47.9633         47.9633 
       0.926574         208.388         47.2217         47.2217 
       0.932687         208.354         46.4974         46.4974 
       0.938823         205.743         45.7857         45.7857 
       0.944975         205.089         45.0874         45.0874 
       0.951105          203.49         44.4061         44.4061 
       0.957225         202.107           43.74           43.74 
       0.963368         199.066         43.0854         43.0854 
       0.969511         198.397         42.4442         42.4442 
       0.975621         196.565         41.8195         41.8195 
       0.981748         196.078         41.2058         41.2058 
       0.987916         194.554         40.6005         40.6005 
        0.99406         192.451         40.0097         40.0097 
        1.00019         191.681         39.4319         39.4319 
        1.00632         190.275          38.866          38.866 
        1.01246         188.775         38.3103         38.3103 
        1.01859         188.774         37.7665         37.7665 
        1.02471         185.709         37.2338         37.2338 
        1.03085         184.545         36.7096         36.7096 
        1.03698         183.467         36.1966         36.1966 
        1.04314         181.809         35.6913         35.6913 
        1.04929          181.06         35.1967         35.1967 
        1.05541           180.6         34.7135         34.7135 
        1.06154         178.215         34.2382         34.2382 
        1.06769          177.86         33.7712         33.7712 
        1.07382         176.228         33.3143         33.3143 
        1.07993         174.829          32.867          32.867 
        1.08607         174.552          32.426          32.426 
        1.09222         173.039         31.9927         31.9927 
        1.09836         171.679         31.5679         31.5679 
        1.10449         169.891         31.1512         31.1512 
        1.11063         168.569         30.7416         30.7416 
        1.11677         167.976         30.3396         30.3396 
         1.1229         166.555         29.9454         29.9454 
        1.12903         165.904         29.5579         29.5579 
        1.13518         164.712          29.177          29.177 
        1.14131         163.125         28.8029         28.8029 
        1.14745         163.186         28.4357         28.4357 
        1.15359         161.593         28.0748         28.0748 
        1.15973         160.142           27.72           27.72 
        1.16584         159.268         27.3729         27.3729 
        1.17197         158.959         27.0313         27.0313 
        1.17811         156.977         26.6945         26.6945 
        1.18424         156.382         26.3644         26.3644 
        1.19038         155.889         26.0389         26.0389 
        1.19652          154.32          25.719          25.719 
        1.20267         153.981         25.4045         25.4045 
        1.20881          152.58         25.0954         25.0954 
        1.21495           151.6         24.7918         24.7918 
        1.22108         150.571         24.4933         24.4933 
         1.2272         149.467         24.2005         24.2005 
        1.23334         149.227         23.9117         23.9117 
        1.23949         147.625          23.627          23.627 
        1.24562         146.898         23.3476         23.3476 
        1.25174         146.093         23.0732         23.0732 
        1.25789         145.126         22.8024         22.8024 
        1.26402         143.526         22.5364         22.5364 
        1.27014         142.626         22.2753         22.2753 
        1.27628          142.13         22.0175         22.0175 
        1.28244         141.905         21.7633         21.7633 
        1.28858         140.432         21.5135         21.5135 
        1.29471         139.403         21.2681         21.2681 
        1.30084         138.854         21.0268         21.0268 
        1.30697         137.318         20.7889         20.7889 
        1.31312         136.654         20.5543         20.5543 
        1.31925         135.744         20.3241         20.3241 
        1.32537         135.535         20.0976         20.0976 
        1.33151         134.211         19.8738         19.8738 
        1.33765         133.209         19.6535         19.6535 
        1.34378         132.706          19.437          19.437 
        1.34992         132.083         19.2235         19.2235 
        1.35606         131.776         19.0129         19.0129 
         1.3622         130.261         18.8057         18.8057 
        1.36833          129.34         18.6022         18.6022 
        1.37445         128.827         18.4017         18.4017 
        1.38059         127.774         18.2036         18.2036 
        1.38675         127.269         18.0079         18.0079 
        1.39288         126.522         17.8159         17.8159 
        1.39901          126.09         17.6268         17.6268 
        1.40515         124.725           17.44           17.44 
         1.4113         124.291         17.2559         17.2559 
        1.41742          123.19         17.0752         17.0752 
        1.42355         122.732         16.8968         16.8968 
         1.4297         121.873         16.7204         16.7204 
        1.43585         121.096         16.5465         16.5465 
        1.44198         120.575         16.3758         16.3758 
        1.44809         119.961         16.2078         16.2078 
        1.45423         119.422         16.0416         16.0416 
        1.46036         118.282          15.878          15.878 
        1.46649         117.462         15.7166         15.7166 
        1.47263          116.79         15.5573         15.5573 
        1.47877         116.064         15.4003         15.4003 
        1.48491         115.042         15.2452         15.2452 
        1.49104         114.949         15.0925         15.0925 
        1.49718         113.968         14.9418         14.9418 
        1.50333         113.301          14.793          14.793 
        1.50947         112.665         14.6464         14.6464 
         1.5156         112.081         14.5021         14.5021 
        1.52172         111.324         14.3597         14.3597 
        1.52787         110.517         14.2189         14.2189 
          1.534         110.128         14.0802         14.0802 
        1.54013         109.512         13.9434         13.9434 
        1.54627         108.814         13.8083         13.8083 
        1.55241         108.043         13.6749         13.6749 
        1.55855         107.443         13.5434         13.5434 
        1.56467         106.737          13.414          13.414 
         1.5708         105.911          13.286          13.286 
        1.57695         105.713         13.1594         13.1594 
        1.58308         105.132         13.0348         13.0348 
        1.58922         104.642         12.9117         12.9117 
        1.59535         103.841         12.7902         12.7902 
         1.6015         103.472         12.6701         12.6701 
        1.60764         102.737         12.5517         12.5517 
        1.61376         102.113          12.435          12.435 
        1.61989          101.39         12.3197         12.3197 
        1.62604         100.704         12.2057         12.2057 
        1.63218         100.607         12.0931         12.0931 
        1.63831         99.7297         11.9822         11.9822 
        1.64444         99.1382         11.8727         11.8727 
        1.65059          98.565         11.7643         11.7643 
        1.65673         97.8821         11.6573         11.6573 
        1.66285          97.549          11.552          11.552 
        1.66898         96.9258         11.4479         11.4479 
        1.67512         96.2826         11.3449         11.3449 
        1.68127         95.7933         11.2431         11.2431 
         1.6874         95.1641         11.1428         11.1428 
        1.69353          94.784         11.0437         11.0437 
        1.69967         94.3033         10.9456         10.9456 
        1.70581         93.5185         10.8487         10.8487 
        1.71193         93.0072         10.7534         10.7534 
        1.71806         92.6693          10.659          10.659 
        1.72421         92.0928         10.5656         10.5656 
        1.73035         91.7576         10.4734         10.4734 
        1.73649          91.185         10.3823         10.3823 
        1.74262         90.5038         10.2923         10.2923 
        1.74876         90.1362         10.2034         10.2034 
        1.75489         89.4451         10.1157         10.1157 
        1.76101         88.8517          10.029          10.029 
        1.76715         88.4551         9.94324         9.94324 
        1.77329         88.1178         9.85837         9.85837 
        1.77943         87.3957         9.77445         9.77445 
        1.78557          87.128         9.69163         9.69163 
        1.79171         86.3076         9.60975         9.60975 
        1.79785         85.9118         9.52879         9.52879 
        1.80399         85.4085         9.44879         9.44879 
        1.81012         84.9593          9.3698          9.3698 
        1.81625         84.6003         9.29175         9.29175 
        1.82239          84.089         9.21447         9.21447 
        1.82853         83.4935         9.13811         9.13811 
        1.83466         83.0445         9.06268         9.06268 
        1.84078         82.6532         8.98818         8.98818 
        1.84692         82.0499          8.9144          8.9144 
        1.85306         81.7328         8.84135         8.84135 
         1.8592         81.2676         8.76923         8.76923 
        1.86533         80.7225         8.69795         8.69795 
        1.87147            80.2         8.62739         8.62739 
        1.87761         79.7103         8.55757         8.55757 
