# k  (h/Mpc)    P(k)  (Mpc/h)^3    P_linear(k)  (Mpc/h)^3     P_NL(k)  ShotnoiseSubtracted = false
     0.00783031         3676.36         3718.59         3718.59 
       0.013688         4340.49         4330.59         4330.59 
       0.019231         4184.43         4176.77         4176.77 
      0.0249154         3657.76         3687.45         3687.45 
      0.0312784         3052.18         3054.74         3054.74 
      0.0375637         2535.56         2523.44         2523.44 
      0.0433917         2162.19         2167.38         2167.38 
      0.0492413         1931.51         1928.66         1928.66 
      0.0555754         1743.46         1757.59         1757.59 
      0.0619321         1633.99         1622.67         1622.67 
       0.067871         1484.77         1493.15         1493.15 
      0.0738098         1338.82         1346.51         1346.51 
      0.0800417         1170.75            1181            1181 
      0.0862327         1022.14         1023.49         1023.49 
      0.0921407         902.159         896.228         896.228 
      0.0982031         799.156         797.492         797.492 
       0.104506         740.099         727.798         727.798 
       0.110769         691.909         682.754         682.754 
       0.116806         654.117         650.392         650.392 
       0.122832         625.128         618.377         618.377 
       0.129052         579.833          578.96          578.96 
       0.135211         534.979          532.63          532.63 
       0.141259         492.078         483.878         483.878 
       0.147318         449.022         437.413         437.413 
       0.153489         406.829         397.316         397.316 
       0.159709         377.992         366.529         366.529 
       0.165845         359.727         344.987         344.987 
       0.171974         340.069         329.577         329.577 
       0.178125         327.256         316.764         316.764 
       0.184229          314.46         303.632         303.632 
        0.19034         293.841         288.343         288.343 
       0.196428         281.008         270.888         270.888 
       0.202534         266.246         252.356         252.356 
       0.208729         247.094         234.276         234.276 
       0.214876         230.193         218.553         218.553 
       0.220989          220.13         205.831         205.831 
       0.227147         207.776          195.84          195.84 
        0.23329         199.584         187.936         187.936 
       0.239377           193.7         181.107         181.107 
       0.245482         183.084         174.317         174.317 
       0.251667         178.452         166.928         166.928 
       0.257832         170.863         158.954         158.954 
       0.263955         162.638         150.743         150.743 
       0.270079          154.99         142.751         142.751 
        0.27624         149.826         135.398         135.398 
       0.282372         143.423         129.036         129.036 
        0.28843          137.28         123.703         123.703 
       0.294538         131.675         119.086         119.086 
       0.300721         128.966         114.891         114.891 
        0.30691         123.226         110.856         110.856 
       0.313033         119.286         106.827         106.827 
       0.319153          113.51         102.688         102.688 
       0.325316         111.084         98.4787         98.4787 
        0.33145         106.305         94.3776         94.3776 
       0.337538         103.454         90.5392         90.5392 
       0.343633         99.4498         87.0238         87.0238 
       0.349808         96.2272          83.819          83.819 
       0.355968         93.7369         80.9405         80.9405 
       0.362074         90.7405         78.3096         78.3096 
       0.368217         87.8792         75.7975         75.7975 
       0.374374         85.1669         73.3352         73.3352 
       0.380519         82.9758         70.8981         70.8981 
       0.386598         80.4948         68.5143         68.5143 
       0.392688         78.6573         66.1781         66.1781 
        0.39888         76.2148          63.901          63.901 
       0.405048         74.1344         61.7657         61.7657 
       0.411186         72.2327         59.7805         59.7805 
       0.417313         70.0166         57.9371         57.9371 
       0.423458         68.1527         56.2024         56.2024 
       0.429607         66.3099         54.5488         54.5488 
       0.435692         64.1121         52.9704         52.9704 
       0.441815         63.1697         51.4255         51.4255 
       0.447964         61.9128          49.908          49.908 
       0.454126         59.1371         48.4281         48.4281 
       0.460267          58.205         47.0056         47.0056 
       0.466387         56.6747         45.6485         45.6485 
        0.47254         55.5769         44.3473         44.3473 
       0.478662         54.6277         43.1172         43.1172 
       0.484765         52.9541         41.9515         41.9515 
       0.490885         51.7909         40.8328         40.8328 
       0.497035         50.9968          39.749          39.749 
       0.503198         49.5267         38.6974         38.6974 
       0.509342         48.2665         37.6814         37.6814 
       0.515458         47.2649         36.7008         36.7008 
       0.521598         46.4594         35.7469         35.7469 
       0.527764         45.4968         34.8215         34.8215 
       0.533884         44.6867         33.9371         33.9371 
           0.54         43.6055         33.0888         33.0888 
       0.546137         42.9612         32.2713         32.2713 
       0.552299         42.2249         31.4807         31.4807 
       0.558452          40.959         30.7185         30.7185 
       0.564573          40.229         29.9841         29.9841 
       0.570708         39.5912          29.271          29.271 
       0.576825         38.7128         28.5821         28.5821 
       0.582926         37.8649         27.9165         27.9165 
       0.589034         36.9077         27.2708         27.2708 
       0.595184         36.4086         26.6411         26.6411 
       0.601379         35.7369         26.0273         26.0273 
       0.607522         34.9238         25.4383         25.4383 
       0.613639         34.6476         24.8708         24.8708 
       0.619772         33.7591         24.3202         24.3202 
       0.625918         33.4621         23.7857         23.7857 
       0.632068         32.9383         23.2673         23.2673 
       0.638161         32.2667         22.7689         22.7689 
         0.6443         31.6491         22.2812         22.2812 
       0.650464         31.0742         21.8055         21.8055 
       0.656582         30.7994         21.3469         21.3469 
       0.662703         30.1544         20.9011         20.9011 
       0.668861         29.6288         20.4657         20.4657 
       0.675024         29.1035         20.0425         20.0425 
       0.681124         28.5883         19.6358         19.6358 
       0.687237         28.0395         19.2399         19.2399 
       0.693381         27.7899         18.8533         18.8533 
       0.699536         27.1302         18.4768         18.4768 
       0.705665         27.0887         18.1123         18.1123 
       0.711789          26.365         17.7579         17.7579 
       0.717957         26.0191         17.4106         17.4106 
        0.72409         25.6467         17.0745         17.0745 
       0.730186         25.2261         16.7492         16.7492 
       0.736317         24.9743         16.4306         16.4306 
       0.742472         24.5114         16.1191         16.1191 
       0.748622         24.2568          15.816          15.816 
        0.75476         23.8396         15.5214         15.5214 
       0.760888         23.4423         15.2347         15.2347 
       0.767043         23.1407         14.9542         14.9542 
       0.773185         22.7487         14.6814         14.6814 
       0.779291         22.6089          14.417          14.417 
       0.785407          22.366         14.1587         14.1587 
       0.791564         21.9285         13.9052         13.9052 
       0.797719         21.4139          13.658          13.658 
       0.803834         21.3717         13.4184         13.4184 
       0.809972         21.1029         13.1838         13.1838 
       0.816124         20.6415         12.9542         12.9542 
       0.822261         20.4443         12.7308         12.7308 
       0.828378         20.2721         12.5133         12.5133 
       0.834502         20.0243         12.3007         12.3007 
       0.840667         19.7401         12.0917         12.0917 
       0.846816         19.3801         11.8881         11.8881 
       0.852925         19.1955         11.6906         11.6906 
       0.859047         18.9582         11.4971         11.4971 
       0.865192         18.7346         11.3074         11.3074 
       0.871341         18.5922         11.1219         11.1219 
       0.877463         18.2316         10.9413         10.9413 
       0.883569         18.0074         10.7653         10.7653 
       0.889708         17.7583         10.5922         10.5922 
       0.895864         17.5844         10.4225         10.4225 
       0.902008         17.4354         10.2569         10.2569 
       0.908149         17.2307          10.095          10.095 
       0.914301         17.1377         9.93638         9.93638 
       0.920448         16.7944         9.78129         9.78129 
       0.926574         16.6374         9.63006         9.63006 
       0.932687         16.4272         9.48235         9.48235 
       0.938823         16.2048         9.33722         9.33722 
       0.944975         16.0449          9.1948          9.1948 
       0.951105         15.8781         9.05586         9.05586 
       0.957225          15.689         8.92003         8.92003 
       0.963368         15.5821         8.78653         8.78653 
       0.969511         15.4119         8.65577         8.65577 
       0.975621         15.2786         8.52837         8.52837 
       0.981748         15.0345         8.40321         8.40321 
       0.987916         14.9204         8.27978         8.27978 
        0.99406         14.7456          8.1593          8.1593 
        1.00019          14.539         8.04146         8.04146 
        1.00632         14.4547         7.92605         7.92605 
        1.01246         14.3433         7.81274         7.81274 
        1.01859         14.0879         7.70183         7.70183 
        1.02471         14.0275         7.59321         7.59321 
        1.03085         13.8923          7.4863          7.4863 
        1.03698         13.6386         7.38169         7.38169 
        1.04314         13.5614         7.27862         7.27862 
        1.04929         13.3939         7.17777         7.17777 
        1.05541         13.2316         7.07923         7.07923 
        1.06154         13.1579         6.98231         6.98231 
        1.06769         13.0598         6.88705         6.88705 
        1.07382         12.9051         6.79389         6.79389 
        1.07993         12.8004         6.70266         6.70266 
        1.08607         12.6318         6.61274         6.61274 
        1.09222         12.5516         6.52437         6.52437 
        1.09836         12.3883         6.43773         6.43773 
        1.10449         12.3011         6.35276         6.35276 
        1.11063         12.1328         6.26924         6.26924 
        1.11677          12.085         6.18724         6.18724 
         1.1229         12.0063         6.10686         6.10686 
        1.12903         11.8384         6.02784         6.02784 
        1.13518         11.6971         5.95015         5.95015 
        1.14131         11.6504         5.87387         5.87387 
        1.14745         11.5349         5.79898         5.79898 
        1.15359         11.4593         5.72537         5.72537 
        1.15973         11.3227         5.65302         5.65302 
        1.16584         11.1653         5.58224         5.58224 
        1.17197         11.1453         5.51257         5.51257 
        1.17811         11.0154         5.44388         5.44388 
        1.18424          10.914         5.37656         5.37656 
        1.19038         10.8579         5.31019         5.31019 
        1.19652         10.7552         5.24496         5.24496 
        1.20267         10.6514         5.18082         5.18082 
        1.20881         10.5812         5.11777         5.11777 
        1.21495         10.4987         5.05587         5.05587 
        1.22108          10.381           4.995           4.995 
         1.2272         10.2803         4.93528         4.93528 
        1.23334         10.2134         4.87639         4.87639 
        1.23949         10.1032         4.81832         4.81832 
        1.24562         10.0537         4.76135         4.76135 
        1.25174          9.9861         4.70539         4.70539 
        1.25789         9.88536         4.65016         4.65016 
        1.26402         9.85072         4.59591         4.59591 
        1.27014         9.73168         4.54266         4.54266 
        1.27628         9.62254          4.4901          4.4901 
        1.28244         9.56025         4.43826         4.43826 
        1.28858         9.53724         4.38731         4.38731 
        1.29471         9.43239         4.33728         4.33728 
        1.30084         9.33702         4.28807         4.28807 
        1.30697         9.28036         4.23955         4.23955 
        1.31312         9.16963         4.19171         4.19171 
        1.31925         9.10014         4.14475         4.14475 
        1.32537         9.06233         4.09857         4.09857 
        1.33151          8.9896         4.05292         4.05292 
        1.33765         8.92306           4.008           4.008 
        1.34378         8.85433         3.96384         3.96384 
        1.34992         8.75847         3.92032         3.92032 
        1.35606         8.73407         3.87735         3.87735 
         1.3622         8.67159         3.83511         3.83511 
        1.36833         8.56823          3.7936          3.7936 
        1.37445         8.53683         3.75272         3.75272 
        1.38059          8.4655         3.71232         3.71232 
        1.38675         8.37342         3.67241         3.67241 
        1.39288         8.34947         3.63325         3.63325 
        1.39901         8.26988         3.59468         3.59468 
        1.40515          8.2275         3.55658         3.55658 
         1.4113          8.1534         3.51905         3.51905 
        1.41742         8.08902         3.48221         3.48221 
        1.42355         8.03389         3.44582         3.44582 
         1.4297         8.00064         3.40984         3.40984 
        1.43585         7.95116         3.37439         3.37439 
        1.44198         7.88555         3.33957         3.33957 
        1.44809         7.82629         3.30532         3.30532 
        1.45423         7.76477         3.27141         3.27141 
        1.46036         7.71282         3.23805         3.23805 
        1.46649         7.67808         3.20513         3.20513 
        1.47263         7.59881         3.17265         3.17265 
        1.47877         7.55343         3.14062         3.14062 
        1.48491         7.51692         3.10899         3.10899 
        1.49104          7.4676         3.07786         3.07786 
        1.49718         7.41183         3.04713         3.04713 
        1.50333         7.36172         3.01677         3.01677 
        1.50947         7.30622         2.98689         2.98689 
         1.5156         7.26011         2.95745         2.95745 
        1.52172         7.22505         2.92841         2.92841 
        1.52787         7.16946          2.8997          2.8997 
          1.534         7.11581         2.87141         2.87141 
        1.54013         7.06296         2.84353         2.84353 
        1.54627         7.01237         2.81596         2.81596 
        1.55241         6.97599         2.78876         2.78876 
        1.55855          6.9364         2.76195         2.76195 
        1.56467         6.88374         2.73557         2.73557 
         1.5708         6.87117         2.70946         2.70946 
        1.57695         6.80286         2.68364         2.68364 
        1.58308         6.75723         2.65823         2.65823 
        1.58922         6.72734         2.63312         2.63312 
        1.59535         6.68851         2.60835         2.60835 
         1.6015          6.6299         2.58386         2.58386 
        1.60764         6.58626          2.5597          2.5597 
        1.61376         6.56285         2.53591         2.53591 
        1.61989         6.50652          2.5124          2.5124 
        1.62604         6.48625         2.48914         2.48914 
        1.63218         6.44349         2.46619         2.46619 
        1.63831         6.40354         2.44358         2.44358 
        1.64444         6.35181         2.42124         2.42124 
        1.65059         6.30726         2.39913         2.39913 
        1.65673         6.29848         2.37732         2.37732 
        1.66285         6.22809         2.35583         2.35583 
        1.66898         6.20488         2.33461         2.33461 
        1.67512         6.17735         2.31361         2.31361 
        1.68127         6.13617         2.29284         2.29284 
         1.6874         6.09913         2.27238         2.27238 
        1.69353         6.04783         2.25218         2.25218 
        1.69967         6.02867         2.23217         2.23217 
        1.70581         6.00083         2.21242         2.21242 
        1.71193         5.94566         2.19298         2.19298 
        1.71806         5.92314         2.17373         2.17373 
        1.72421         5.88592         2.15467         2.15467 
        1.73035         5.85859         2.13587         2.13587 
        1.73649         5.82692         2.11729         2.11729 
        1.74262         5.78987         2.09895         2.09895 
        1.74876         5.76533         2.08081         2.08081 
        1.75489         5.72968         2.06292         2.06292 
        1.76101         5.68329         2.04525         2.04525 
        1.76715         5.67039         2.02776         2.02776 
        1.77329         5.61867         2.01045         2.01045 
        1.77943          5.5917         1.99334         1.99334 
        1.78557         5.57473         1.97645         1.97645 
        1.79171          5.5476         1.95975         1.95975 
        1.79785          5.4985         1.94324         1.94324 
        1.80399         5.47463         1.92692         1.92692 
        1.81012         5.45286         1.91082         1.91082 
        1.81625         5.41382          1.8949          1.8949 
        1.82239          5.3867         1.87914         1.87914 
        1.82853         5.34977         1.86356         1.86356 
        1.83466         5.32216         1.84818         1.84818 
        1.84078         5.29727         1.83299         1.83299 
        1.84692         5.27876         1.81794         1.81794 
        1.85306         5.23916         1.80305         1.80305 
         1.8592         5.21326         1.78834         1.78834 
        1.86533         5.18788          1.7738          1.7738 
        1.87147         5.16145         1.75941         1.75941 
        1.87761         5.13923         1.74517         1.74517 
