# k  (h/Mpc)    P(k)  (Mpc/h)^3    P_linear(k)  (Mpc/h)^3     P_NL(k)  ShotnoiseSubtracted = false
     0.00783031         14869.3         15083.1         15083.1 
       0.013688         17722.6         17557.6         17557.6 
       0.019231         16988.7         16930.9         16930.9 
      0.0249154         14678.7         14945.8         14945.8 
      0.0312784         12294.2         12380.5         12380.5 
      0.0375637         10274.2         10226.8         10226.8 
      0.0433917         8688.41         8783.54         8783.54 
      0.0492413         7802.76         7815.99         7815.99 
      0.0555754         6960.67         7122.61         7122.61 
      0.0619321         6625.32         6575.78         6575.78 
       0.067871         5940.61         6050.86         6050.86 
      0.0738098         5368.66         5456.56         5456.56 
      0.0800417         4683.23         4785.84         4785.84 
      0.0862327         4127.32         4147.54         4147.54 
      0.0921407         3696.64         3631.81         3631.81 
      0.0982031         3274.56         3231.69         3231.69 
       0.104506         3078.04         2949.26         2949.26 
       0.110769         2869.75         2766.72         2766.72 
       0.116806          2717.2         2635.57         2635.57 
       0.122832         2588.48         2505.84         2505.84 
       0.129052         2380.91          2346.1          2346.1 
       0.135211         2214.47         2158.36         2158.36 
       0.141259         2073.74          1960.8          1960.8 
       0.147318         1916.84         1772.51         1772.51 
       0.153489         1740.38         1610.02         1610.02 
       0.159709         1639.43         1485.27         1485.27 
       0.165845         1574.98         1397.97         1397.97 
       0.171974         1496.16         1335.53         1335.53 
       0.178125          1430.2         1283.61         1283.61 
       0.184229          1368.9         1230.39         1230.39 
        0.19034         1280.39         1168.43         1168.43 
       0.196428         1242.77          1097.7          1097.7 
       0.202534         1187.06         1022.61         1022.61 
       0.208729         1117.86         949.342         949.342 
       0.214876         1060.51         885.628         885.628 
       0.220989         1020.14         834.077         834.077 
       0.227147         975.438         793.587         793.587 
        0.23329          937.28         761.562         761.562 
       0.239377           918.3         733.889         733.889 
       0.245482         857.646         706.374         706.374 
       0.251667         849.182          676.43          676.43 
       0.257832         813.248         644.119         644.119 
       0.263955         783.135         610.845         610.845 
       0.270079         751.325          578.46          578.46 
        0.27624         739.951         548.662         548.662 
       0.282372         709.109         522.885         522.885 
        0.28843         695.461         501.272         501.272 
       0.294538         659.505         482.565         482.565 
       0.300721         655.401         465.565         465.565 
        0.30691         626.053         449.213         449.213 
       0.313033         612.828         432.885         432.885 
       0.319153         596.014         416.113         416.113 
       0.325316         577.505         399.058         399.058 
        0.33145         560.546         382.439         382.439 
       0.337538         550.424         366.885         366.885 
       0.343633         533.964          352.64          352.64 
       0.349808         514.371         339.653         339.653 
       0.355968         509.956         327.989         327.989 
       0.362074         501.965         317.328         317.328 
       0.368217         486.995         307.148         307.148 
       0.374374         465.362          297.17          297.17 
       0.380519         463.659         287.295         287.295 
       0.386598         450.567         277.635         277.635 
       0.392688          447.41         268.168         268.168 
        0.39888          434.21         258.941         258.941 
       0.405048         424.872         250.288         250.288 
       0.411186         417.888         242.244         242.244 
       0.417313         409.367         234.774         234.774 
       0.423458         400.625         227.744         227.744 
       0.429607         394.296         221.043         221.043 
       0.435692         384.057         214.648         214.648 
       0.441815         380.169         208.387         208.387 
       0.447964         371.546         202.238         202.238 
       0.454126         363.271         196.241         196.241 
       0.460267         356.196         190.477         190.477 
       0.466387         351.953         184.978         184.978 
        0.47254         344.985         179.705         179.705 
       0.478662         343.692          174.72          174.72 
       0.484765          331.33         169.996         169.996 
       0.490885         328.014         165.463         165.463 
       0.497035         321.724         161.072         161.072 
       0.503198         316.882          156.81          156.81 
       0.509342         314.356         152.693         152.693 
       0.515458         310.424          148.72          148.72 
       0.521598         302.462         144.854         144.854 
       0.527764         297.898         141.104         141.104 
       0.533884         295.161          137.52          137.52 
           0.54         290.866         134.083         134.083 
       0.546137         289.105          130.77          130.77 
       0.552299         283.023         127.567         127.567 
       0.558452         281.375         124.478         124.478 
       0.564573         277.293         121.502         121.502 
       0.570708         271.655         118.612         118.612 
       0.576825          266.46         115.821         115.821 
       0.582926         264.302         113.124         113.124 
       0.589034         261.589         110.507         110.507 
       0.595184         259.013         107.956         107.956 
       0.601379          255.02         105.468         105.468 
       0.607522         251.315         103.081         103.081 
       0.613639         249.357         100.782         100.782 
       0.619772         244.064         98.5506         98.5506 
       0.625918         242.976         96.3849         96.3849 
       0.632068         238.705         94.2843         94.2843 
       0.638161         237.542         92.2646         92.2646 
         0.6443         233.605         90.2881         90.2881 
       0.650464         231.116         88.3606         88.3606 
       0.656582         228.835          86.502          86.502 
       0.662703           228.1         84.6959         84.6959 
       0.668861         224.026         82.9313         82.9313 
       0.675024         220.967         81.2164         81.2164 
       0.681124         219.427         79.5685         79.5685 
       0.687237         216.964         77.9643         77.9643 
       0.693381         213.474         76.3976         76.3976 
       0.699536         211.616         74.8719         74.8719 
       0.705665         209.579         73.3947         73.3947 
       0.711789         207.826         71.9589         71.9589 
       0.717957         206.549         70.5515         70.5515 
        0.72409         204.189         69.1893         69.1893 
       0.730186         201.503         67.8712         67.8712 
       0.736317           199.3         66.5802         66.5802 
       0.742472         197.909         65.3181         65.3181 
       0.748622         196.138         64.0898         64.0898 
        0.75476         194.077         62.8959         62.8959 
       0.760888         191.838         61.7343         61.7343 
       0.767043         191.618         60.5976         60.5976 
       0.773185         189.477         59.4921         59.4921 
       0.779291         185.846         58.4206         58.4206 
       0.785407          185.34          57.374          57.374 
       0.791564         183.345         56.3467         56.3467 
       0.797719         180.812         55.3451         55.3451 
       0.803834         179.651         54.3743         54.3743 
       0.809972         178.756         53.4234         53.4234 
       0.816124         177.907         52.4932         52.4932 
       0.822261         175.991         51.5877         51.5877 
       0.828378         174.136         50.7064         50.7064 
       0.834502         173.498          49.845          49.845 
       0.840667         171.067         48.9981         48.9981 
       0.846816         169.554         48.1733         48.1733 
       0.852925         168.822         47.3727         47.3727 
       0.859047         167.248         46.5888         46.5888 
       0.865192         165.062           45.82           45.82 
       0.871341         163.795         45.0682         45.0682 
       0.877463         162.554         44.3367         44.3367 
       0.883569         162.153         43.6233         43.6233 
       0.889708         160.186          42.922          42.922 
       0.895864         158.438         42.2343         42.2343 
       0.902008         157.533         41.5633         41.5633 
       0.908149         156.934         40.9072         40.9072 
       0.914301         154.677         40.2643         40.2643 
       0.920448         153.771         39.6358         39.6358 
       0.926574          152.58          39.023          39.023 
       0.932687          152.45         38.4245         38.4245 
       0.938823         150.328         37.8364         37.8364 
       0.944975         149.322         37.2593         37.2593 
       0.951105         148.403         36.6962         36.6962 
       0.957225         147.128         36.1458         36.1458 
       0.963368         145.003         35.6049         35.6049 
       0.969511         144.648          35.075          35.075 
       0.975621         143.326         34.5587         34.5587 
       0.981748         143.194         34.0516         34.0516 
       0.987916         141.621         33.5514         33.5514 
        0.99406          140.31         33.0632         33.0632 
        1.00019         140.097         32.5857         32.5857 
        1.00632         138.577          32.118          32.118 
        1.01246         137.745         31.6589         31.6589 
        1.01859         137.196         31.2094         31.2094 
        1.02471         135.357         30.7693         30.7693 
        1.03085         134.259         30.3361         30.3361 
        1.03698         133.623         29.9121         29.9121 
        1.04314         132.217         29.4945         29.4945 
        1.04929         131.756         29.0858         29.0858 
        1.05541         131.072         28.6865         28.6865 
        1.06154         129.967         28.2938         28.2938 
        1.06769         129.714         27.9078         27.9078 
        1.07382          128.34         27.5303         27.5303 
        1.07993         127.286         27.1606         27.1606 
        1.08607         126.663         26.7962         26.7962 
        1.09222         126.145         26.4381         26.4381 
        1.09836         125.037          26.087          26.087 
        1.10449         123.634         25.7427         25.7427 
        1.11063         122.747         25.4043         25.4043 
        1.11677         122.272          25.072          25.072 
         1.1229         121.362         24.7463         24.7463 
        1.12903         120.774         24.4261         24.4261 
        1.13518         120.119         24.1113         24.1113 
        1.14131         118.874         23.8022         23.8022 
        1.14745         118.606         23.4987         23.4987 
        1.15359         117.647         23.2004         23.2004 
        1.15973         116.956         22.9072         22.9072 
        1.16584         115.826         22.6204         22.6204 
        1.17197         115.302         22.3381         22.3381 
        1.17811         114.552         22.0598         22.0598 
        1.18424         114.082          21.787          21.787 
        1.19038         113.685          21.518          21.518 
        1.19652         112.642         21.2537         21.2537 
        1.20267         111.962         20.9938         20.9938 
        1.20881         111.113         20.7383         20.7383 
        1.21495         110.421         20.4874         20.4874 
        1.22108         109.796         20.2408         20.2408 
         1.2272         108.823         19.9988         19.9988 
        1.23334         108.393         19.7601         19.7601 
        1.23949         107.703         19.5248         19.5248 
        1.24562         106.983          19.294          19.294 
        1.25174         106.297         19.0672         19.0672 
        1.25789         105.705         18.8434         18.8434 
        1.26402         104.579         18.6236         18.6236 
        1.27014           104.1         18.4078         18.4078 
        1.27628         103.712         18.1948         18.1948 
        1.28244         103.281         17.9848         17.9848 
        1.28858         102.686         17.7783         17.7783 
        1.29471         101.618         17.5755         17.5755 
        1.30084         101.447         17.3761         17.3761 
        1.30697         100.352         17.1795         17.1795 
        1.31312         99.9532         16.9857         16.9857 
        1.31925         99.2026         16.7954         16.7954 
        1.32537         98.7743         16.6083         16.6083 
        1.33151          97.898         16.4233         16.4233 
        1.33765          97.455         16.2412         16.2412 
        1.34378         96.9763         16.0623         16.0623 
        1.34992         96.6523         15.8859         15.8859 
        1.35606         96.0589         15.7118         15.7118 
         1.3622         95.0881         15.5407         15.5407 
        1.36833         94.6194         15.3724         15.3724 
        1.37445         94.1547         15.2068         15.2068 
        1.38059         93.4615         15.0431         15.0431 
        1.38675         92.9003         14.8814         14.8814 
        1.39288         92.6949         14.7227         14.7227 
        1.39901          92.083         14.5664         14.5664 
        1.40515          91.267          14.412          14.412 
         1.4113         90.8845         14.2599         14.2599 
        1.41742         90.3483         14.1106         14.1106 
        1.42355         89.7852         13.9632         13.9632 
         1.4297         89.3735         13.8174         13.8174 
        1.43585         88.6102         13.6737         13.6737 
        1.44198          88.243         13.5326         13.5326 
        1.44809          87.787         13.3938         13.3938 
        1.45423         87.3593         13.2564         13.2564 
        1.46036         86.8636         13.1212         13.1212 
        1.46649         86.1563         12.9879         12.9879 
        1.47263         85.5685         12.8562         12.8562 
        1.47877         85.3639         12.7265         12.7265 
        1.48491         84.5649         12.5983         12.5983 
        1.49104         84.4228         12.4721         12.4721 
        1.49718         83.8278         12.3476         12.3476 
        1.50333         83.3865         12.2246         12.2246 
        1.50947         82.8715         12.1035         12.1035 
         1.5156         82.3927         11.9842         11.9842 
        1.52172          81.851         11.8665         11.8665 
        1.52787         81.4383         11.7502         11.7502 
          1.534         80.9095         11.6356         11.6356 
        1.54013         80.5172         11.5226         11.5226 
        1.54627         80.1574         11.4109         11.4109 
        1.55241         79.5587         11.3006         11.3006 
        1.55855         79.1491          11.192          11.192 
        1.56467         78.8953         11.0851         11.0851 
         1.5708          78.216         10.9793         10.9793 
        1.57695         78.1644         10.8747         10.8747 
        1.58308         77.5121         10.7717         10.7717 
        1.58922         77.1958           10.67           10.67 
        1.59535         76.7517         10.5696         10.5696 
         1.6015         76.2145         10.4703         10.4703 
        1.60764         75.8134         10.3724         10.3724 
        1.61376         75.5829          10.276          10.276 
        1.61989          75.001         10.1808         10.1808 
        1.62604          74.706         10.0865         10.0865 
        1.63218          74.416         9.99351         9.99351 
        1.63831         73.5542         9.90188         9.90188 
        1.64444         73.3346         9.81136         9.81136 
        1.65059         72.9713         9.72176         9.72176 
        1.65673         72.3578         9.63337         9.63337 
        1.66285         72.1373         9.54633         9.54633 
        1.66898         71.8893         9.46033         9.46033 
        1.67512         71.2419         9.37522         9.37522 
        1.68127          71.001         9.29108         9.29108 
         1.6874         70.4673         9.20815         9.20815 
        1.69353         70.0808         9.12629         9.12629 
        1.69967         69.8262         9.04522         9.04522 
        1.70581         69.4524         8.96518         8.96518 
        1.71193         69.0947          8.8864          8.8864 
        1.71806         68.7143          8.8084          8.8084 
        1.72421         68.1952         8.73118         8.73118 
        1.73035         67.9469         8.65498         8.65498 
        1.73649         67.6585         8.57969         8.57969 
        1.74262         67.1222         8.50536         8.50536 
        1.74876         66.8989         8.43186         8.43186 
        1.75489         66.4102         8.35938         8.35938 
        1.76101         66.1501         8.28777         8.28777 
        1.76715         65.6494         8.21689         8.21689 
        1.77329          65.405         8.14676         8.14676 
        1.77943          64.934         8.07741         8.07741 
        1.78557           64.81         8.00896         8.00896 
        1.79171         64.2037          7.9413          7.9413 
        1.79785         63.8754          7.8744          7.8744 
        1.80399         63.6699         7.80828         7.80828 
        1.81012         63.3893         7.74301         7.74301 
        1.81625         62.9704         7.67851         7.67851 
        1.82239         62.6651         7.61465         7.61465 
        1.82853         62.3698         7.55155         7.55155 
        1.83466         62.0377         7.48921         7.48921 
        1.84078         61.6222         7.42765         7.42765 
        1.84692         61.3409         7.36667         7.36667 
        1.85306         60.9818         7.30631         7.30631 
         1.8592         60.7487         7.24671         7.24671 
        1.86533         60.3254         7.18781         7.18781 
        1.87147         59.8731          7.1295          7.1295 
        1.87761         59.6906          7.0718          7.0718 
