# k  (h/Mpc)    Pcb(k)  (Mpc/h)^3    Pcb_linear(k) (Mpc/h)^3    Pcb_NL(k) (Mpc/h)^3   ShotnoiseSubtracted = false
     0.00783031         16916.2           17166           17166 
       0.013688         20185.1         19981.4         19981.4 
       0.019231         19334.8         19267.7         19267.7 
      0.0249154         16680.9         17008.5         17008.5 
      0.0312784         13976.3         14089.1         14089.1 
      0.0375637         11689.2         11638.1         11638.1 
      0.0433917         9874.43         9995.64         9995.64 
      0.0492413         8873.78         8894.55         8894.55 
      0.0555754          7903.4         8105.47         8105.47 
      0.0619321          7535.7         7483.18         7483.18 
       0.067871         6745.91         6885.82         6885.82 
      0.0738098         6098.81         6209.51         6209.51 
      0.0800417         5319.05         5446.22         5446.22 
      0.0862327         4693.58         4719.85         4719.85 
      0.0921407          4212.5         4132.95         4132.95 
      0.0982031         3733.03         3677.62         3677.62 
       0.104506         3514.28         3356.21         3356.21 
       0.110769         3275.57         3148.49         3148.49 
       0.116806         3103.69         2999.24         2999.24 
       0.122832          2954.1         2851.61         2851.61 
       0.129052         2715.16         2669.83         2669.83 
       0.135211         2527.49         2456.18         2456.18 
       0.141259         2372.41         2231.36         2231.36 
       0.147318         2197.19         2017.09         2017.09 
       0.153489         1996.12         1832.18         1832.18 
       0.159709         1882.55         1690.21         1690.21 
       0.165845         1811.24         1590.87         1590.87 
       0.171974          1722.1         1519.81         1519.81 
       0.178125          1644.6         1460.72         1460.72 
       0.184229         1572.26         1400.17         1400.17 
        0.19034         1474.45         1329.66         1329.66 
       0.196428         1431.54         1249.17         1249.17 
       0.202534         1367.37         1163.71         1163.71 
       0.208729         1290.33         1080.33         1080.33 
       0.214876         1228.27         1007.83         1007.83 
       0.220989         1181.76         949.166         949.166 
       0.227147         1132.04         903.091         903.091 
        0.23329         1087.75         866.645         866.645 
       0.239377         1066.88         835.154         835.154 
       0.245482         997.316         803.844         803.844 
       0.251667         988.439         769.768         769.768 
       0.257832         946.062         732.997         732.997 
       0.263955         911.696         695.132         695.132 
       0.270079          875.69         658.278         658.278 
        0.27624         863.061          624.37          624.37 
       0.282372         827.042         595.035         595.035 
        0.28843         814.392         570.439         570.439 
       0.294538         772.015         549.152         549.152 
       0.300721         767.259         529.805         529.805 
        0.30691         734.132         511.198         511.198 
       0.313033         718.702         492.617         492.617 
       0.319153         701.114         473.531         473.531 
       0.325316         678.925          454.12          454.12 
        0.33145         660.294         435.209         435.209 
       0.337538         647.773         417.509         417.509 
       0.343633         630.017         401.297         401.297 
       0.349808         606.676          386.52          386.52 
       0.355968         601.949         373.246         373.246 
       0.362074         593.823         361.113         361.113 
       0.368217         575.561          349.53          349.53 
       0.374374           550.4         338.174         338.174 
       0.380519         549.609         326.936         326.936 
       0.386598         533.489         315.944         315.944 
       0.392688         530.473          305.17          305.17 
        0.39888         514.565         294.671         294.671 
       0.405048         504.767         284.823         284.823 
       0.411186         497.089          275.67          275.67 
       0.417313         486.756         267.168         267.168 
       0.423458          476.35          259.17          259.17 
       0.429607         469.779         251.544         251.544 
       0.435692         457.742         244.266         244.266 
       0.441815         453.035         237.141         237.141 
       0.447964         442.958         230.144         230.144 
       0.454126         435.357         223.319         223.319 
       0.460267         425.792          216.76          216.76 
       0.466387         420.716         210.501         210.501 
        0.47254         413.865         204.501         204.501 
       0.478662         411.559         198.829         198.829 
       0.484765         396.895         193.453         193.453 
       0.490885         393.413         188.295         188.295 
       0.497035         385.558         183.297         183.297 
       0.503198         380.969         178.447         178.447 
       0.509342         378.025         173.762         173.762 
       0.515458         373.805         169.241         169.241 
       0.521598         363.624         164.842         164.842 
       0.527764         358.153         160.574         160.574 
       0.533884         355.299         156.496         156.496 
           0.54         350.394         152.584         152.584 
       0.546137         348.213         148.814         148.814 
       0.552299         341.417         145.169         145.169 
       0.558452          339.42         141.654         141.654 
       0.564573         334.781         138.267         138.267 
       0.570708         328.615         134.979         134.979 
       0.576825         321.432         131.802         131.802 
       0.582926         319.874         128.733         128.733 
       0.589034         316.567         125.755         125.755 
       0.595184         313.798         122.852         122.852 
       0.601379         308.391         120.021         120.021 
       0.607522         304.425         117.305         117.305 
       0.613639         302.391         114.688         114.688 
       0.619772         296.137         112.149         112.149 
       0.625918         294.938         109.684         109.684 
       0.632068          289.66         107.294         107.294 
       0.638161         288.328         104.996         104.996 
         0.6443         283.609         102.746         102.746 
       0.650464         280.834         100.553         100.553 
       0.656582         278.029         98.4378         98.4378 
       0.662703         277.469         96.3825         96.3825 
       0.668861         272.727         94.3744         94.3744 
       0.675024         269.351         92.4229         92.4229 
       0.681124         267.085         90.5476         90.5476 
       0.687237         264.414          88.722          88.722 
       0.693381         260.301         86.9392         86.9392 
       0.699536         257.626         85.2029         85.2029 
       0.705665         255.305          83.522          83.522 
       0.711789         253.915          81.888          81.888 
       0.717957         251.866         80.2864         80.2864 
        0.72409          249.51         78.7363         78.7363 
       0.730186         246.106         77.2363         77.2363 
       0.736317         243.662         75.7672         75.7672 
       0.742472         241.847         74.3309         74.3309 
       0.748622         239.711         72.9331         72.9331 
        0.75476         236.893         71.5745         71.5745 
       0.760888         234.347         70.2526         70.2526 
       0.767043         234.264         68.9591         68.9591 
       0.773185         231.637          67.701          67.701 
       0.779291         227.569         66.4816         66.4816 
       0.785407         226.978         65.2907         65.2907 
       0.791564         224.256         64.1216         64.1216 
       0.797719         221.746         62.9818         62.9818 
       0.803834         219.859          61.877          61.877 
       0.809972         219.168         60.7949         60.7949 
       0.816124          218.11         59.7364         59.7364 
       0.822261         215.846          58.706          58.706 
       0.828378         213.573          57.703          57.703 
       0.834502         212.251         56.7227         56.7227 
       0.840667             210          55.759          55.759 
       0.846816         208.387         54.8204         54.8204 
       0.852925         207.249         53.9094         53.9094 
       0.859047         205.495         53.0172         53.0172 
       0.865192         202.645         52.1424         52.1424 
       0.871341         201.137         51.2868         51.2868 
       0.877463         200.156         50.4544         50.4544 
       0.883569         199.252         49.6425         49.6425 
       0.889708          196.75         48.8445         48.8445 
       0.895864         195.146          48.062          48.062 
       0.902008         193.777         47.2983         47.2983 
       0.908149         192.755         46.5517         46.5517 
       0.914301         190.085         45.8201         45.8201 
       0.920448         189.159         45.1049         45.1049 
       0.926574         187.381         44.4075         44.4075 
       0.932687         187.336         43.7264         43.7264 
       0.938823         184.882         43.0572         43.0572 
       0.944975         184.054         42.4004         42.4004 
       0.951105         182.761         41.7597         41.7597 
       0.957225         181.405         41.1334         41.1334 
       0.963368         178.693         40.5177         40.5177 
       0.969511         178.101         39.9147         39.9147 
       0.975621          176.36         39.3273         39.3273 
       0.981748         176.189         38.7501         38.7501 
       0.987916         174.562         38.1809         38.1809 
        0.99406         172.801         37.6254         37.6254 
        1.00019         172.342         37.0819         37.0819 
        1.00632         170.773         36.5498         36.5498 
        1.01246         169.548         36.0272         36.0272 
        1.01859         169.358         35.5158         35.5158 
        1.02471         166.776         35.0149         35.0149 
        1.03085         165.571         34.5219         34.5219 
        1.03698         164.623         34.0395         34.0395 
        1.04314         163.059         33.5643         33.5643 
        1.04929         162.487         33.0992         33.0992 
        1.05541         161.957         32.6448         32.6448 
        1.06154         160.068         32.1978         32.1978 
        1.06769         159.783         31.7586         31.7586 
        1.07382         158.214          31.329          31.329 
        1.07993         156.894         30.9083         30.9083 
        1.08607         156.513         30.4936         30.4936 
        1.09222         155.437         30.0861         30.0861 
        1.09836         154.159         29.6866         29.6866 
        1.10449         152.443         29.2948         29.2948 
        1.11063         151.289         28.9096         28.9096 
        1.11677          150.75         28.5315         28.5315 
         1.1229         149.574         28.1609         28.1609 
        1.12903         148.963         27.7964         27.7964 
        1.13518         147.918         27.4382         27.4382 
        1.14131         146.427         27.0865         27.0865 
        1.14745          146.41         26.7411         26.7411 
        1.15359         145.056         26.4017         26.4017 
        1.15973          143.92          26.068          26.068 
        1.16584         142.909         25.7416         25.7416 
        1.17197         142.468         25.4204         25.4204 
        1.17811         141.038         25.1036         25.1036 
        1.18424         140.503         24.7932         24.7932 
        1.19038          140.08         24.4871         24.4871 
        1.19652         138.709         24.1863         24.1863 
        1.20267         138.181         23.8906         23.8906 
        1.20881         137.013         23.5998         23.5998 
        1.21495         136.127         23.3144         23.3144 
        1.22108         135.225         23.0337         23.0337 
         1.2272         134.185         22.7583         22.7583 
        1.23334         133.855         22.4867         22.4867 
        1.23949         132.709         22.2189         22.2189 
        1.24562         131.923         21.9562         21.9562 
        1.25174         131.147         21.6982         21.6982 
        1.25789         130.285         21.4435         21.4435 
        1.26402         128.868         21.1933         21.1933 
        1.27014         128.078         20.9478         20.9478 
        1.27628         127.737         20.7054         20.7054 
        1.28244         127.439         20.4663         20.4663 
        1.28858         126.263         20.2314         20.2314 
        1.29471         125.133         20.0007         20.0007 
        1.30084         124.881         19.7737         19.7737 
        1.30697         123.419           19.55           19.55 
        1.31312         122.896         19.3294         19.3294 
        1.31925         122.062         19.1129         19.1129 
        1.32537         121.738         18.8999         18.8999 
        1.33151         120.606         18.6894         18.6894 
        1.33765         119.799         18.4822         18.4822 
        1.34378         119.302         18.2786         18.2786 
        1.34992         118.825         18.0779         18.0779 
        1.35606         118.429         17.8798         17.8798 
         1.3622         117.105          17.685          17.685 
        1.36833         116.277         17.4936         17.4936 
        1.37445         115.832         17.3051         17.3051 
        1.38059         114.953         17.1188         17.1188 
        1.38675         114.386         16.9348         16.9348 
        1.39288         113.907         16.7542         16.7542 
        1.39901          113.42         16.5763         16.5763 
        1.40515          112.21         16.4006         16.4006 
         1.4113         111.815         16.2276         16.2276 
        1.41742         110.894         16.0576         16.0576 
        1.42355         110.392         15.8898         15.8898 
         1.4297         109.769         15.7239         15.7239 
        1.43585         108.921         15.5605         15.5605 
        1.44198         108.483         15.3999         15.3999 
        1.44809         107.953         15.2419         15.2419 
        1.45423         107.445         15.0856         15.0856 
        1.46036         106.542         14.9317         14.9317 
        1.46649         105.745           14.78           14.78 
        1.47263         105.106         14.6302         14.6302 
        1.47877         104.606         14.4825         14.4825 
        1.48491          103.68         14.3366         14.3366 
        1.49104         103.547         14.1931         14.1931 
        1.49718         102.734         14.0514         14.0514 
        1.50333         102.157         13.9114         13.9114 
        1.50947         101.586         13.7736         13.7736 
         1.5156         101.012         13.6378         13.6378 
        1.52172         100.338         13.5039         13.5039 
        1.52787         99.7048         13.3715         13.3715 
          1.534         99.2739         13.2411         13.2411 
        1.54013         98.7256         13.1125         13.1125 
        1.54627         98.1551         12.9854         12.9854 
        1.55241         97.4515         12.8599         12.8599 
        1.55855         96.8595         12.7363         12.7363 
        1.56467         96.4531         12.6146         12.6146 
         1.5708         95.6243         12.4942         12.4942 
        1.57695         95.4334         12.3752         12.3752 
        1.58308          94.894          12.258          12.258 
        1.58922         94.4555         12.1422         12.1422 
        1.59535          93.754          12.028          12.028 
         1.6015         93.3841         11.9151         11.9151 
        1.60764         92.7078         11.8036         11.8036 
        1.61376         92.2998         11.6939         11.6939 
        1.61989         91.6406         11.5856         11.5856 
        1.62604         91.0966         11.4783         11.4783 
        1.63218         90.9496         11.3724         11.3724 
        1.63831         90.0532         11.2682         11.2682 
        1.64444         89.6134         11.1652         11.1652 
        1.65059         89.0759         11.0632         11.0632 
        1.65673         88.4429         10.9626         10.9626 
        1.66285         88.1543         10.8636         10.8636 
        1.66898         87.7296         10.7657         10.7657 
        1.67512         87.0254         10.6688         10.6688 
        1.68127         86.6605         10.5731         10.5731 
         1.6874         85.9922         10.4787         10.4787 
        1.69353         85.6359         10.3856         10.3856 
        1.69967         85.3512         10.2933         10.2933 
        1.70581         84.6526         10.2022         10.2022 
        1.71193         84.1902         10.1126         10.1126 
        1.71806         83.8496         10.0238         10.0238 
        1.72421         83.2098         9.93594         9.93594 
        1.73035         82.9457         9.84921         9.84921 
        1.73649         82.5109         9.76354         9.76354 
        1.74262         81.8353         9.67896         9.67896 
        1.74876         81.5325         9.59531         9.59531 
        1.75489         80.9541         9.51283         9.51283 
        1.76101         80.4454         9.43133         9.43133 
        1.76715         79.9749         9.35068         9.35068 
        1.77329         79.7372         9.27087         9.27087 
        1.77943         79.0291         9.19195         9.19195 
        1.78557          78.883         9.11406         9.11406 
        1.79171         78.0821         9.03706         9.03706 
        1.79785         77.7427         8.96093         8.96093 
        1.80399         77.3306         8.88569         8.88569 
        1.81012         76.9704         8.81142         8.81142 
        1.81625         76.5975         8.73802         8.73802 
        1.82239         76.1395         8.66534         8.66534 
        1.82853         75.7186         8.59353         8.59353 
        1.83466          75.266          8.5226          8.5226 
        1.84078         74.8635         8.45254         8.45254 
        1.84692         74.4702         8.38315         8.38315 
        1.85306         74.0564         8.31445         8.31445 
         1.8592         73.7534         8.24663         8.24663 
        1.86533         73.2096         8.17961         8.17961 
        1.87147         72.7253         8.11325         8.11325 
