# k  (h/Mpc)    P(k)  (Mpc/h)^3    P_linear(k)  (Mpc/h)^3     P_NL(k)  ShotnoiseSubtracted = false
     0.00783031         9396.28         9519.76         9519.76 
       0.013688         11156.8         11083.3         11083.3 
       0.019231         10720.6         10688.4         10688.4 
      0.0249154         9308.03         9435.63         9435.63 
      0.0312784         7785.31          7816.3          7816.3 
      0.0375637         6489.67         6456.68         6456.68 
      0.0433917         5507.26         5545.53         5545.53 
      0.0492413         4935.04          4934.7          4934.7 
      0.0555754         4425.01         4496.95         4496.95 
      0.0619321         4186.41         4151.73         4151.73 
       0.067871          3774.3         3820.32         3820.32 
      0.0738098         3407.12         3445.11         3445.11 
      0.0800417         2974.64         3021.64         3021.64 
      0.0862327         2610.97         2618.64         2618.64 
      0.0921407         2323.31         2293.02         2293.02 
      0.0982031          2056.6          2040.4          2040.4 
       0.104506         1922.43         1862.09         1862.09 
       0.110769         1794.26         1746.84         1746.84 
       0.116806         1696.02         1664.04         1664.04 
       0.122832         1619.42         1582.12         1582.12 
       0.129052         1494.06         1481.27         1481.27 
       0.135211         1385.14         1362.74         1362.74 
       0.141259         1287.28         1238.01         1238.01 
       0.147318          1182.9         1119.12         1119.12 
       0.153489         1072.44         1016.53         1016.53 
       0.159709         1005.16         937.765         937.765 
       0.165845          961.53         882.648         882.648 
       0.171974         910.859         843.221         843.221 
       0.178125         873.652         810.441         810.441 
       0.184229         838.451         776.842         776.842 
        0.19034         780.706         737.723         737.723 
       0.196428          755.11         693.067         693.067 
       0.202534         720.108         645.651         645.651 
       0.208729         673.591         599.394         599.394 
       0.214876         632.943         559.167         559.167 
       0.220989         607.897         526.618         526.618 
       0.227147         577.658         501.054         501.054 
        0.23329         555.153         480.834         480.834 
       0.239377         542.002         463.362         463.362 
       0.245482         506.504          445.99          445.99 
       0.251667         499.086         427.084         427.084 
       0.257832         478.995         406.683         406.683 
       0.263955         459.184         385.675         385.675 
       0.270079         439.155         365.228         365.228 
        0.27624         430.173         346.414         346.414 
       0.282372         412.444         330.139         330.139 
        0.28843         399.317         316.492         316.492 
       0.294538         380.249         304.682         304.682 
       0.300721         376.494         293.948         293.948 
        0.30691         358.793         283.624         283.624 
       0.313033         350.211         273.315         273.315 
       0.319153         337.023         262.725         262.725 
       0.325316         327.567         251.957         251.957 
        0.33145         315.954         241.464         241.464 
       0.337538         310.314         231.644         231.644 
       0.343633         299.399         222.649         222.649 
       0.349808         289.041          214.45          214.45 
       0.355968         284.852         207.085         207.085 
       0.362074         278.084         200.354         200.354 
       0.368217         270.048         193.927         193.927 
       0.374374         259.431         187.627         187.627 
       0.380519         255.913         181.392         181.392 
       0.386598         248.922         175.293         175.293 
       0.392688         245.412         169.316         169.316 
        0.39888         238.688          163.49          163.49 
       0.405048         232.381         158.027         158.027 
       0.411186         227.328         152.948         152.948 
       0.417313         222.678         148.231         148.231 
       0.423458         217.682         143.793         143.793 
       0.429607         212.866         139.562         139.562 
       0.435692         206.565         135.524         135.524 
       0.441815         204.565         131.572         131.572 
       0.447964         200.182         127.689         127.689 
       0.454126         192.306         123.903         123.903 
       0.460267         189.733         120.263         120.263 
       0.466387         187.358         116.791         116.791 
        0.47254         182.659         113.462         113.462 
       0.478662         181.621         110.315         110.315 
       0.484765         175.573         107.332         107.332 
       0.490885         172.951          104.47          104.47 
       0.497035         170.224         101.697         101.697 
       0.503198         165.811         99.0068         99.0068 
       0.509342         163.605         96.4073         96.4073 
       0.515458         161.178         93.8986         93.8986 
       0.521598         158.084          91.458          91.458 
       0.527764         155.776         89.0902         89.0902 
       0.533884         153.434         86.8275         86.8275 
           0.54         150.692         84.6574         84.6574 
       0.546137         149.304         82.5656         82.5656 
       0.552299         146.381          80.543          80.543 
       0.558452         144.265         78.5928         78.5928 
       0.564573         141.832          76.714          76.714 
       0.570708         139.008         74.8894         74.8894 
       0.576825         137.149         73.1269         73.1269 
       0.582926         134.682          71.424          71.424 
       0.589034          132.89         69.7719         69.7719 
       0.595184          131.08          68.161          68.161 
       0.601379          129.43         66.5905         66.5905 
       0.607522         126.661         65.0835         65.0835 
       0.613639         125.763         63.6316         63.6316 
       0.619772         123.117         62.2229         62.2229 
       0.625918         121.635         60.8555         60.8555 
       0.632068          120.17         59.5292         59.5292 
       0.638161         118.986          58.254          58.254 
         0.6443         117.327         57.0061         57.0061 
       0.650464         115.962         55.7891         55.7891 
       0.656582         114.166         54.6156         54.6156 
       0.662703         112.707         53.4753         53.4753 
       0.668861         110.931         52.3611         52.3611 
       0.675024         109.458         51.2784         51.2784 
       0.681124         108.651          50.238          50.238 
       0.687237          106.64         49.2251         49.2251 
       0.693381         105.097         48.2359         48.2359 
       0.699536          104.29         47.2726         47.2726 
       0.705665         104.019           46.34           46.34 
       0.711789          101.56         45.4334         45.4334 
       0.717957         101.137         44.5448         44.5448 
        0.72409         99.4944         43.6847         43.6847 
       0.730186         97.8912         42.8525         42.8525 
       0.736317         97.3688         42.0374         42.0374 
       0.742472         96.4777         41.2405         41.2405 
       0.748622         95.4028          40.465          40.465 
        0.75476         94.3836         39.7112         39.7112 
       0.760888         93.0494         38.9778         38.9778 
       0.767043          92.459         38.2601         38.2601 
       0.773185         91.3388         37.5621         37.5621 
       0.779291         90.0326         36.8856         36.8856 
       0.785407         89.4647         36.2248         36.2248 
       0.791564         88.5634         35.5762         35.5762 
       0.797719         86.9948         34.9438         34.9438 
       0.803834         86.5772         34.3308         34.3308 
       0.809972         85.3134         33.7305         33.7305 
       0.816124         84.9342         33.1432         33.1432 
       0.822261         84.0751         32.5715         32.5715 
       0.828378         83.2976          32.015          32.015 
       0.834502         82.7302         31.4711         31.4711 
       0.840667         81.5503         30.9364         30.9364 
       0.846816         80.5662         30.4156         30.4156 
       0.852925           80.02         29.9102         29.9102 
       0.859047         78.9212         29.4152         29.4152 
       0.865192         78.3895         28.9298         28.9298 
       0.871341         77.7446         28.4551         28.4551 
       0.877463         76.6813         27.9933         27.9933 
       0.883569         76.2912         27.5429         27.5429 
       0.889708         75.6405         27.1001         27.1001 
       0.895864         74.9405         26.6659         26.6659 
       0.902008         74.2856         26.2422         26.2422 
       0.908149         73.7437          25.828          25.828 
       0.914301          72.939         25.4221         25.4221 
       0.920448         72.4112         25.0253         25.0253 
       0.926574         71.6995         24.6384         24.6384 
       0.932687         71.5539         24.2605         24.2605 
       0.938823         70.3356         23.8891         23.8891 
       0.944975         69.7077         23.5247         23.5247 
       0.951105         69.2108         23.1693         23.1693 
       0.957225         68.4268         22.8218         22.8218 
       0.963368         68.0657         22.4802         22.4802 
       0.969511         67.7468         22.1456         22.1456 
       0.975621         67.2993         21.8197         21.8197 
       0.981748          66.608         21.4995         21.4995 
       0.987916         65.9125         21.1837         21.1837 
        0.99406         65.4874         20.8754         20.8754 
        1.00019         64.9312         20.5739         20.5739 
        1.00632         64.4712         20.2787         20.2787 
        1.01246         64.0049         19.9888         19.9888 
        1.01859         63.0991          19.705          19.705 
        1.02471         62.9929         19.4271         19.4271 
        1.03085         62.3762         19.1536         19.1536 
        1.03698         61.9718         18.8859         18.8859 
        1.04314         61.3805         18.6222         18.6222 
        1.04929         60.9476         18.3642         18.3642 
        1.05541         60.3554         18.1121         18.1121 
        1.06154         60.2263         17.8641         17.8641 
        1.06769         59.7198         17.6204         17.6204 
        1.07382         59.4223         17.3821         17.3821 
        1.07993         58.9628         17.1487         17.1487 
        1.08607         58.4672         16.9186         16.9186 
        1.09222          58.159         16.6925         16.6925 
        1.09836         57.6543         16.4708         16.4708 
        1.10449         57.3058         16.2534         16.2534 
        1.11063         56.7676         16.0397         16.0397 
        1.11677         56.4603           15.83           15.83 
         1.1229         55.8959         15.6243         15.6243 
        1.12903         55.2471         15.4221         15.4221 
        1.13518         55.4422         15.2234         15.2234 
        1.14131         55.0349         15.0282         15.0282 
        1.14745         54.3505         14.8366         14.8366 
        1.15359         54.1599         14.6483         14.6483 
        1.15973         53.6603         14.4632         14.4632 
        1.16584         53.3227         14.2821         14.2821 
        1.17197         52.9839         14.1038         14.1038 
        1.17811         52.7041         13.9281         13.9281 
        1.18424         52.2495         13.7559         13.7559 
        1.19038          51.884          13.586          13.586 
        1.19652         51.6853         13.4191         13.4191 
        1.20267         51.1581         13.2551         13.2551 
        1.20881         50.9349         13.0937         13.0937 
        1.21495         50.4724         12.9354         12.9354 
        1.22108          50.283         12.7796         12.7796 
         1.2272         49.7096         12.6268         12.6268 
        1.23334         49.5241         12.4762         12.4762 
        1.23949         49.3763         12.3276         12.3276 
        1.24562         48.8705         12.1818         12.1818 
        1.25174         48.6691         12.0387         12.0387 
        1.25789         48.4593         11.8974         11.8974 
        1.26402         48.0965         11.7586         11.7586 
        1.27014         47.5758         11.6223         11.6223 
        1.27628         47.3812         11.4878         11.4878 
        1.28244         47.0433         11.3552         11.3552 
        1.28858         46.8569         11.2249         11.2249 
        1.29471         46.6706         11.0968         11.0968 
        1.30084         46.3393         10.9709         10.9709 
        1.30697         45.9887         10.8468         10.8468 
        1.31312         45.6798         10.7244         10.7244 
        1.31925         45.4935         10.6043         10.6043 
        1.32537         45.2647         10.4861         10.4861 
        1.33151         44.7966         10.3693         10.3693 
        1.33765         44.6475         10.2544         10.2544 
        1.34378         44.3429         10.1414         10.1414 
        1.34992         44.1058         10.0301         10.0301 
        1.35606         43.8419         9.92015         9.92015 
         1.3622         43.4836         9.81207         9.81207 
        1.36833         43.2798         9.70585         9.70585 
        1.37445         43.0749         9.60127         9.60127 
        1.38059         42.7673          9.4979          9.4979 
        1.38675         42.5027          9.3958          9.3958 
        1.39288         42.2983         9.29562         9.29562 
        1.39901         42.0713         9.19693         9.19693 
        1.40515         41.8067         9.09946         9.09946 
         1.4113         41.6337         9.00344         9.00344 
        1.41742         41.4586         8.90916         8.90916 
        1.42355         41.0674         8.81606         8.81606 
         1.4297         40.9175         8.72401         8.72401 
        1.43585          40.693         8.63331         8.63331 
        1.44198         40.3736         8.54424         8.54424 
        1.44809         40.2596          8.4566          8.4566 
        1.45423         40.0299         8.36986         8.36986 
        1.46036          39.839         8.28449         8.28449 
        1.46649         39.6142         8.20027         8.20027 
        1.47263         39.3012         8.11716         8.11716 
        1.47877         39.1348         8.03523         8.03523 
        1.48491         39.0965          7.9543          7.9543 
        1.49104         38.7228         7.87466         7.87466 
        1.49718         38.3235         7.79604         7.79604 
        1.50333         38.2989         7.71837         7.71837 
        1.50947         38.1381         7.64191         7.64191 
         1.5156         37.8328         7.56659         7.56659 
        1.52172         37.6997         7.49229         7.49229 
        1.52787         37.5921         7.41884         7.41884 
          1.534         37.3126         7.34646         7.34646 
        1.54013          37.087         7.27512         7.27512 
        1.54627         36.9587         7.20459         7.20459 
        1.55241         36.6049         7.13499         7.13499 
        1.55855         36.4766          7.0664          7.0664 
        1.56467         36.1434          6.9989          6.9989 
         1.5708          36.207          6.9321          6.9321 
        1.57695         35.9384         6.86606         6.86606 
        1.58308         35.6983         6.80103         6.80103 
        1.58922         35.6725          6.7368          6.7368 
        1.59535         35.4926         6.67342         6.67342 
         1.6015         35.1552         6.61077         6.61077 
        1.60764         34.9593         6.54895         6.54895 
        1.61376         34.8266         6.48808         6.48808 
        1.61989         34.5928         6.42794         6.42794 
        1.62604         34.4716         6.36843         6.36843 
        1.63218          34.412          6.3097          6.3097 
        1.63831         34.1456         6.25185         6.25185 
        1.64444         33.9582          6.1947          6.1947 
        1.65059         33.7583         6.13813         6.13813 
        1.65673         33.5717         6.08232         6.08232 
        1.66285         33.3894         6.02736         6.02736 
        1.66898         33.2425         5.97306         5.97306 
        1.67512          33.057         5.91933         5.91933 
        1.68127         32.8567          5.8662          5.8662 
         1.6874         32.7373         5.81385         5.81385 
        1.69353         32.5542         5.76216         5.76216 
        1.69967         32.4008         5.71098         5.71098 
        1.70581         32.3331         5.66044         5.66044 
        1.71193         32.1443          5.6107          5.6107 
        1.71806         31.8482         5.56145         5.56145 
        1.72421         31.7312          5.5127          5.5127 
        1.73035         31.5846         5.46458         5.46458 
        1.73649         31.3216         5.41705         5.41705 
        1.74262         31.2768         5.37012         5.37012 
        1.74876         31.1903         5.32371         5.32371 
        1.75489         30.9825         5.27795         5.27795 
        1.76101         30.8203         5.23273         5.23273 
        1.76715         30.6799         5.18798         5.18798 
        1.77329         30.5245          5.1437          5.1437 
        1.77943         30.4025         5.09992         5.09992 
        1.78557         30.2158          5.0567          5.0567 
        1.79171         30.0545         5.01398         5.01398 
        1.79785         29.9143         4.97174         4.97174 
        1.80399         29.8383            4.93            4.93 
        1.81012         29.6414         4.88879         4.88879 
        1.81625         29.4681         4.84806         4.84806 
        1.82239          29.373         4.80774         4.80774 
        1.82853         29.1678          4.7679          4.7679 
        1.83466         29.0618         4.72854         4.72854 
        1.84078         28.8283         4.68967         4.68967 
        1.84692         28.7341         4.65117         4.65117 
        1.85306         28.5727         4.61306         4.61306 
         1.8592         28.4322         4.57543         4.57543 
        1.86533         28.3156         4.53824         4.53824 
        1.87147         28.2426         4.50142         4.50142 
        1.87761         28.1028           4.465           4.465 
