# k  (h/Mpc)    Pcb(k)  (Mpc/h)^3    Pcb_linear(k) (Mpc/h)^3    Pcb_NL(k) (Mpc/h)^3   ShotnoiseSubtracted = false
     0.00783031         19936.2         20242.2         20242.2 
       0.013688         23828.1         23560.7         23560.7 
       0.019231         22798.8         22718.6         22718.6 
      0.0249154         19625.6         20054.4         20054.4 
      0.0312784         16452.1           16612           16612 
      0.0375637         13776.5           13722           13722 
      0.0433917         11619.1         11785.4         11785.4 
      0.0492413         10451.9         10487.1         10487.1 
      0.0555754         9286.57         9556.76         9556.76 
      0.0619321         8876.52         8823.03         8823.03 
       0.067871         7927.34          8118.7          8118.7 
      0.0738098         7171.38         7321.29         7321.29 
      0.0800417         6252.86         6421.34         6421.34 
      0.0862327         5528.03         5564.91         5564.91 
      0.0921407          4976.8         4872.92         4872.92 
      0.0982031         4413.72         4336.06         4336.06 
       0.104506         4163.59         3957.11         3957.11 
       0.110769         3879.47         3712.19         3712.19 
       0.116806         3680.39         3536.23         3536.23 
       0.122832          3498.3         3362.16         3362.16 
       0.129052         3212.25         3147.84         3147.84 
       0.135211         2993.42         2895.93         2895.93 
       0.141259          2819.5         2630.87         2630.87 
       0.147318         2619.12         2378.23         2378.23 
       0.153489         2381.93         2160.21         2160.21 
       0.159709         2249.57         1992.82         1992.82 
       0.165845         2169.53          1875.7          1875.7 
       0.171974         2065.22         1791.91         1791.91 
       0.178125         1969.93         1722.25         1722.25 
       0.184229          1879.3         1650.85         1650.85 
        0.19034         1771.05         1567.72         1567.72 
       0.196428         1719.18         1472.82         1472.82 
       0.202534         1641.54         1372.06         1372.06 
       0.208729         1553.89         1273.76         1273.76 
       0.214876         1486.82         1188.27         1188.27 
       0.220989         1430.66          1119.1          1119.1 
       0.227147         1374.11         1064.78         1064.78 
        0.23329         1320.34         1021.81         1021.81 
       0.239377          1297.2         984.678         984.678 
       0.245482         1214.99         947.762         947.762 
       0.251667         1205.43         907.585         907.585 
       0.257832         1153.31         864.231         864.231 
       0.263955         1111.94         819.586         819.586 
       0.270079         1070.13         776.134         776.134 
        0.27624         1054.98         736.155         736.155 
       0.282372         1011.26         701.568         701.568 
        0.28843         1001.26         672.569         672.569 
       0.294538          949.58         647.471         647.471 
       0.300721         943.019          624.66          624.66 
        0.30691         905.179         602.721         602.721 
       0.313033         885.898         580.813         580.813 
       0.319153         867.919          558.31          558.31 
       0.325316         839.908         535.424         535.424 
        0.33145         819.059         513.128         513.128 
       0.337538         802.054         492.259         492.259 
       0.343633          783.43         473.144         473.144 
       0.349808         754.676         455.721         455.721 
       0.355968         748.814         440.071         440.071 
       0.362074         740.718         425.766         425.766 
       0.368217         716.751         412.109         412.109 
       0.374374         687.623          398.72          398.72 
       0.380519         688.109          385.47          385.47 
       0.386598         666.822          372.51          372.51 
       0.392688         663.685         359.807         359.807 
        0.39888         643.664         347.428         347.428 
       0.405048         634.018         335.817         335.817 
       0.411186         624.925         325.025         325.025 
       0.417313           611.8         315.001         315.001 
       0.423458         598.566          305.57          305.57 
       0.429607          591.96         296.579         296.579 
       0.435692         577.214         287.998         287.998 
       0.441815         570.996         279.598         279.598 
       0.447964         559.135         271.348         271.348 
       0.454126          552.87         263.301         263.301 
       0.460267         538.845         255.568         255.568 
       0.466387         532.305         248.189         248.189 
        0.47254         527.143         241.114         241.114 
       0.478662          521.88         234.427         234.427 
       0.484765         504.326         228.088         228.088 
       0.490885         500.492         222.006         222.006 
       0.497035         490.221         216.113         216.113 
       0.503198         485.988         210.396         210.396 
       0.509342         482.034         204.872         204.872 
       0.515458         477.612         199.541         199.541 
       0.521598         464.107         194.354         194.354 
       0.527764         457.442         189.323         189.323 
       0.533884         454.013         184.515         184.515 
           0.54          448.58         179.902         179.902 
       0.546137         444.937         175.458         175.458 
       0.552299         437.839         171.159         171.159 
       0.558452         434.488         167.015         167.015 
       0.564573         429.236         163.022         163.022 
       0.570708         422.617         159.145         159.145 
       0.576825          412.37           155.4           155.4 
       0.582926         412.009         151.781         151.781 
       0.589034         407.464          148.27          148.27 
       0.595184         404.248         144.847         144.847 
       0.601379         396.804         141.509         141.509 
       0.607522         392.068         138.307         138.307 
       0.613639         390.004         135.221         135.221 
       0.619772         382.868         132.228         132.228 
       0.625918          380.75         129.322         129.322 
       0.632068         374.274         126.503         126.503 
       0.638161         372.357         123.794         123.794 
         0.6443         366.753         121.142         121.142 
       0.650464         363.872         118.556         118.556 
       0.656582         359.772         116.062         116.062 
       0.662703         359.197         113.638         113.638 
       0.668861         353.526         111.271         111.271 
       0.675024         349.883          108.97          108.97 
       0.681124         346.536         106.759         106.759 
       0.687237         343.512         104.607         104.607 
       0.693381         338.257         102.504         102.504 
       0.699536         333.943         100.457         100.457 
       0.705665         332.009         98.4755         98.4755 
       0.711789         330.676         96.5489         96.5489 
       0.717957         327.455         94.6606         94.6606 
        0.72409         325.396          92.833          92.833 
       0.730186         320.473         91.0644         91.0644 
       0.736317         317.927         89.3323         89.3323 
       0.742472         315.408         87.6388         87.6388 
       0.748622         312.515         85.9909         85.9909 
        0.75476          308.23         84.3889         84.3889 
       0.760888         305.124         82.8304         82.8304 
       0.767043         305.106         81.3053         81.3053 
       0.773185         302.027          79.822          79.822 
       0.779291         297.582         78.3843         78.3843 
       0.785407         296.546         76.9801         76.9801 
       0.791564         292.892         75.6017         75.6017 
       0.797719         290.647         74.2578         74.2578 
       0.803834         287.062         72.9553         72.9553 
       0.809972         286.689         71.6794         71.6794 
       0.816124         285.279         70.4314         70.4314 
       0.822261         282.196         69.2165         69.2165 
       0.828378         279.741          68.034          68.034 
       0.834502         276.761         66.8782         66.8782 
       0.840667         274.885         65.7419         65.7419 
       0.846816         273.312         64.6352         64.6352 
       0.852925          271.49         63.5611         63.5611 
       0.859047         269.225         62.5092         62.5092 
       0.865192          265.69         61.4778         61.4778 
       0.871341         263.539          60.469          60.469 
       0.877463           263.4         59.4875         59.4875 
       0.883569         261.038         58.5304         58.5304 
       0.889708         258.227         57.5894         57.5894 
       0.895864          257.36         56.6668         56.6668 
       0.902008         254.838         55.7664         55.7664 
       0.908149         252.298         54.8862         54.8862 
       0.914301         250.011         54.0236         54.0236 
       0.920448          248.55         53.1804         53.1804 
       0.926574         245.607         52.3581         52.3581 
       0.932687         245.407         51.5551         51.5551 
       0.938823         242.571          50.766          50.766 
       0.944975         242.243         49.9916         49.9916 
       0.951105         239.988         49.2362         49.2362 
       0.957225         238.457         48.4977         48.4977 
       0.963368         234.942         47.7719         47.7719 
       0.969511         234.267         47.0609         47.0609 
       0.975621         232.477         46.3683         46.3683 
       0.981748         231.237         45.6878         45.6878 
       0.987916         229.858         45.0167         45.0167 
        0.99406         227.208         44.3617         44.3617 
        1.00019         225.792          43.721          43.721 
        1.00632         224.726         43.0935         43.0935 
        1.01246         222.785         42.4774         42.4774 
        1.01859         222.864         41.8744         41.8744 
        1.02471         219.173         41.2838         41.2838 
        1.03085         218.119         40.7026         40.7026 
        1.03698         216.823         40.1338         40.1338 
        1.04314         214.996         39.5735         39.5735 
        1.04929         213.791         39.0251         39.0251 
        1.05541         213.369         38.4894         38.4894 
        1.06154         210.287         37.9624         37.9624 
        1.06769         209.841         37.4445         37.4445 
        1.07382         207.997          36.938          36.938 
        1.07993         206.594          36.442          36.442 
        1.08607         206.242         35.9531         35.9531 
        1.09222         204.025         35.4727         35.4727 
        1.09836         202.545         35.0016         35.0016 
        1.10449         200.721         34.5396         34.5396 
        1.11063         199.053         34.0855         34.0855 
        1.11677         198.452         33.6397         33.6397 
         1.1229         196.539         33.2027         33.2027 
        1.12903         195.828          32.773          32.773 
        1.13518         194.436         32.3506         32.3506 
        1.14131         192.716         31.9359         31.9359 
        1.14745         192.726         31.5287         31.5287 
        1.15359         190.815         31.1285         31.1285 
        1.15973         188.982         30.7352         30.7352 
        1.16584         188.082         30.3503         30.3503 
        1.17197         187.963         29.9716         29.9716 
        1.17811         185.253         29.5981         29.5981 
        1.18424         184.484         29.2321         29.2321 
        1.19038         183.808         28.8712         28.8712 
        1.19652         181.931         28.5165         28.5165 
        1.20267         181.815         28.1678         28.1678 
        1.20881         179.956          27.825          27.825 
        1.21495         178.925         27.4885         27.4885 
        1.22108         177.705         27.1575         27.1575 
         1.2272         176.466         26.8328         26.8328 
        1.23334         176.228         26.5126         26.5126 
        1.23949         173.991         26.1969         26.1969 
        1.24562         173.328         25.8872         25.8872 
        1.25174         172.445          25.583          25.583 
        1.25789          171.32         25.2827         25.2827 
        1.26402         169.373         24.9877         24.9877 
        1.27014         168.525         24.6982         24.6982 
        1.27628         167.529         24.4124         24.4124 
        1.28244         167.358         24.1306         24.1306 
        1.28858         165.615         23.8536         23.8536 
        1.29471         164.737         23.5815         23.5815 
        1.30084         163.493          23.314          23.314 
        1.30697         162.116         23.0502         23.0502 
        1.31312         161.074         22.7901         22.7901 
        1.31925         159.959         22.5348         22.5348 
        1.32537         159.863         22.2837         22.2837 
        1.33151         158.243         22.0355         22.0355 
        1.33765          157.08         21.7912         21.7912 
        1.34378         156.437         21.5512         21.5512 
        1.34992          155.67         21.3145         21.3145 
        1.35606         155.301          21.081          21.081 
         1.3622         153.461         20.8513         20.8513 
        1.36833         152.541         20.6256         20.6256 
        1.37445         151.843         20.4033         20.4033 
        1.38059         150.584         20.1836         20.1836 
        1.38675          150.08         19.9667         19.9667 
        1.39288         149.038         19.7538         19.7538 
        1.39901         148.274         19.5441         19.5441 
        1.40515         147.033         19.3369         19.3369 
         1.4113          146.37         19.1329         19.1329 
        1.41742         145.098         18.9325         18.9325 
        1.42355         144.578         18.7347         18.7347 
         1.4297         143.335         18.5391         18.5391 
        1.43585         142.616         18.3463         18.3463 
        1.44198         142.084         18.1571         18.1571 
        1.44809         141.188         17.9708         17.9708 
        1.45423         140.589         17.7865         17.7865 
        1.46036         139.255         17.6051         17.6051 
        1.46649         138.378         17.4261         17.4261 
        1.47263         137.599         17.2495         17.2495 
        1.47877         136.504         17.0754         17.0754 
        1.48491         135.366         16.9034         16.9034 
        1.49104         135.259         16.7342         16.7342 
        1.49718         133.912         16.5671         16.5671 
        1.50333         133.214          16.402          16.402 
        1.50947         132.342         16.2395         16.2395 
         1.5156         131.733         16.0795         16.0795 
        1.52172         130.954         15.9216         15.9216 
        1.52787         129.784         15.7655         15.7655 
          1.534         129.409         15.6117         15.6117 
        1.54013         128.613         15.4601         15.4601 
        1.54627         127.741         15.3102         15.3102 
        1.55241         126.829         15.1623         15.1623 
        1.55855         126.205         15.0166         15.0166 
        1.56467         125.112         14.8731         14.8731 
         1.5708         124.313         14.7311         14.7311 
        1.57695         124.182         14.5908         14.5908 
        1.58308         123.293         14.4526         14.4526 
        1.58922         122.668         14.3161         14.3161 
        1.59535         121.799         14.1814         14.1814 
         1.6015         121.212         14.0483         14.0483 
        1.60764         120.544         13.9169         13.9169 
        1.61376         119.657         13.7876         13.7876 
        1.61989         118.806         13.6598         13.6598 
        1.62604         117.954         13.5333         13.5333 
        1.63218         117.758         13.4085         13.4085 
        1.63831         116.818         13.2856         13.2856 
        1.64444         116.071         13.1641         13.1641 
        1.65059         115.432         13.0439         13.0439 
        1.65673         114.713         12.9253         12.9253 
        1.66285         114.132         12.8085         12.8085 
        1.66898         113.373         12.6931         12.6931 
        1.67512         112.681         12.5789         12.5789 
        1.68127         111.998         12.4661         12.4661 
         1.6874         111.469         12.3548         12.3548 
        1.69353         110.824          12.245          12.245 
        1.69967         110.006         12.1362         12.1362 
        1.70581         109.275         12.0288         12.0288 
        1.71193         108.639         11.9231         11.9231 
        1.71806         108.246         11.8184         11.8184 
        1.72421         107.699         11.7148         11.7148 
        1.73035         107.215         11.6126         11.6126 
        1.73649         106.466         11.5116         11.5116 
        1.74262         105.824         11.4118         11.4118 
        1.74876         105.206         11.3132         11.3132 
        1.75489         104.453          11.216          11.216 
        1.76101         103.675         11.1199         11.1199 
        1.76715         103.376         11.0248         11.0248 
        1.77329         102.762         10.9307         10.9307 
        1.77943         102.236         10.8376         10.8376 
        1.78557         101.785         10.7458         10.7458 
        1.79171         100.866          10.655          10.655 
        1.79785         100.397         10.5653         10.5653 
        1.80399         99.8003         10.4766         10.4766 
        1.81012         99.2993          10.389          10.389 
        1.81625         98.8323         10.3024         10.3024 
        1.82239         98.2243         10.2168         10.2168 
        1.82853         97.4345         10.1321         10.1321 
        1.83466         96.9906         10.0485         10.0485 
        1.84078         96.4928         9.96585         9.96585 
        1.84692         95.6635         9.88404         9.88404 
        1.85306         95.4327         9.80304         9.80304 
         1.8592         94.7151         9.72308         9.72308 
        1.86533          94.224         9.64405         9.64405 
        1.87147         93.5719         9.56581         9.56581 
