# k  (h/Mpc)    P(k)  (Mpc/h)^3    P_linear(k)  (Mpc/h)^3     P_NL(k)  ShotnoiseSubtracted = false
     0.00783031           18584           18865           18865 
       0.013688         22197.9         21958.3         21958.3 
       0.019231         21248.2         21173.7         21173.7 
      0.0249154         18306.4         18690.8         18690.8 
      0.0312784         15343.2         15482.5         15482.5 
      0.0375637           12842         12789.1         12789.1 
      0.0433917         10837.5         10984.1         10984.1 
      0.0492413         9745.21         9774.14         9774.14 
      0.0555754         8666.66         8907.02         8907.02 
      0.0619321         8276.24         8223.18         8223.18 
       0.067871         7397.92         7566.74         7566.74 
      0.0738098         6690.81         6823.54         6823.54 
      0.0800417         5834.38         5984.78         5984.78 
      0.0862327         5154.31         5186.57         5186.57 
      0.0921407         4634.87         4541.64         4541.64 
      0.0982031         4109.16         4041.28         4041.28 
       0.104506         3873.37         3688.09         3688.09 
       0.110769         3609.48         3459.82         3459.82 
       0.116806         3422.59         3295.82         3295.82 
       0.122832         3254.94         3133.58         3133.58 
       0.129052         2989.82         2933.83         2933.83 
       0.135211         2785.09         2699.05         2699.05 
       0.141259         2619.81         2452.01         2452.01 
       0.147318          2430.8         2216.55         2216.55 
       0.153489         2209.72         2013.36         2013.36 
       0.159709         2085.91         1857.35         1857.35 
       0.165845         2009.81         1748.18         1748.18 
       0.171974         1912.35         1670.09         1670.09 
       0.178125         1824.87         1605.17         1605.17 
       0.184229         1742.41         1538.62         1538.62 
        0.19034         1638.75         1461.14         1461.14 
       0.196428         1590.99         1372.69         1372.69 
       0.202534         1519.42         1278.78         1278.78 
       0.208729         1436.57         1187.16         1187.16 
       0.214876         1371.84         1107.49         1107.49 
       0.220989            1320         1043.02         1043.02 
       0.227147         1266.56         992.389         992.389 
        0.23329         1216.99         952.341         952.341 
       0.239377         1194.88         917.736         917.736 
       0.245482         1118.23         883.328         883.328 
       0.251667         1109.07         845.883         845.883 
       0.257832         1061.17         805.478         805.478 
       0.263955            1023         763.868         763.868 
       0.270079         983.765          723.37          723.37 
        0.27624         969.847         686.108         686.108 
       0.282372         929.493         653.873         653.873 
        0.28843         918.448         626.845         626.845 
       0.294538         870.782         603.452         603.452 
       0.300721         865.121         582.193         582.193 
        0.30691         829.321         561.746         561.746 
       0.313033         811.788         541.327         541.327 
       0.319153         794.034         520.354         520.354 
       0.325316         768.567         499.025         499.025 
        0.33145         748.761         478.244         478.244 
       0.337538         733.762         458.793         458.793 
       0.343633         715.519         440.979         440.979 
       0.349808         689.063         424.739         424.739 
       0.355968         683.797         410.153         410.153 
       0.362074         675.771         396.821         396.821 
       0.368217         654.323         384.092         384.092 
       0.374374         626.794         371.614         371.614 
       0.380519         626.826         359.265         359.265 
       0.386598         607.803         347.185         347.185 
       0.392688         604.812         335.347         335.347 
        0.39888         586.547         323.808         323.808 
       0.405048          576.84         312.988         312.988 
       0.411186         568.457         302.928         302.928 
       0.417313         556.536         293.587         293.587 
       0.423458         544.549         284.797         284.797 
       0.429607         537.994         276.417         276.417 
       0.435692         524.405         268.419         268.419 
       0.441815         518.872          260.59          260.59 
       0.447964         507.758         252.901         252.901 
       0.454126         501.048         245.401         245.401 
       0.460267         488.932         238.193         238.193 
       0.466387         483.068         231.316         231.316 
        0.47254         477.085         224.722         224.722 
       0.478662         473.213         218.489         218.489 
       0.484765         456.835         212.582         212.582 
       0.490885         453.207         206.913         206.913 
       0.497035         443.965         201.421         201.421 
       0.503198         439.684         196.093         196.093 
       0.509342         436.216         190.944         190.944 
       0.515458          431.88         185.975         185.975 
       0.521598         419.749         181.141         181.141 
       0.527764         413.579         176.452         176.452 
       0.533884         410.482          171.97          171.97 
           0.54         405.238         167.672         167.672 
       0.546137         402.322         163.529         163.529 
       0.552299         395.308         159.523         159.523 
       0.558452         392.624         155.661         155.661 
       0.564573         387.631          151.94          151.94 
       0.570708          381.24         148.326         148.326 
       0.576825         372.199         144.835         144.835 
       0.582926         371.371         141.462         141.462 
       0.589034         367.419          138.19          138.19 
       0.595184         364.449         134.999         134.999 
       0.601379         357.779         131.889         131.889 
       0.607522         353.475         128.904         128.904 
       0.613639         351.453         126.029         126.029 
       0.619772         344.632         123.238         123.238 
       0.625918         342.981          120.53          120.53 
       0.632068         336.982         117.903         117.903 
       0.638161         335.363         115.378         115.378 
         0.6443         330.106         112.906         112.906 
       0.650464         327.249         110.496         110.496 
       0.656582         323.759         108.172         108.172 
       0.662703          323.24         105.913         105.913 
       0.668861         317.978         103.706         103.706 
       0.675024         314.478         101.562         101.562 
       0.681124         311.534         99.5012         99.5012 
       0.687237         308.655          97.495          97.495 
       0.693381         303.952         95.5359         95.5359 
       0.699536         300.361          93.628          93.628 
       0.705665         298.199         91.7808         91.7808 
       0.711789         296.936         89.9852         89.9852 
       0.717957         294.173         88.2253         88.2253 
        0.72409         291.999         86.5219         86.5219 
       0.730186         287.728         84.8736         84.8736 
       0.736317         285.237         83.2592         83.2592 
       0.742472         283.023         81.6808         81.6808 
       0.748622         280.467         80.1449         80.1449 
        0.75476         276.819         78.6519         78.6519 
       0.760888         273.976         77.1993         77.1993 
       0.767043         273.958         75.7779         75.7779 
       0.773185         271.032         74.3954         74.3954 
       0.779291         266.742         73.0555         73.0555 
       0.785407         265.973         71.7467         71.7467 
       0.791564         262.651          70.462          70.462 
       0.797719         260.295         69.2095         69.2095 
       0.803834         257.461         67.9955         67.9955 
       0.809972         256.988         66.8064         66.8064 
       0.816124         255.737         65.6432         65.6432 
       0.822261         253.039         64.5109         64.5109 
       0.828378         250.607         63.4088         63.4088 
       0.834502         248.358         62.3316         62.3316 
       0.840667         246.392         61.2725         61.2725 
       0.846816         244.807         60.2411         60.2411 
       0.852925         243.242           59.24           59.24 
       0.859047         241.203         58.2597         58.2597 
       0.865192         237.929         57.2983         57.2983 
       0.871341         236.094         56.3582         56.3582 
       0.877463         235.612         55.4434         55.4434 
       0.883569         233.894         54.5513         54.5513 
       0.889708         231.141         53.6743         53.6743 
       0.895864         229.953         52.8144         52.8144 
       0.902008         227.941         51.9752         51.9752 
       0.908149         226.117         51.1549         51.1549 
       0.914301         223.582         50.3509         50.3509 
       0.920448         222.406          49.565          49.565 
       0.926574         219.937         48.7987         48.7987 
       0.932687         219.875         48.0502         48.0502 
       0.938823         217.193         47.3147         47.3147 
       0.944975         216.637          46.593          46.593 
       0.951105         214.844          45.889          45.889 
       0.957225         213.428         45.2007         45.2007 
       0.963368         210.228         44.5242         44.5242 
       0.969511         209.545         43.8616         43.8616 
       0.975621         207.712          43.216          43.216 
       0.981748         206.999         42.5818         42.5818 
       0.987916         205.532         41.9564         41.9564 
        0.99406         203.247         41.3458         41.3458 
        1.00019         202.277         40.7487         40.7487 
        1.00632         200.986         40.1639         40.1639 
        1.01246         199.338         39.5897         39.5897 
        1.01859         199.396         39.0277         39.0277 
        1.02471         196.099         38.4772         38.4772 
        1.03085         194.972         37.9355         37.9355 
        1.03698         193.833         37.4054         37.4054 
        1.04314         192.112         36.8832         36.8832 
        1.04929         191.237         36.3721         36.3721 
        1.05541         190.796         35.8728         35.8728 
        1.06154         188.176         35.3816         35.3816 
        1.06769         187.783         34.8989         34.8989 
        1.07382         186.101         34.4268         34.4268 
        1.07993         184.689         33.9646         33.9646 
        1.08607         184.415         33.5089         33.5089 
        1.09222         182.673         33.0611         33.0611 
        1.09836         181.277         32.6221         32.6221 
        1.10449         179.467         32.1915         32.1915 
        1.11063         178.046         31.7683         31.7683 
        1.11677         177.435         31.3528         31.3528 
         1.1229         175.863         30.9455         30.9455 
        1.12903         175.194          30.545          30.545 
        1.13518         173.942         30.1513         30.1513 
        1.14131         172.306         29.7648         29.7648 
        1.14745         172.375         29.3853         29.3853 
        1.15359         170.666         29.0123         29.0123 
        1.15973         169.064         28.6457         28.6457 
        1.16584         168.227          28.287          28.287 
        1.17197         167.987          27.934          27.934 
        1.17811         165.736         27.5859         27.5859 
        1.18424         165.098         27.2448         27.2448 
        1.19038          164.55         26.9084         26.9084 
        1.19652          162.88         26.5779         26.5779 
        1.20267          162.63         26.2529         26.2529 
        1.20881         161.091         25.9334         25.9334 
        1.21495         160.085         25.6197         25.6197 
        1.22108         158.997         25.3113         25.3113 
         1.2272          157.85         25.0086         25.0086 
        1.23334         157.628         24.7102         24.7102 
        1.23949         155.798          24.416          24.416 
        1.24562         155.102         24.1273         24.1273 
        1.25174         154.277         23.8438         23.8438 
        1.25789         153.265         23.5639         23.5639 
        1.26402         151.555          23.289          23.289 
        1.27014          150.65         23.0191         23.0191 
        1.27628         150.014         22.7528         22.7528 
        1.28244         149.816         22.4901         22.4901 
        1.28858          148.23         22.2319         22.2319 
        1.29471         147.261         21.9784         21.9784 
        1.30084         146.504          21.729          21.729 
        1.30697         144.986         21.4831         21.4831 
        1.31312         144.214         21.2407         21.2407 
        1.31925         143.252         21.0028         21.0028 
        1.32537          143.09         20.7688         20.7688 
        1.33151         141.663         20.5375         20.5375 
        1.33765         140.598         20.3098         20.3098 
        1.34378         140.064         20.0861         20.0861 
        1.34992         139.379         19.8655         19.8655 
        1.35606         139.078         19.6478         19.6478 
         1.3622         137.465         19.4337         19.4337 
        1.36833         136.531         19.2234         19.2234 
        1.37445         135.966         19.0162         19.0162 
        1.38059         134.826         18.8115         18.8115 
        1.38675         134.337         18.6093         18.6093 
        1.39288          133.47         18.4109         18.4109 
        1.39901         132.987         18.2154         18.2154 
        1.40515         131.615         18.0224         18.0224 
         1.4113         131.126         17.8322         17.8322 
        1.41742         129.961         17.6455         17.6455 
        1.42355         129.506         17.4611         17.4611 
         1.4297         128.507         17.2787         17.2787 
        1.43585          127.77         17.0991         17.0991 
        1.44198         127.224         16.9227         16.9227 
        1.44809         126.538         16.7491         16.7491 
        1.45423          125.98         16.5773         16.5773 
        1.46036         124.755         16.4082         16.4082 
        1.46649         123.916         16.2414         16.2414 
        1.47263         123.214         16.0768         16.0768 
        1.47877         122.365         15.9145         15.9145 
        1.48491           121.3         15.7543         15.7543 
        1.49104         121.217         15.5965         15.5965 
        1.49718         120.131         15.4408         15.4408 
        1.50333         119.437          15.287          15.287 
        1.50947          118.74         15.1355         15.1355 
         1.5156         118.155         14.9864         14.9864 
        1.52172         117.375         14.8392         14.8392 
        1.52787         116.455         14.6937         14.6937 
          1.534         116.071         14.5504         14.5504 
        1.54013         115.416         14.4091         14.4091 
        1.54627         114.652         14.2694         14.2694 
        1.55241         113.844         14.1315         14.1315 
        1.55855         113.249         13.9957         13.9957 
        1.56467         112.389          13.862          13.862 
         1.5708          111.57         13.7297         13.7297 
        1.57695         111.397         13.5989         13.5989 
        1.58308         110.742         13.4701         13.4701 
        1.58922         110.218         13.3429         13.3429 
        1.59535         109.388         13.2173         13.2173 
         1.6015         108.965         13.0933         13.0933 
        1.60764         108.242         12.9708         12.9708 
        1.61376         107.512         12.8503         12.8503 
        1.61989         106.746         12.7312         12.7312 
        1.62604         106.001         12.6133         12.6133 
        1.63218         105.892          12.497          12.497 
        1.63831         105.013         12.3824         12.3824 
        1.64444         104.353         12.2692         12.2692 
        1.65059         103.765         12.1571         12.1571 
        1.65673         103.058         12.0466         12.0466 
        1.66285         102.676         11.9378         11.9378 
        1.66898         101.974         11.8302         11.8302 
        1.67512         101.344         11.7238         11.7238 
        1.68127         100.789         11.6186         11.6186 
         1.6874         100.191         11.5149         11.5149 
        1.69353         99.7541         11.4125         11.4125 
        1.69967         99.1484         11.3111         11.3111 
        1.70581         98.3677          11.211          11.211 
        1.71193         97.8276         11.1125         11.1125 
        1.71806         97.4742          11.015          11.015 
        1.72421         96.9299         10.9184         10.9184 
        1.73035         96.5536         10.8231         10.8231 
        1.73649         95.9073          10.729          10.729 
        1.74262         95.2403          10.636          10.636 
        1.74876         94.8141         10.5441         10.5441 
        1.75489         94.0719         10.4535         10.4535 
        1.76101         93.4398         10.3639         10.3639 
        1.76715         93.0837         10.2753         10.2753 
        1.77329         92.6695         10.1876         10.1876 
        1.77943         91.9888         10.1009         10.1009 
        1.78557         91.6592         10.0153         10.0153 
        1.79171         90.8161         9.93066         9.93066 
        1.79785         90.3958         9.84701         9.84701 
        1.80399         89.8559         9.76433         9.76433 
        1.81012         89.3786         9.68271         9.68271 
        1.81625          88.996         9.60205         9.60205 
        1.82239         88.4621         9.52219         9.52219 
        1.82853         87.7873         9.44327         9.44327 
        1.83466         87.3476         9.36533         9.36533 
        1.84078         86.9402         9.28834         9.28834 
        1.84692          86.239         9.21209         9.21209 
        1.85306         85.9637          9.1366          9.1366 
         1.8592         85.4046         9.06207         9.06207 
        1.86533         84.8754         8.98842         8.98842 
        1.87147         84.3204          8.9155          8.9155 
        1.87761         83.7431         8.84335         8.84335 
