# k  (h/Mpc)    P(k)  (Mpc/h)^3    P_linear(k)  (Mpc/h)^3     P_NL(k)  ShotnoiseSubtracted = false
     0.00783031         2928.12         2960.94         2960.94 
       0.013688         3453.52         3448.47         3448.47 
       0.019231          3331.2         3326.06         3326.06 
      0.0249154         2915.36         2936.44         2936.44 
      0.0312784         2431.54         2432.61         2432.61 
      0.0375637          2018.8         2009.53         2009.53 
      0.0433917         1722.96         1725.98         1725.98 
      0.0492413         1538.31         1535.89         1535.89 
      0.0555754         1390.06         1399.66         1399.66 
      0.0619321         1300.51         1292.22         1292.22 
       0.067871         1183.37         1189.08         1189.08 
      0.0738098         1066.92          1072.3          1072.3 
      0.0800417         933.282         940.494         940.494 
      0.0862327         814.096         815.062         815.062 
      0.0921407          717.65         713.714         713.714 
      0.0982031         635.916         635.086         635.086 
       0.104506         587.901         579.585         579.585 
       0.110769         549.778         543.714         543.714 
       0.116806         519.941         517.942         517.942 
       0.122832          496.79         492.447         492.447 
       0.129052         461.263         461.057         461.057 
       0.135211         425.267         424.162         424.162 
       0.141259         390.508         385.339         385.339 
       0.147318         355.942         348.336         348.336 
       0.153489         322.512         316.404         316.404 
       0.159709         299.212         291.887         291.887 
       0.165845         284.483         274.732         274.732 
       0.171974         268.975          262.46          262.46 
       0.178125         258.895         252.257         252.257 
       0.184229         248.763         241.799         241.799 
        0.19034         232.803         229.623         229.623 
       0.196428         222.091         215.723         215.723 
       0.202534          210.09         200.965         200.965 
       0.208729         194.787         186.567         186.567 
       0.214876         181.315         174.046         174.046 
       0.220989         173.193         163.915         163.915 
       0.227147         163.394         155.958         155.958 
        0.23329         156.924         149.664         149.664 
       0.239377         152.114         144.226         144.226 
       0.245482         144.177         138.819         138.819 
       0.251667          140.22         132.934         132.934 
       0.257832         134.093         126.584         126.584 
       0.263955          127.54         120.045         120.045 
       0.270079         121.455         113.681         113.681 
        0.27624         117.106         107.825         107.825 
       0.282372         112.031         102.759         102.759 
        0.28843         107.127         98.5114         98.5114 
       0.294538         102.841         94.8352         94.8352 
       0.300721         100.515         91.4942         91.4942 
        0.30691         96.1215         88.2808         88.2808 
       0.313033         92.9282          85.072          85.072 
       0.319153          88.364         81.7759         81.7759 
       0.325316         86.5028          78.424          78.424 
        0.33145         82.7216         75.1581         75.1581 
       0.337538         80.2957         72.1014         72.1014 
       0.343633         77.1354         69.3019         69.3019 
       0.349808           74.65         66.7497         66.7497 
       0.355968         72.5815         64.4574         64.4574 
       0.362074         70.2152         62.3623         62.3623 
       0.368217         67.9787         60.3617         60.3617 
       0.374374         65.8512         58.4009         58.4009 
       0.380519         64.0925         56.4601         56.4601 
       0.386598         62.1518         54.5617         54.5617 
       0.392688         60.6597         52.7013         52.7013 
        0.39888         58.6944         50.8879         50.8879 
       0.405048         57.0803         49.1875         49.1875 
       0.411186         55.5676         47.6066         47.6066 
       0.417313         53.7731         46.1386         46.1386 
       0.423458         52.3065         44.7571         44.7571 
       0.429607         50.8545         43.4402         43.4402 
       0.435692         49.2045         42.1833         42.1833 
       0.441815         48.3551          40.953          40.953 
       0.447964          47.383         39.7445         39.7445 
       0.454126         45.3203          38.566          38.566 
       0.460267         44.5238         37.4332         37.4332 
       0.466387         43.2236         36.3524         36.3524 
        0.47254         42.4101         35.3162         35.3162 
       0.478662         41.6256         34.3366         34.3366 
       0.484765          40.334         33.4083         33.4083 
       0.490885         39.4065         32.5174         32.5174 
       0.497035         38.7909         31.6543         31.6543 
       0.503198         37.6871         30.8169         30.8169 
       0.509342         36.6976         30.0078         30.0078 
       0.515458         35.8681         29.2269         29.2269 
       0.521598         35.2212         28.4673         28.4673 
       0.527764         34.4401         27.7303         27.7303 
       0.533884         33.8132          27.026          27.026 
           0.54         32.9861         26.3505         26.3505 
       0.546137         32.4468         25.6994         25.6994 
       0.552299         31.8651         25.0698         25.0698 
       0.558452         30.8719         24.4628         24.4628 
       0.564573         30.3504          23.878          23.878 
       0.570708         29.8241         23.3101         23.3101 
       0.576825         29.0953         22.7615         22.7615 
       0.582926         28.4737         22.2315         22.2315 
       0.589034         27.7072         21.7172         21.7172 
       0.595184         27.3278         21.2158         21.2158 
       0.601379         26.7717          20.727          20.727 
       0.607522          26.214         20.2579         20.2579 
       0.613639         25.9436          19.806          19.806 
       0.619772         25.2557         19.3675         19.3675 
       0.625918         25.0542         18.9419         18.9419 
       0.632068         24.6357         18.5291         18.5291 
       0.638161          24.077         18.1322         18.1322 
         0.6443         23.5868         17.7437         17.7437 
       0.650464         23.1318         17.3649         17.3649 
       0.656582         22.9477         16.9997         16.9997 
       0.662703         22.4727         16.6447         16.6447 
       0.668861         22.0352          16.298          16.298 
       0.675024         21.6171         15.9609         15.9609 
       0.681124          21.231         15.6371         15.6371 
       0.687237         20.8258         15.3218         15.3218 
       0.693381         20.6158         15.0139         15.0139 
       0.699536         20.0886         14.7141         14.7141 
       0.705665         19.9966         14.4238         14.4238 
       0.711789          19.502         14.1416         14.1416 
       0.717957          19.217          13.865          13.865 
        0.72409         18.9238         13.5973         13.5973 
       0.730186         18.6291         13.3383         13.3383 
       0.736317         18.4061         13.0846         13.0846 
       0.742472         18.0646         12.8365         12.8365 
       0.748622          17.858         12.5952         12.5952 
        0.75476         17.5129         12.3605         12.3605 
       0.760888         17.2319         12.1323         12.1323 
       0.767043         17.0028         11.9089         11.9089 
       0.773185         16.6858         11.6916         11.6916 
       0.779291         16.5704          11.481          11.481 
       0.785407         16.3722         11.2754         11.2754 
       0.791564          16.049         11.0735         11.0735 
       0.797719         15.6627         10.8766         10.8766 
       0.803834         15.6284         10.6858         10.6858 
       0.809972         15.4525          10.499          10.499 
       0.816124         15.0787         10.3162         10.3162 
       0.822261         14.9141         10.1382         10.1382 
       0.828378         14.7646         9.96501         9.96501 
       0.834502          14.596         9.79572         9.79572 
       0.840667          14.365         9.62928         9.62928 
       0.846816         14.0902         9.46719         9.46719 
       0.852925         13.9483         9.30987         9.30987 
       0.859047         13.7756          9.1558          9.1558 
       0.865192         13.6174         9.00472         9.00472 
       0.871341         13.4837         8.85697         8.85697 
       0.877463         13.2321          8.7132          8.7132 
       0.883569         13.0472         8.57301         8.57301 
       0.889708         12.8334         8.43519         8.43519 
       0.895864         12.7144         8.30005         8.30005 
       0.902008         12.6088         8.16817         8.16817 
       0.908149         12.4549         8.03924         8.03924 
       0.914301         12.3553         7.91289         7.91289 
       0.920448         12.1046         7.78939         7.78939 
       0.926574         11.9845         7.66895         7.66895 
       0.932687         11.8289         7.55133         7.55133 
       0.938823         11.6679         7.43575         7.43575 
       0.944975         11.5239         7.32233         7.32233 
       0.951105         11.4054         7.21168         7.21168 
       0.957225         11.2862         7.10352         7.10352 
       0.963368         11.1704         6.99721         6.99721 
       0.969511         11.0538         6.89307         6.89307 
       0.975621         10.9419         6.79161         6.79161 
       0.981748         10.7751         6.69195         6.69195 
       0.987916         10.6874         6.59365         6.59365 
        0.99406         10.5392         6.49771         6.49771 
        1.00019         10.3751         6.40386         6.40386 
        1.00632         10.3263         6.31196         6.31196 
        1.01246         10.2215         6.22172         6.22172 
        1.01859         10.0419         6.13339         6.13339 
        1.02471         9.98764         6.04689         6.04689 
        1.03085          9.8809         5.96176         5.96176 
        1.03698         9.70413         5.87845         5.87845 
        1.04314         9.64719         5.79637         5.79637 
        1.04929         9.51602         5.71606         5.71606 
        1.05541          9.3933         5.63759         5.63759 
        1.06154         9.33107          5.5604          5.5604 
        1.06769         9.26694         5.48454         5.48454 
        1.07382         9.14064         5.41035         5.41035 
        1.07993         9.05075          5.3377          5.3377 
        1.08607         8.94895         5.26609         5.26609 
        1.09222         8.87394         5.19572         5.19572 
        1.09836         8.75532         5.12672         5.12672 
        1.10449         8.68632         5.05906         5.05906 
        1.11063         8.57195         4.99254         4.99254 
        1.11677         8.52848         4.92725         4.92725 
         1.1229         8.46455         4.86324         4.86324 
        1.12903         8.34488          4.8003          4.8003 
        1.13518         8.23606         4.73844         4.73844 
        1.14131         8.18668         4.67769         4.67769 
        1.14745         8.10364         4.61805         4.61805 
        1.15359         8.04252         4.55944         4.55944 
        1.15973         7.95098         4.50182         4.50182 
        1.16584         7.83027         4.44545         4.44545 
        1.17197          7.7911         4.38997         4.38997 
        1.17811         7.72955         4.33527         4.33527 
        1.18424         7.64856         4.28166         4.28166 
        1.19038         7.60502          4.2288          4.2288 
        1.19652         7.51586         4.17685         4.17685 
        1.20267         7.43658         4.12578         4.12578 
        1.20881         7.40093         4.07557         4.07557 
        1.21495         7.33377         4.02627         4.02627 
        1.22108         7.23698          3.9778          3.9778 
         1.2272         7.17468         3.93024         3.93024 
        1.23334         7.10663         3.88334         3.88334 
        1.23949         7.03332          3.8371          3.8371 
        1.24562         6.99401         3.79173         3.79173 
        1.25174         6.94145         3.74717         3.74717 
        1.25789         6.87264         3.70318         3.70318 
        1.26402         6.84195         3.65998         3.65998 
        1.27014         6.76532         3.61758         3.61758 
        1.27628         6.67706         3.57571         3.57571 
        1.28244         6.61664         3.53443         3.53443 
        1.28858         6.60907         3.49386         3.49386 
        1.29471         6.52797         3.45401         3.45401 
        1.30084         6.45539         3.41483         3.41483 
        1.30697         6.43155         3.37619         3.37619 
        1.31312         6.33476         3.33809         3.33809 
        1.31925         6.28322          3.3007          3.3007 
        1.32537         6.24518         3.26392         3.26392 
        1.33151         6.21036         3.22757         3.22757 
        1.33765         6.14477         3.19179         3.19179 
        1.34378         6.09278         3.15663         3.15663 
        1.34992          6.0402         3.12197         3.12197 
        1.35606         6.00173         3.08775         3.08775 
         1.3622         5.96049         3.05411         3.05411 
        1.36833          5.8888         3.02105         3.02105 
        1.37445         5.85637          2.9885          2.9885 
        1.38059         5.82026         2.95632         2.95632 
        1.38675         5.75947         2.92455         2.92455 
        1.39288         5.73483         2.89336         2.89336 
        1.39901         5.66541         2.86265         2.86265 
        1.40515         5.63614         2.83231         2.83231 
         1.4113         5.58608         2.80242         2.80242 
        1.41742         5.54166         2.77307         2.77307 
        1.42355         5.49175          2.7441          2.7441 
         1.4297          5.4631         2.71544         2.71544 
        1.43585         5.43108         2.68721         2.68721 
        1.44198         5.39343         2.65949         2.65949 
        1.44809         5.34365         2.63221         2.63221 
        1.45423         5.29615         2.60521         2.60521 
        1.46036         5.25419         2.57864         2.57864 
        1.46649         5.22736         2.55242         2.55242 
        1.47263         5.17289         2.52656         2.52656 
        1.47877         5.13662         2.50105         2.50105 
        1.48491          5.1074         2.47586         2.47586 
        1.49104         5.06856         2.45107         2.45107 
        1.49718         5.03316          2.4266          2.4266 
        1.50333         4.99712         2.40243         2.40243 
        1.50947         4.95123         2.37863         2.37863 
         1.5156         4.92578         2.35519         2.35519 
        1.52172         4.89794         2.33206         2.33206 
        1.52787         4.85644          2.3092          2.3092 
          1.534           4.818         2.28667         2.28667 
        1.54013         4.78749         2.26446         2.26446 
        1.54627           4.744         2.24251         2.24251 
        1.55241         4.71269         2.22084         2.22084 
        1.55855         4.69171          2.1995          2.1995 
        1.56467         4.65037         2.17849         2.17849 
         1.5708         4.63135         2.15769         2.15769 
        1.57695         4.58795         2.13714         2.13714 
        1.58308         4.54793          2.1169          2.1169 
        1.58922         4.53287          2.0969          2.0969 
        1.59535         4.50864         2.07718         2.07718 
         1.6015         4.46256         2.05767         2.05767 
        1.60764         4.42728         2.03843         2.03843 
        1.61376         4.41107         2.01949         2.01949 
        1.61989         4.37575         2.00077         2.00077 
        1.62604          4.3489         1.98224         1.98224 
        1.63218          4.3304         1.96396         1.96396 
        1.63831         4.29472         1.94596         1.94596 
        1.64444         4.26774         1.92817         1.92817 
        1.65059         4.22105         1.91056         1.91056 
        1.65673         4.22032         1.89319         1.89319 
        1.66285         4.17159         1.87608         1.87608 
        1.66898         4.14675         1.85918         1.85918 
        1.67512         4.12893         1.84246         1.84246 
        1.68127         4.09704         1.82592         1.82592 
         1.6874         4.07708         1.80962         1.80962 
        1.69353         4.04127         1.79354         1.79354 
        1.69967         4.02591          1.7776          1.7776 
        1.70581         4.00235         1.76187         1.76187 
        1.71193          3.9659         1.74639         1.74639 
        1.71806         3.94784         1.73106         1.73106 
        1.72421         3.92193         1.71589         1.71589 
        1.73035         3.90464         1.70091         1.70091 
        1.73649         3.87788         1.68612         1.68612 
        1.74262         3.84716         1.67151         1.67151 
        1.74876         3.83086         1.65706         1.65706 
        1.75489         3.80943         1.64282         1.64282 
        1.76101         3.77721         1.62875         1.62875 
        1.76715         3.76203         1.61482         1.61482 
        1.77329         3.73398         1.60103         1.60103 
        1.77943         3.70658         1.58741         1.58741 
        1.78557         3.69415         1.57395         1.57395 
        1.79171         3.67193         1.56066         1.56066 
        1.79785         3.64534         1.54751         1.54751 
        1.80399         3.62196         1.53452         1.53452 
        1.81012         3.60289         1.52169         1.52169 
        1.81625         3.58075         1.50901         1.50901 
        1.82239         3.56396         1.49646         1.49646 
        1.82853         3.53532         1.48406         1.48406 
        1.83466         3.51882         1.47181         1.47181 
        1.84078         3.50449         1.45971         1.45971 
        1.84692         3.48822         1.44773         1.44773 
        1.85306          3.4581         1.43587         1.43587 
         1.8592         3.43612         1.42415         1.42415 
        1.86533         3.41675         1.41258         1.41258 
        1.87147         3.40045         1.40112         1.40112 
        1.87761         3.38195         1.38978         1.38978 
