# k  (h/Mpc)    P(k)  (Mpc/h)^3    P_linear(k)  (Mpc/h)^3     P_NL(k)  ShotnoiseSubtracted = false
     0.00783031         10599.6         10741.9         10741.9 
       0.013688         12597.1         12505.8         12505.8 
       0.019231         12097.8         12059.9         12059.9 
      0.0249154         10491.6         10646.3         10646.3 
      0.0312784         8778.33         8819.13         8819.13 
      0.0375637          7321.8         7285.05         7285.05 
      0.0433917         6208.24         6256.99         6256.99 
      0.0492413         5566.12         5567.78         5567.78 
      0.0555754          4984.9         5073.87         5073.87 
      0.0619321         4723.16         4684.34         4684.34 
       0.067871         4252.61         4310.42         4310.42 
      0.0738098         3839.83         3887.07         3887.07 
      0.0800417         3351.67         3409.27         3409.27 
      0.0862327          2944.7         2954.58         2954.58 
      0.0921407         2624.26         2587.19         2587.19 
      0.0982031         2323.18         2302.16         2302.16 
       0.104506          2174.7         2100.96         2100.96 
       0.110769         2029.15         1970.93         1970.93 
       0.116806         1918.61         1877.51         1877.51 
       0.122832         1831.12         1785.09         1785.09 
       0.129052         1688.04          1671.3          1671.3 
       0.135211         1566.24         1537.55         1537.55 
       0.141259         1458.24         1396.82         1396.82 
       0.147318         1341.78         1262.69         1262.69 
       0.153489         1216.81         1146.94         1146.94 
       0.159709            1142         1058.06         1058.06 
       0.165845         1093.47         995.877         995.877 
       0.171974          1036.5         951.392         951.392 
       0.178125         993.375         914.407         914.407 
       0.184229         952.875         876.498         876.498 
        0.19034         887.702         832.361         832.361 
       0.196428         859.641         781.975         781.975 
       0.202534         820.299         728.477         728.477 
       0.208729          768.51         676.286         676.286 
       0.214876         723.614         630.898         630.898 
       0.220989         695.319         594.175         594.175 
       0.227147         661.717         565.331         565.331 
        0.23329         635.917         542.516         542.516 
       0.239377         621.386         522.803         522.803 
       0.245482         580.264         503.203         503.203 
       0.251667          572.56         481.871         481.871 
       0.257832         549.302         458.854         458.854 
       0.263955          527.26          435.15          435.15 
       0.270079         504.601          412.08          412.08 
        0.27624         495.116         390.853         390.853 
       0.282372         474.678          372.49          372.49 
        0.28843         460.887         357.093         357.093 
       0.294538         438.315         343.767         343.767 
       0.300721         434.557         331.656         331.656 
        0.30691         414.188         320.008         320.008 
       0.313033         404.715         308.376         308.376 
       0.319153         390.454         296.428         296.428 
       0.325316          379.13         284.278         284.278 
        0.33145         366.235          272.44          272.44 
       0.337538          359.85         261.359         261.359 
       0.343633           347.5         251.211         251.211 
       0.349808         335.315          241.96          241.96 
       0.355968         331.027         233.651         233.651 
       0.362074         323.818         226.056         226.056 
       0.368217         314.498         218.804         218.804 
       0.374374         301.503         211.697         211.697 
       0.380519         298.185         204.661         204.661 
       0.386598         290.101          197.78          197.78 
       0.392688         286.552         191.036         191.036 
        0.39888           278.6         184.463         184.463 
       0.405048         271.431         178.299         178.299 
       0.411186         265.847         172.568         172.568 
       0.417313         260.551         167.247         167.247 
       0.423458         254.817         162.239         162.239 
       0.429607         249.532         157.466         157.466 
       0.435692         242.438          152.91          152.91 
       0.441815         240.072          148.45          148.45 
       0.447964          234.81         144.069         144.069 
       0.454126         226.398         139.797         139.797 
       0.460267         223.137         135.691         135.691 
       0.466387         220.458         131.773         131.773 
        0.47254         214.999         128.017         128.017 
       0.478662         214.107         124.466         124.466 
       0.484765         206.766         121.101         121.101 
       0.490885         203.932         117.872         117.872 
       0.497035         200.561         114.743         114.743 
       0.503198         195.816         111.708         111.708 
       0.509342         193.586         108.775         108.775 
       0.515458         190.782         105.944         105.944 
       0.521598         186.839          103.19          103.19 
       0.527764         184.127         100.519         100.519 
       0.533884         181.587          97.966          97.966 
           0.54         178.548         95.5174         95.5174 
       0.546137         177.086         93.1573         93.1573 
       0.552299         173.435         90.8752         90.8752 
       0.558452          171.45         88.6749         88.6749 
       0.564573         168.669          86.555          86.555 
       0.570708         165.123         84.4963         84.4963 
       0.576825         162.832         82.5078         82.5078 
       0.582926         160.222         80.5864         80.5864 
       0.589034          158.31         78.7224         78.7224 
       0.595184         156.278         76.9048         76.9048 
       0.601379         154.314         75.1329         75.1329 
       0.607522         151.242         73.4326         73.4326 
       0.613639         150.038         71.7944         71.7944 
       0.619772         146.894         70.2049         70.2049 
       0.625918         145.392         68.6622         68.6622 
       0.632068         143.465         67.1657         67.1657 
       0.638161         142.277          65.727          65.727 
         0.6443         140.183          64.319          64.319 
       0.650464         138.616         62.9458         62.9458 
       0.656582         136.692         61.6218         61.6218 
       0.662703         135.323         60.3352         60.3352 
       0.668861         133.006         59.0781         59.0781 
       0.675024         131.177         57.8565         57.8565 
       0.681124         130.395         56.6826         56.6826 
       0.687237         128.163         55.5398         55.5398 
       0.693381         126.199         54.4237         54.4237 
       0.699536         125.326         53.3368         53.3368 
       0.705665         124.735         52.2846         52.2846 
       0.711789         122.191         51.2617         51.2617 
       0.717957          121.78         50.2591         50.2591 
        0.72409         119.858         49.2887         49.2887 
       0.730186         118.024         48.3497         48.3497 
       0.736317         117.147         47.4301         47.4301 
       0.742472         116.235         46.5309         46.5309 
       0.748622          115.02          45.656          45.656 
        0.75476         113.845         44.8054         44.8054 
       0.760888         112.294          43.978          43.978 
       0.767043         111.751         43.1682         43.1682 
       0.773185         110.468         42.3807         42.3807 
       0.779291          108.61         41.6173         41.6173 
       0.785407         108.067         40.8718         40.8718 
       0.791564         107.044         40.1399         40.1399 
       0.797719         105.153         39.4264         39.4264 
       0.803834         104.653         38.7349         38.7349 
       0.809972         103.421         38.0575         38.0575 
       0.816124         102.988         37.3948         37.3948 
       0.822261         101.856         36.7498         36.7498 
       0.828378         100.886          36.122          36.122 
       0.834502         100.453         35.5083         35.5083 
       0.840667         98.8537          34.905          34.905 
       0.846816         97.7492         34.3174         34.3174 
       0.852925         97.1959         33.7471         33.7471 
       0.859047         95.9181         33.1887         33.1887 
       0.865192         95.1778          32.641          32.641 
       0.871341         94.3588         32.1054         32.1054 
       0.877463         93.2387         31.5843         31.5843 
       0.883569         92.8578         31.0761         31.0761 
       0.889708         91.9867         30.5765         30.5765 
       0.895864          91.042         30.0867         30.0867 
       0.902008          90.362         29.6086         29.6086 
       0.908149         89.7869         29.1413         29.1413 
       0.914301         88.7771         28.6833         28.6833 
       0.920448         88.1128         28.2356         28.2356 
       0.926574         87.3802          27.799          27.799 
       0.932687         87.2435         27.3726         27.3726 
       0.938823         85.7778         26.9537         26.9537 
       0.944975           84.92         26.5426         26.5426 
       0.951105         84.4402         26.1415         26.1415 
       0.957225         83.5329         25.7494         25.7494 
       0.963368         82.8527          25.364          25.364 
       0.969511         82.6497         24.9865         24.9865 
       0.975621         82.0993         24.6188         24.6188 
       0.981748         81.4105         24.2575         24.2575 
       0.987916         80.5035         23.9012         23.9012 
        0.99406         79.9296         23.5534         23.5534 
        1.00019         79.4605         23.2132         23.2132 
        1.00632         78.7629         22.8801         22.8801 
        1.01246          78.274          22.553          22.553 
        1.01859         77.2538         22.2328         22.2328 
        1.02471         76.9355         21.9192         21.9192 
        1.03085         76.2169         21.6107         21.6107 
        1.03698         75.8431         21.3087         21.3087 
        1.04314         75.0953         21.0111         21.0111 
        1.04929         74.6098           20.72           20.72 
        1.05541         73.9171         20.4356         20.4356 
        1.06154         73.6654         20.1558         20.1558 
        1.06769         73.2401         19.8808         19.8808 
        1.07382         72.7611         19.6119         19.6119 
        1.07993          72.179         19.3485         19.3485 
        1.08607         71.5975         19.0889         19.0889 
        1.09222         71.3208         18.8339         18.8339 
        1.09836         70.6604         18.5837         18.5837 
        1.10449         70.2312         18.3385         18.3385 
        1.11063         69.6118         18.0974         18.0974 
        1.11677         69.2977         17.8607         17.8607 
         1.1229         68.5472         17.6286         17.6286 
        1.12903         67.8969         17.4005         17.4005 
        1.13518         68.0272         17.1762         17.1762 
        1.14131         67.5068         16.9561         16.9561 
        1.14745         66.8093         16.7399         16.7399 
        1.15359         66.4712         16.5274         16.5274 
        1.15973          66.024         16.3185         16.3185 
        1.16584         65.5097         16.1142         16.1142 
        1.17197         65.1308         15.9131         15.9131 
        1.17811          64.727         15.7148         15.7148 
        1.18424         64.2649         15.5205         15.5205 
        1.19038         63.8687         15.3289         15.3289 
        1.19652         63.5298         15.1406         15.1406 
        1.20267         62.8744         14.9554         14.9554 
        1.20881         62.6002         14.7734         14.7734 
        1.21495          62.116         14.5947         14.5947 
        1.22108         61.8804          14.419          14.419 
         1.2272         61.1719         14.2466         14.2466 
        1.23334         60.9571         14.0766         14.0766 
        1.23949         60.6457          13.909          13.909 
        1.24562         60.1591         13.7446         13.7446 
        1.25174         59.8505          13.583          13.583 
        1.25789         59.6061         13.4236         13.4236 
        1.26402         59.1996          13.267          13.267 
        1.27014         58.6382         13.1133         13.1133 
        1.27628         58.3763         12.9615         12.9615 
        1.28244         57.9368         12.8119         12.8119 
        1.28858         57.7536         12.6648         12.6648 
        1.29471         57.4537         12.5204         12.5204 
        1.30084         57.0432         12.3783         12.3783 
        1.30697         56.6456         12.2383         12.2383 
        1.31312         56.3073         12.1002         12.1002 
        1.31925         56.0081         11.9646         11.9646 
        1.32537         55.7499         11.8313         11.8313 
        1.33151         55.1862         11.6995         11.6995 
        1.33765         54.9691         11.5698         11.5698 
        1.34378         54.6194         11.4424         11.4424 
        1.34992         54.3749         11.3167         11.3167 
        1.35606         54.0515         11.1927         11.1927 
         1.3622          53.544         11.0708         11.0708 
        1.36833         53.3936         10.9509         10.9509 
        1.37445         53.0597         10.8329         10.8329 
        1.38059         52.6644         10.7163         10.7163 
        1.38675         52.3817         10.6011         10.6011 
        1.39288         52.0621         10.4881         10.4881 
        1.39901         51.8703         10.3767         10.3767 
        1.40515         51.5087         10.2668         10.2668 
         1.4113         51.2775         10.1584         10.1584 
        1.41742         51.1565         10.0521         10.0521 
        1.42355         50.6379         9.94701         9.94701 
         1.4297         50.4621         9.84315         9.84315 
        1.43585         50.0886         9.74081         9.74081 
        1.44198          49.778         9.64032         9.64032 
        1.44809         49.5982         9.54143         9.54143 
        1.45423         49.3076         9.44356         9.44356 
        1.46036         49.1003         9.34724         9.34724 
        1.46649          48.814         9.25222         9.25222 
        1.47263         48.4314         9.15845         9.15845 
        1.47877         48.2242         9.06601         9.06601 
        1.48491         48.0883          8.9747          8.9747 
        1.49104         47.7285         8.88484         8.88484 
        1.49718         47.2964         8.79613         8.79613 
        1.50333         47.1891         8.70849         8.70849 
        1.50947         46.9557         8.62222         8.62222 
         1.5156         46.6323         8.53725         8.53725 
        1.52172         46.4601         8.45342         8.45342 
        1.52787         46.3262         8.37055         8.37055 
          1.534         45.9308         8.28888         8.28888 
        1.54013         45.6792         8.20838         8.20838 
        1.54627         45.5316         8.12881         8.12881 
        1.55241         45.0923         8.05028         8.05028 
        1.55855           44.91         7.97289         7.97289 
        1.56467         44.5785         7.89674         7.89674 
         1.5708         44.5869         7.82136         7.82136 
        1.57695         44.3382         7.74685         7.74685 
        1.58308         43.9721         7.67348         7.67348 
        1.58922         43.8749         7.60101         7.60101 
        1.59535         43.7229          7.5295          7.5295 
         1.6015         43.2845         7.45881         7.45881 
        1.60764         43.1079         7.38906         7.38906 
        1.61376         42.8779         7.32039         7.32039 
        1.61989          42.628         7.25253         7.25253 
        1.62604         42.4731         7.18538         7.18538 
        1.63218         42.3798         7.11912         7.11912 
        1.63831         42.0356         7.05385         7.05385 
        1.64444         41.8171         6.98937         6.98937 
        1.65059         41.5951         6.92554         6.92554 
        1.65673         41.3956         6.86257         6.86257 
        1.66285         41.0954         6.80056         6.80056 
        1.66898         40.9705          6.7393          6.7393 
        1.67512         40.6762         6.67867         6.67867 
        1.68127         40.4652         6.61873         6.61873 
         1.6874         40.3289         6.55966         6.55966 
        1.69353         40.0836         6.50134         6.50134 
        1.69967         39.9118         6.44359         6.44359 
        1.70581         39.8013         6.38657         6.38657 
        1.71193         39.5964         6.33045         6.33045 
        1.71806         39.2017         6.27489         6.27489 
        1.72421         39.1077         6.21988         6.21988 
        1.73035         38.9294         6.16559         6.16559 
        1.73649         38.5872         6.11196         6.11196 
        1.74262         38.5288         6.05901         6.05901 
        1.74876          38.342         6.00665         6.00665 
        1.75489         38.1387         5.95501         5.95501 
        1.76101         37.9763           5.904           5.904 
        1.76715         37.7145         5.85351         5.85351 
        1.77329         37.5227         5.80355         5.80355 
        1.77943         37.3415         5.75414         5.75414 
        1.78557          37.196         5.70539         5.70539 
        1.79171         36.9959         5.65718         5.65718 
        1.79785         36.8133         5.60953         5.60953 
        1.80399          36.718         5.56243         5.56243 
        1.81012         36.4391         5.51593         5.51593 
        1.81625         36.1975         5.46998         5.46998 
        1.82239         36.1161         5.42449         5.42449 
        1.82853         35.8402         5.37953         5.37953 
        1.83466          35.684         5.33513         5.33513 
        1.84078         35.4517         5.29127         5.29127 
        1.84692         35.3001         5.24783         5.24783 
        1.85306         35.1169         5.20483         5.20483 
         1.8592         34.8959         5.16238         5.16238 
        1.86533         34.8044         5.12042         5.12042 
        1.87147         34.6679         5.07888         5.07888 
        1.87761         34.5105         5.03778         5.03778 
