# k  (h/Mpc)    P(k)  (Mpc/h)^3    P_linear(k)  (Mpc/h)^3     P_NL(k)  ShotnoiseSubtracted = false
     0.00783031         421.724          425.88          425.88 
       0.013688          494.77          496.23          496.23 
       0.019231         478.573         478.696         478.696 
      0.0249154         421.323         422.657         422.657 
      0.0312784         350.485         350.157         350.157 
      0.0375637         290.179         289.267         289.267 
      0.0433917         248.685         248.456         248.456 
      0.0492413         221.457         221.095         221.095 
      0.0555754         201.136         201.486         201.486 
      0.0619321         186.491         186.021         186.021 
       0.067871         170.864         171.174         171.174 
      0.0738098         154.028         154.363         154.363 
      0.0800417         134.993          135.39          135.39 
      0.0862327         117.289         117.334         117.334 
      0.0921407          102.89         102.745         102.745 
      0.0982031         91.3991         91.4256         91.4256 
       0.104506         83.7718         83.4359         83.4359 
       0.110769         78.4552         78.2721         78.2721 
       0.116806         74.4513         74.5621         74.5621 
       0.122832          70.941         70.8919         70.8919 
       0.129052         66.2134         66.3731         66.3731 
       0.135211         60.9091         61.0618         61.0618 
       0.141259          55.527         55.4729         55.4729 
       0.147318         50.3517         50.1461         50.1461 
       0.153489         45.6772         45.5493         45.5493 
       0.159709         42.1545         42.0198         42.0198 
       0.165845         39.8462         39.5502         39.5502 
       0.171974         37.8374         37.7835         37.7835 
       0.178125         36.3957         36.3147         36.3147 
       0.184229         34.9335         34.8092         34.8092 
        0.19034         32.9927         33.0564         33.0564 
       0.196428          31.123         31.0554         31.0554 
       0.202534         29.1712         28.9308         28.9308 
       0.208729         27.0081         26.8581         26.8581 
       0.214876         25.1304         25.0555         25.0555 
       0.220989         23.8174         23.5971         23.5971 
       0.227147         22.5306         22.4516         22.4516 
        0.23329         21.6186         21.5456         21.5456 
       0.239377         20.8487         20.7627         20.7627 
       0.245482         20.0036         19.9843         19.9843 
       0.251667         19.2498         19.1371         19.1371 
       0.257832         18.3092          18.223          18.223 
       0.263955         17.3878         17.2816         17.2816 
       0.270079         16.4921         16.3654         16.3654 
        0.27624         15.7171         15.5224         15.5224 
       0.282372         14.9875         14.7931         14.7931 
        0.28843         14.3205         14.1817         14.1817 
       0.294538         13.7802         13.6524         13.6524 
       0.300721           13.35         13.1715         13.1715 
        0.30691         12.8276         12.7089         12.7089 
       0.313033         12.3639         12.2469         12.2469 
       0.319153         11.8035         11.7724         11.7724 
       0.325316         11.4505         11.2899         11.2899 
        0.33145         10.9577         10.8197         10.8197 
       0.337538         10.5213         10.3797         10.3797 
       0.343633         10.0904         9.97668         9.97668 
       0.349808         9.74701         9.60927         9.60927 
       0.355968         9.42445         9.27927         9.27927 
       0.362074         9.10404         8.97766         8.97766 
       0.368217         8.81287         8.68966         8.68966 
       0.374374         8.50066         8.40738         8.40738 
       0.380519         8.24985         8.12798         8.12798 
       0.386598         7.98662         7.85469         7.85469 
       0.392688         7.74193         7.58687         7.58687 
        0.39888         7.46209         7.32581         7.32581 
       0.405048         7.22553         7.08102         7.08102 
       0.411186          7.0015         6.85343         6.85343 
       0.417313         6.76932          6.6421          6.6421 
       0.423458          6.5819         6.44322         6.44322 
       0.429607          6.3723         6.25364         6.25364 
       0.435692         6.18967          6.0727          6.0727 
       0.441815         6.01441         5.89559         5.89559 
       0.447964         5.86573         5.72161         5.72161 
       0.454126         5.66336         5.55195         5.55195 
       0.460267         5.50563         5.38888         5.38888 
       0.466387         5.33279         5.23329         5.23329 
        0.47254         5.19621         5.08411         5.08411 
       0.478662         5.06573         4.94309         4.94309 
       0.484765         4.91378         4.80945         4.80945 
       0.490885         4.79066          4.6812          4.6812 
       0.497035         4.69221         4.55695         4.55695 
       0.503198         4.55587          4.4364          4.4364 
       0.509342         4.44534         4.31991         4.31991 
       0.515458         4.31872          4.2075          4.2075 
       0.521598          4.2128         4.09814         4.09814 
       0.527764          4.0944         3.99204         3.99204 
       0.533884         4.01344         3.89066         3.89066 
           0.54          3.9087         3.79341         3.79341 
       0.546137         3.81851         3.69968         3.69968 
       0.552299         3.72687         3.60905         3.60905 
       0.558452         3.62265         3.52167         3.52167 
       0.564573          3.5508         3.43748         3.43748 
       0.570708         3.46684         3.35572         3.35572 
       0.576825         3.37835         3.27675         3.27675 
       0.582926         3.31166         3.20044         3.20044 
       0.589034         3.21342         3.12641         3.12641 
       0.595184         3.14865         3.05423         3.05423 
       0.601379         3.07583         2.98386         2.98386 
       0.607522         3.01889         2.91633         2.91633 
       0.613639         2.96234         2.85127         2.85127 
       0.619772         2.88125         2.78815         2.78815 
       0.625918         2.82933         2.72688         2.72688 
       0.632068         2.77679         2.66744         2.66744 
       0.638161         2.70713         2.61031         2.61031 
         0.6443         2.64998         2.55439         2.55439 
       0.650464         2.58604         2.49986         2.49986 
       0.656582         2.54528         2.44727         2.44727 
       0.662703         2.49231         2.39618         2.39618 
       0.668861          2.4488         2.34625         2.34625 
       0.675024         2.39181         2.29774         2.29774 
       0.681124         2.34014         2.25112         2.25112 
       0.687237         2.30065         2.20573         2.20573 
       0.693381         2.25604          2.1614          2.1614 
       0.699536         2.19749         2.11824         2.11824 
       0.705665          2.1589         2.07645         2.07645 
       0.711789         2.12273         2.03583         2.03583 
       0.717957         2.07665         1.99601         1.99601 
        0.72409         2.03796         1.95747         1.95747 
       0.730186         2.00064         1.92018         1.92018 
       0.736317         1.97457         1.88366         1.88366 
       0.742472         1.93611         1.84795         1.84795 
       0.748622         1.89622          1.8132          1.8132 
        0.75476         1.85485         1.77942         1.77942 
       0.760888         1.82264         1.74656         1.74656 
       0.767043         1.80023          1.7144          1.7144 
       0.773185         1.75959         1.68312         1.68312 
       0.779291         1.73242         1.65281         1.65281 
       0.785407         1.70093          1.6232          1.6232 
       0.791564         1.67359         1.59413         1.59413 
       0.797719         1.64658          1.5658          1.5658 
       0.803834          1.6208         1.53833         1.53833 
       0.809972         1.59149         1.51143         1.51143 
       0.816124         1.55994         1.48511         1.48511 
       0.822261         1.53026          1.4595          1.4595 
       0.828378         1.50953         1.43456         1.43456 
       0.834502         1.48923         1.41019         1.41019 
       0.840667         1.45634         1.38623         1.38623 
       0.846816         1.43284          1.3629          1.3629 
       0.852925         1.41648         1.34025         1.34025 
       0.859047         1.39234         1.31807         1.31807 
       0.865192         1.36777         1.29632         1.29632 
       0.871341         1.34715         1.27505         1.27505 
       0.877463         1.32919         1.25435         1.25435 
       0.883569         1.30356         1.23417         1.23417 
       0.889708         1.28349         1.21433         1.21433 
       0.895864         1.26281         1.19488         1.19488 
       0.902008         1.24233         1.17589         1.17589 
       0.908149          1.2245         1.15733         1.15733 
       0.914301         1.20008         1.13914         1.13914 
       0.920448         1.18384         1.12136         1.12136 
       0.926574         1.16524         1.10402         1.10402 
       0.932687         1.14789         1.08709         1.08709 
       0.938823         1.13517         1.07045         1.07045 
       0.944975         1.11779         1.05412         1.05412 
       0.951105         1.10171         1.03819         1.03819 
       0.957225         1.08984         1.02262         1.02262 
       0.963368         1.07171         1.00732         1.00732 
       0.969511         1.05364        0.992326        0.992326 
       0.975621         1.03685         0.97772         0.97772 
       0.981748         1.02663        0.963372        0.963372 
       0.987916         1.00969        0.949222        0.949222 
        0.99406        0.993429        0.935409        0.935409 
        1.00019        0.982908        0.921899        0.921899 
        1.00632        0.965514        0.908669        0.908669 
        1.01246        0.952747        0.895678        0.895678 
        1.01859        0.941347        0.882963        0.882963 
        1.02471        0.927179         0.87051         0.87051 
        1.03085        0.916737        0.858255        0.858255 
        1.03698          0.9022        0.846261        0.846261 
        1.04314          0.8911        0.834446        0.834446 
        1.04929        0.877955        0.822884        0.822884 
        1.05541        0.867921        0.811587        0.811587 
        1.06154         0.85463        0.800475        0.800475 
        1.06769        0.843371        0.789555        0.789555 
        1.07382        0.832553        0.778874        0.778874 
        1.07993        0.819428        0.768416        0.768416 
        1.08607        0.813013        0.758106        0.758106 
        1.09222        0.799966        0.747976        0.747976 
        1.09836        0.792898        0.738043        0.738043 
        1.10449        0.782605        0.728302        0.728302 
        1.11063        0.769072        0.718726        0.718726 
        1.11677        0.758877        0.709326        0.709326 
         1.1229        0.750137        0.700111        0.700111 
        1.12903        0.740103        0.691052        0.691052 
        1.13518        0.732748        0.682145        0.682145 
        1.14131        0.721654          0.6734          0.6734 
        1.14745        0.708895        0.664814        0.664814 
        1.15359        0.703569        0.656376        0.656376 
        1.15973        0.692028        0.648081        0.648081 
        1.16584        0.688527        0.639967        0.639967 
        1.17197        0.678245         0.63198         0.63198 
        1.17811        0.671295        0.624105        0.624105 
        1.18424        0.664515        0.616387        0.616387 
        1.19038        0.653955        0.608778        0.608778 
        1.19652        0.645423          0.6013          0.6013 
        1.20267        0.640336        0.593947        0.593947 
        1.20881        0.630564        0.586719        0.586719 
        1.21495        0.625245        0.579622        0.579622 
        1.22108        0.617323        0.572644        0.572644 
         1.2272         0.61136        0.565797        0.565797 
        1.23334        0.602555        0.559046        0.559046 
        1.23949        0.595831        0.552388        0.552388 
        1.24562        0.589635        0.545858        0.545858 
        1.25174        0.583166        0.539442        0.539442 
        1.25789        0.576835         0.53311         0.53311 
        1.26402        0.568128        0.526891        0.526891 
        1.27014        0.562121        0.520786        0.520786 
        1.27628        0.558106         0.51476         0.51476 
        1.28244        0.548898        0.508817        0.508817 
        1.28858        0.543876        0.502976        0.502976 
        1.29471        0.538856         0.49724         0.49724 
        1.30084        0.531562        0.491598        0.491598 
        1.30697        0.525818        0.486036        0.486036 
        1.31312         0.51809        0.480551        0.480551 
        1.31925        0.514128        0.475169        0.475169 
        1.32537        0.509128        0.469874        0.469874 
        1.33151        0.504618        0.464641        0.464641 
        1.33765        0.498431         0.45949         0.45949 
        1.34378        0.491697        0.454428        0.454428 
        1.34992        0.487787        0.449439        0.449439 
        1.35606         0.48179        0.444513        0.444513 
         1.3622        0.477206         0.43967         0.43967 
        1.36833        0.471821        0.434911        0.434911 
        1.37445        0.465476        0.430224        0.430224 
        1.38059        0.461199        0.425592        0.425592 
        1.38675        0.459249        0.421018        0.421018 
        1.39288         0.45259        0.416528        0.416528 
        1.39901        0.447955        0.412107        0.412107 
        1.40515        0.443658        0.407739        0.407739 
         1.4113        0.438193        0.403436        0.403436 
        1.41742        0.433962        0.399212        0.399212 
        1.42355        0.431457         0.39504         0.39504 
         1.4297        0.425082        0.390915        0.390915 
        1.43585        0.421268        0.386851        0.386851 
        1.44198        0.418823         0.38286         0.38286 
        1.44809        0.412892        0.378933        0.378933 
        1.45423        0.409108        0.375046        0.375046 
        1.46036        0.404966        0.371221        0.371221 
        1.46649        0.401296        0.367447        0.367447 
        1.47263        0.396755        0.363723        0.363723 
        1.47877        0.392504        0.360052        0.360052 
        1.48491        0.389051        0.356425        0.356425 
        1.49104        0.384471        0.352857        0.352857 
        1.49718        0.381479        0.349334        0.349334 
        1.50333        0.377636        0.345853        0.345853 
        1.50947        0.374227        0.342427        0.342427 
         1.5156        0.370235        0.339052        0.339052 
        1.52172        0.366768        0.335723        0.335723 
        1.52787        0.363069        0.332432        0.332432 
          1.534        0.359919        0.329189        0.329189 
        1.54013        0.355689        0.325992        0.325992 
        1.54627        0.352794        0.322832        0.322832 
        1.55241        0.349206        0.319713        0.319713 
        1.55855        0.345743        0.316639        0.316639 
        1.56467          0.3439        0.313615        0.313615 
         1.5708        0.339602        0.310621        0.310621 
        1.57695        0.337115        0.307662        0.307662 
        1.58308         0.33352        0.304748        0.304748 
        1.58922        0.330679         0.30187         0.30187 
        1.59535        0.327394         0.29903         0.29903 
         1.6015        0.324421        0.296223        0.296223 
        1.60764        0.321775        0.293453        0.293453 
        1.61376        0.317926        0.290725        0.290725 
        1.61989        0.315768        0.288031        0.288031 
        1.62604        0.312883        0.285364        0.285364 
        1.63218        0.310403        0.282732        0.282732 
        1.63831        0.307711         0.28014         0.28014 
        1.64444        0.304488        0.277579        0.277579 
        1.65059        0.301825        0.275044        0.275044 
        1.65673        0.299148        0.272544        0.272544 
        1.66285        0.296677        0.270081        0.270081 
        1.66898        0.294608        0.267648        0.267648 
        1.67512        0.290918         0.26524         0.26524 
        1.68127         0.28841         0.26286         0.26286 
         1.6874         0.28688        0.260513        0.260513 
        1.69353        0.283682        0.258197        0.258197 
        1.69967         0.28145        0.255904        0.255904 
        1.70581        0.278745        0.253639        0.253639 
        1.71193        0.276577        0.251411        0.251411 
        1.71806        0.274002        0.249204        0.249204 
        1.72421        0.271918        0.247019        0.247019 
        1.73035        0.269129        0.244863        0.244863 
        1.73649        0.267618        0.242733        0.242733 
        1.74262        0.265048         0.24063         0.24063 
        1.74876        0.262476        0.238551        0.238551 
        1.75489         0.26045          0.2365          0.2365 
        1.76101        0.257944        0.234474        0.234474 
        1.76715        0.255941        0.232469        0.232469 
        1.77329        0.253858        0.230485        0.230485 
        1.77943        0.251362        0.228523        0.228523 
        1.78557        0.249754        0.226587        0.226587 
        1.79171        0.247774        0.224672        0.224672 
        1.79785        0.245544         0.22278         0.22278 
        1.80399        0.243533        0.220909        0.220909 
        1.81012        0.241639        0.219062        0.219062 
        1.81625        0.239594        0.217238        0.217238 
        1.82239        0.238016        0.215431        0.215431 
        1.82853        0.235204        0.213646        0.213646 
        1.83466        0.233687        0.211882        0.211882 
        1.84078        0.231616         0.21014         0.21014 
        1.84692        0.229964        0.208415        0.208415 
        1.85306        0.228569        0.206707        0.206707 
         1.8592        0.226362        0.205021        0.205021 
        1.86533        0.224828        0.203355        0.203355 
        1.87147        0.222814        0.201705        0.201705 
        1.87761         0.22131        0.200073        0.200073 
