# k  (h/Mpc)    Pcb(k)  (Mpc/h)^3    Pcb_linear(k) (Mpc/h)^3    Pcb_NL(k) (Mpc/h)^3   ShotnoiseSubtracted = false
     0.00783031         6871.35         6956.99         6956.99 
       0.013688         8140.57         8100.49         8100.49 
       0.019231         7832.71          7812.2          7812.2 
      0.0249154         6819.27         6896.69         6896.69 
      0.0312784         5698.66         5713.18         5713.18 
      0.0375637         4743.67         4719.44         4719.44 
      0.0433917         4033.49         4053.47         4053.47 
      0.0492413         3609.87            3607            3607 
      0.0555754         3245.76         3287.04         3287.04 
      0.0619321          3059.5         3034.71         3034.71 
       0.067871         2767.03         2792.47         2792.47 
      0.0738098         2496.54         2518.21         2518.21 
      0.0800417         2180.93         2208.68         2208.68 
      0.0862327         1910.08         1914.11         1914.11 
      0.0921407         1693.77          1676.1          1676.1 
      0.0982031         1499.41         1491.44         1491.44 
       0.104506         1396.58          1361.1          1361.1 
       0.110769         1304.35         1276.86         1276.86 
       0.116806         1232.51         1216.34         1216.34 
       0.122832         1177.74         1156.47         1156.47 
       0.129052         1088.78         1082.75         1082.75 
       0.135211         1007.41         996.103         996.103 
       0.141259          932.26         904.929         904.929 
       0.147318         854.133         818.032         818.032 
       0.153489         774.018         743.042         743.042 
       0.159709         722.977         685.466         685.466 
       0.165845         690.139         645.179         645.179 
       0.171974         652.936          616.36          616.36 
       0.178125         627.327         592.398         592.398 
       0.184229         602.544         567.839         567.839 
        0.19034         561.146         539.245         539.245 
       0.196428         540.693         506.602         506.602 
       0.202534         514.575         471.944         471.944 
       0.208729         479.649         438.132         438.132 
       0.214876         448.814         408.727         408.727 
       0.220989         430.455         384.937         384.937 
       0.227147         407.697         366.251         366.251 
        0.23329         391.784          351.47          351.47 
       0.239377         381.678         338.699         338.699 
       0.245482         357.851         326.001         326.001 
       0.251667         351.244         312.181         312.181 
       0.257832         337.133         297.269         297.269 
       0.263955         322.168         281.913         281.913 
       0.270079         307.668         266.966         266.966 
        0.27624         299.938         253.215         253.215 
       0.282372         287.521         241.318         241.318 
        0.28843         276.762         231.343         231.343 
       0.294538         264.393          222.71          222.71 
       0.300721         260.769         214.864         214.864 
        0.30691         248.612         207.318         207.318 
       0.313033         241.902         199.782         199.782 
       0.319153         231.503         192.042         192.042 
       0.325316         225.666          184.17          184.17 
        0.33145         216.894           176.5           176.5 
       0.337538         212.527         169.322         169.322 
       0.343633         204.735         162.747         162.747 
       0.349808         197.856         156.754         156.754 
       0.355968         194.108         151.371         151.371 
       0.362074         188.672         146.451         146.451 
       0.368217         183.044         141.753         141.753 
       0.374374          176.77         137.148         137.148 
       0.380519         173.329          132.59          132.59 
       0.386598         168.429         128.132         128.132 
       0.392688         165.356         123.763         123.763 
        0.39888         160.784         119.505         119.505 
       0.405048         156.418         115.511         115.511 
       0.411186         152.717         111.799         111.799 
       0.417313         149.106         108.351         108.351 
       0.423458         145.558         105.107         105.107 
       0.429607         141.947         102.014         102.014 
       0.435692         137.375         99.0627         99.0627 
       0.441815         135.998         96.1734         96.1734 
       0.447964         133.225         93.3355         93.3355 
       0.454126         127.269         90.5678         90.5678 
       0.460267         125.675         87.9077         87.9077 
       0.466387         123.659         85.3696         85.3696 
        0.47254         120.728          82.936          82.936 
       0.478662          119.45         80.6358         80.6358 
       0.484765         115.735         78.4555         78.4555 
       0.490885          113.67         76.3635         76.3635 
       0.497035         111.983         74.3366         74.3366 
       0.503198         108.718           72.37           72.37 
       0.509342          106.69         70.4698         70.4698 
       0.515458         104.967         68.6361         68.6361 
       0.521598          103.21         66.8521         66.8521 
       0.527764         101.544         65.1213         65.1213 
       0.533884         99.8471         63.4676         63.4676 
           0.54         97.7353         61.8811         61.8811 
       0.546137         96.6389         60.3522         60.3522 
       0.552299         94.9629         58.8737         58.8737 
       0.558452         92.8727         57.4482         57.4482 
       0.564573         91.1604         56.0749         56.0749 
       0.570708         89.6715         54.7411         54.7411 
       0.576825         88.3394         53.4528         53.4528 
       0.582926         86.4772          52.208          52.208 
       0.589034         84.9123         51.0005         51.0005 
       0.595184         83.6915         49.8229         49.8229 
       0.601379         82.5394          48.675          48.675 
       0.607522         80.5426         47.5734         47.5734 
       0.613639         80.1527         46.5122         46.5122 
       0.619772          78.372         45.4824         45.4824 
       0.625918         77.3303         44.4829         44.4829 
       0.632068         76.4202         43.5134         43.5134 
       0.638161         75.3673         42.5813         42.5813 
         0.6443         74.3073         41.6692         41.6692 
       0.650464         73.2616         40.7796         40.7796 
       0.656582         72.1427         39.9218         39.9218 
       0.662703         70.7914         39.0883         39.0883 
       0.668861          69.886         38.2739         38.2739 
       0.675024         68.9348         37.4825         37.4825 
       0.681124          68.058         36.7219         36.7219 
       0.687237         66.7254         35.9815         35.9815 
       0.693381          65.963         35.2585         35.2585 
       0.699536         65.0914         34.5544         34.5544 
       0.705665         65.1606         33.8727         33.8727 
       0.711789         63.3377           33.21           33.21 
       0.717957          62.824         32.5604         32.5604 
        0.72409         61.8785         31.9318         31.9318 
       0.730186         60.8238         31.3235         31.3235 
       0.736317         60.6079         30.7277         30.7277 
       0.742472         59.7767         30.1452         30.1452 
       0.748622         59.0559         29.5783         29.5783 
        0.75476         58.3581         29.0273         29.0273 
       0.760888         57.4558         28.4912         28.4912 
       0.767043         56.8708         27.9666         27.9666 
       0.773185         56.1106         27.4564         27.4564 
       0.779291          55.641         26.9619         26.9619 
       0.785407         55.1327         26.4789         26.4789 
       0.791564         54.3752         26.0047         26.0047 
       0.797719         53.4199         25.5425         25.5425 
       0.803834         53.1837         25.0945         25.0945 
       0.809972         52.1728         24.6556         24.6556 
       0.816124         51.7407         24.2263         24.2263 
       0.822261         51.2919         23.8084         23.8084 
       0.828378         50.8922         23.4017         23.4017 
       0.834502         50.2776         23.0041         23.0041 
       0.840667         49.7106         22.6133         22.6133 
       0.846816         49.0022         22.2326         22.2326 
       0.852925         48.5992         21.8631         21.8631 
       0.859047         47.8951         21.5013         21.5013 
       0.865192         47.5319         21.1466         21.1466 
       0.871341         47.2594         20.7996         20.7996 
       0.877463         46.3655          20.462          20.462 
       0.883569         46.0202         20.1327         20.1327 
       0.889708         45.7117         19.8091         19.8091 
       0.895864         45.2338         19.4917         19.4917 
       0.902008         44.7893          19.182          19.182 
       0.908149         44.3938         18.8792         18.8792 
       0.914301          43.994         18.5825         18.5825 
       0.920448         43.5606         18.2925         18.2925 
       0.926574         43.0471         18.0097         18.0097 
       0.932687         42.7752         17.7334         17.7334 
       0.938823         42.0861          17.462          17.462 
       0.944975         41.8885         17.1956         17.1956 
       0.951105          41.428         16.9358         16.9358 
       0.957225         40.9194         16.6818         16.6818 
       0.963368          40.881         16.4321         16.4321 
       0.969511          40.451         16.1876         16.1876 
       0.975621          40.125         15.9493         15.9493 
       0.981748         39.6255         15.7153         15.7153 
       0.987916         39.2643         15.4844         15.4844 
        0.99406         39.0432         15.2591         15.2591 
        1.00019         38.5601         15.0387         15.0387 
        1.00632         38.3461         14.8229         14.8229 
        1.01246         38.0637          14.611          14.611 
        1.01859         37.4776         14.4036         14.4036 
        1.02471         37.4329         14.2004         14.2004 
        1.03085          37.073         14.0005         14.0005 
        1.03698         36.6424         13.8049         13.8049 
        1.04314         36.3358         13.6121         13.6121 
        1.04929         36.0656         13.4235         13.4235 
        1.05541         35.6758         13.2392         13.2392 
        1.06154         35.6021          13.058          13.058 
        1.06769         35.1973         12.8798         12.8798 
        1.07382         35.0053         12.7056         12.7056 
        1.07993         34.7854          12.535          12.535 
        1.08607          34.387         12.3668         12.3668 
        1.09222         34.2078         12.2016         12.2016 
        1.09836         33.9196         12.0395         12.0395 
        1.10449         33.6236         11.8806         11.8806 
        1.11063         33.2235         11.7244         11.7244 
        1.11677         33.0356         11.5711         11.5711 
         1.1229         32.8556         11.4207         11.4207 
        1.12903         32.3775          11.273          11.273 
        1.13518         32.4236         11.1277         11.1277 
        1.14131         32.2165          10.985          10.985 
        1.14745         31.7406          10.845          10.845 
        1.15359         31.7106         10.7073         10.7073 
        1.15973         31.3046          10.572          10.572 
        1.16584         31.0948         10.4396         10.4396 
        1.17197         30.9629         10.3093         10.3093 
        1.17811         30.7077         10.1809         10.1809 
        1.18424         30.4128          10.055          10.055 
        1.19038         30.2839         9.93084         9.93084 
        1.19652         30.1596         9.80885         9.80885 
        1.20267         29.8903         9.68891         9.68891 
        1.20881         29.6344           9.571           9.571 
        1.21495         29.3912         9.45524         9.45524 
        1.22108         29.2203          9.3414          9.3414 
         1.2272         28.8757          9.2297          9.2297 
        1.23334         28.7915         9.11957         9.11957 
        1.23949         28.7148         9.01097         9.01097 
        1.24562         28.3927         8.90444         8.90444 
        1.25174         28.2873         8.79979         8.79979 
        1.25789         28.0676          8.6965          8.6965 
        1.26402         27.8613         8.59505         8.59505 
        1.27014          27.577         8.49546         8.49546 
        1.27628         27.4539         8.39715         8.39715 
        1.28244         27.2636         8.30021         8.30021 
        1.28858         27.1475         8.20493         8.20493 
        1.29471         27.0297         8.11135         8.11135 
        1.30084         26.8406         8.01932         8.01932 
        1.30697          26.592         7.92858         7.92858 
        1.31312         26.3665         7.83912         7.83912 
        1.31925         26.2574         7.75131         7.75131 
        1.32537         26.1226         7.66494         7.66494 
        1.33151         25.9032         7.57957         7.57957 
        1.33765         25.8327         7.49555         7.49555 
        1.34378         25.6441         7.41297         7.41297 
        1.34992         25.3984         7.33158         7.33158 
        1.35606         25.2607         7.25123         7.25123 
         1.3622         25.1116         7.17223         7.17223 
        1.36833         24.9225         7.09459         7.09459 
        1.37445         24.8957         7.01814         7.01814 
        1.38059         24.6995         6.94258         6.94258 
        1.38675          24.439         6.86796         6.86796 
        1.39288         24.4179         6.79472         6.79472 
        1.39901         24.1812         6.72259         6.72259 
        1.40515         24.0632         6.65134         6.65134 
         1.4113         23.9451         6.58115         6.58115 
        1.41742         23.7225         6.51224         6.51224 
        1.42355         23.6468         6.44419         6.44419 
         1.4297         23.4962         6.37691         6.37691 
        1.43585         23.4379         6.31061         6.31061 
        1.44198         23.1735          6.2455          6.2455 
        1.44809         23.0892         6.18144         6.18144 
        1.45423         22.9771         6.11803         6.11803 
        1.46036         22.8798         6.05563         6.05563 
        1.46649         22.7073         5.99407         5.99407 
        1.47263         22.5565         5.93332         5.93332 
        1.47877         22.4902         5.87344         5.87344 
        1.48491         22.3868         5.81428         5.81428 
        1.49104         22.2271         5.75606         5.75606 
        1.49718         22.0139         5.69859         5.69859 
        1.50333         21.9726         5.64182         5.64182 
        1.50947         21.8834         5.58593         5.58593 
         1.5156         21.7211         5.53088         5.53088 
        1.52172         21.5596         5.47657         5.47657 
        1.52787         21.5359         5.42288         5.42288 
          1.534          21.357         5.36997         5.36997 
        1.54013         21.1946         5.31782         5.31782 
        1.54627         21.1359         5.26627         5.26627 
        1.55241         20.9722         5.21539         5.21539 
        1.55855         20.8803         5.16526         5.16526 
        1.56467         20.7196         5.11592         5.11592 
         1.5708         20.7102         5.06709         5.06709 
        1.57695         20.4813         5.01881         5.01881 
        1.58308          20.472         4.97128         4.97128 
        1.58922         20.3567         4.92433         4.92433 
        1.59535         20.2107           4.878           4.878 
         1.6015          20.091         4.83221         4.83221 
        1.60764         20.0211         4.78702         4.78702 
        1.61376         19.8583         4.74253         4.74253 
        1.61989          19.732         4.69857         4.69857 
        1.62604         19.7146         4.65507         4.65507 
        1.63218         19.5945         4.61214         4.61214 
        1.63831         19.4933         4.56985         4.56985 
        1.64444         19.3891         4.52808         4.52808 
        1.65059         19.2583         4.48673         4.48673 
        1.65673         19.1441         4.44593         4.44593 
        1.66285         19.0835         4.40576         4.40576 
        1.66898         18.9934         4.36607         4.36607 
        1.67512         18.9161         4.32679         4.32679 
        1.68127         18.7735         4.28796         4.28796 
         1.6874         18.6885         4.24969         4.24969 
        1.69353         18.6045         4.21191         4.21191 
        1.69967          18.475          4.1745          4.1745 
        1.70581         18.3877         4.13755         4.13755 
        1.71193         18.3335          4.1012          4.1012 
        1.71806         18.2118          4.0652          4.0652 
        1.72421         18.1048         4.02956         4.02956 
        1.73035         18.0068         3.99439         3.99439 
        1.73649         17.9704         3.95965         3.95965 
        1.74262         17.8543         3.92534         3.92534 
        1.74876         17.8125         3.89142         3.89142 
        1.75489         17.6882         3.85797         3.85797 
        1.76101         17.5888         3.82492         3.82492 
        1.76715         17.5209         3.79221         3.79221 
        1.77329         17.4566         3.75984         3.75984 
        1.77943         17.3347         3.72783         3.72783 
        1.78557         17.2666         3.69625         3.69625 
        1.79171         17.1954         3.66502         3.66502 
        1.79785         17.0702         3.63415         3.63415 
        1.80399         17.0073         3.60363         3.60363 
        1.81012         16.9696         3.57351         3.57351 
        1.81625         16.8838         3.54374         3.54374 
        1.82239         16.8367         3.51427         3.51427 
        1.82853         16.6847         3.48514         3.48514 
        1.83466         16.5986         3.45638         3.45638 
        1.84078          16.492         3.42796         3.42796 
        1.84692         16.4629         3.39982         3.39982 
        1.85306         16.3761         3.37196         3.37196 
         1.8592          16.291         3.34446         3.34446 
        1.86533         16.2063         3.31727         3.31727 
        1.87147         16.1399         3.29036         3.29036 
