# k  (h/Mpc)    P(k)  (Mpc/h)^3    P_linear(k)  (Mpc/h)^3     P_NL(k)  ShotnoiseSubtracted = false
     0.00783031         21962.8         22308.8         22308.8 
       0.013688           26280         25965.1         25965.1 
       0.019231           25125         25036.6         25036.6 
      0.0249154         21594.6         22100.4         22100.4 
      0.0312784         18108.8         18306.6         18306.6 
      0.0375637         15176.7         15121.8         15121.8 
      0.0433917         12785.9         12987.6         12987.6 
      0.0492413         11509.4         11556.9         11556.9 
      0.0555754         10208.9         10531.5         10531.5 
      0.0619321         9774.34         9722.97         9722.97 
       0.067871         8714.98         8946.79         8946.79 
      0.0738098         7887.62         8068.04         8068.04 
      0.0800417         6876.35         7076.29         7076.29 
      0.0862327         6087.39          6132.5          6132.5 
      0.0921407         5492.18         5369.93         5369.93 
      0.0982031         4873.98         4778.32         4778.32 
       0.104506         4603.69         4360.72         4360.72 
       0.110769         4288.82         4090.82         4090.82 
       0.116806         4072.54          3896.9          3896.9 
       0.122832         3867.41         3705.07         3705.07 
       0.129052         3549.24         3468.89         3468.89 
       0.135211         3309.38          3191.3          3191.3 
       0.141259         3124.59          2899.2          2899.2 
       0.147318         2908.74         2620.79         2620.79 
       0.153489         2647.59         2380.54         2380.54 
       0.159709         2502.36         2196.08         2196.08 
       0.165845         2417.62         2067.01         2067.01 
       0.171974         2303.02         1974.67         1974.67 
       0.178125         2195.41         1897.91         1897.91 
       0.184229         2090.87         1819.22         1819.22 
        0.19034         1978.37         1727.61         1727.61 
       0.196428         1919.53         1623.03         1623.03 
       0.202534         1831.96            1512            1512 
       0.208729         1737.98         1403.67         1403.67 
       0.214876         1668.91         1309.46         1309.46 
       0.220989         1605.91         1233.24         1233.24 
       0.227147         1545.07         1173.38         1173.38 
        0.23329         1484.73         1126.02         1126.02 
       0.239377         1460.41         1085.11         1085.11 
       0.245482         1370.27         1044.42         1044.42 
       0.251667         1359.96         1000.15         1000.15 
       0.257832         1301.42         952.376         952.376 
       0.263955         1254.76         903.178         903.178 
       0.270079         1209.37         855.294         855.294 
        0.27624         1191.88         811.236         811.236 
       0.282372         1143.06         773.122         773.122 
        0.28843         1135.61         741.165         741.165 
       0.294538         1077.99         713.506         713.506 
       0.300721         1069.35          688.37          688.37 
        0.30691         1029.15         664.193         664.193 
       0.313033         1006.75         640.051         640.051 
       0.319153         989.205         615.252         615.252 
       0.325316         957.027         590.034         590.034 
        0.33145         934.717         565.462         565.462 
       0.337538         914.052         542.465         542.465 
       0.343633         895.559         521.402         521.402 
       0.349808         863.528           502.2           502.2 
       0.355968         856.387         484.954         484.954 
       0.362074          848.25         469.191         469.191 
       0.368217         819.949         454.139         454.139 
       0.374374         789.231         439.387         439.387 
       0.380519         790.375         424.785         424.785 
       0.386598         765.191         410.502         410.502 
       0.392688         761.558         396.505         396.505 
        0.39888         738.935         382.862         382.862 
       0.405048         729.908         370.068         370.068 
       0.411186         719.386         358.174         358.174 
       0.417313         704.312         347.129         347.129 
       0.423458         689.127         336.736         336.736 
       0.429607         682.518         326.828         326.828 
       0.435692         666.162         317.371         317.371 
       0.441815         658.696         308.115         308.115 
       0.447964         645.861         299.023         299.023 
       0.454126         640.398         290.156         290.156 
       0.460267         623.262         281.633         281.633 
       0.466387           615.3         273.502         273.502 
        0.47254          612.56         265.706         265.706 
       0.478662         604.121         258.336         258.336 
       0.484765         585.273         251.351         251.351 
       0.490885         581.005         244.649         244.649 
       0.497035         569.014         238.155         238.155 
       0.503198         564.732         231.855         231.855 
       0.509342         559.736         225.767         225.767 
       0.515458         555.418         219.892         219.892 
       0.521598         539.941         214.177         214.177 
       0.527764         532.512         208.632         208.632 
       0.533884         528.333         203.333         203.333 
           0.54         522.946         198.251         198.251 
       0.546137         517.533         193.353         193.353 
       0.552299         510.742         188.616         188.616 
       0.558452          505.91         184.049         184.049 
       0.564573          500.35         179.649         179.649 
       0.570708         493.341         175.376         175.376 
       0.576825          481.66         171.249         171.249 
       0.582926         481.997         167.261         167.261 
       0.589034         476.187         163.392         163.392 
       0.595184         472.395          159.62          159.62 
       0.601379         464.156         155.942         155.942 
       0.607522         458.372         152.413         152.413 
       0.613639         456.131         149.013         149.013 
       0.619772         448.858         145.714         145.714 
       0.625918          445.74         142.512         142.512 
       0.632068         438.703         139.406         139.406 
       0.638161          436.08         136.419         136.419 
         0.6443         430.078         133.497         133.497 
       0.650464         427.373         130.647         130.647 
       0.656582         421.947         127.899         127.899 
       0.662703         421.213         125.229         125.229 
       0.668861         414.924          122.62          122.62 
       0.675024         410.909         120.084         120.084 
       0.681124         407.091         117.647         117.647 
       0.687237         404.037         115.275         115.275 
       0.693381         397.715         112.959         112.959 
       0.699536         392.003         110.703         110.703 
       0.705665         390.674         108.519         108.519 
       0.711789         388.964         106.396         106.396 
       0.717957         385.106         104.315         104.315 
        0.72409         383.197         102.301         102.301 
       0.730186         377.334         100.352         100.352 
       0.736317         374.776         98.4434         98.4434 
       0.742472         371.524         96.5772         96.5772 
       0.748622         368.067         94.7612         94.7612 
        0.75476         362.709         92.9959         92.9959 
       0.760888         359.231         91.2784         91.2784 
       0.767043         359.119         89.5977         89.5977 
       0.773185         355.807         87.9631         87.9631 
       0.779291         351.302         86.3788         86.3788 
       0.785407         349.406         84.8314         84.8314 
       0.791564         345.531         83.3124         83.3124 
       0.797719         343.562         81.8315         81.8315 
       0.803834         338.598         80.3961         80.3961 
       0.809972         338.336         78.9901         78.9901 
       0.816124         336.681         77.6148         77.6148 
       0.822261         332.772         76.2759         76.2759 
       0.828378         330.441         74.9728         74.9728 
       0.834502         326.228         73.6992         73.6992 
       0.840667         324.243         72.4469         72.4469 
       0.846816         322.668         71.2274         71.2274 
       0.852925         320.574         70.0438         70.0438 
       0.859047         318.007         68.8846         68.8846 
       0.865192          313.99          67.748          67.748 
       0.871341         311.351         66.6363         66.6363 
       0.877463         311.512         65.5547         65.5547 
       0.883569         308.096         64.4999         64.4999 
       0.889708         305.594          63.463          63.463 
       0.895864         305.254         62.4463         62.4463 
       0.902008          301.86         61.4541         61.4541 
       0.908149         297.859         60.4841         60.4841 
       0.914301         296.223         59.5335         59.5335 
       0.920448         294.369         58.6043         58.6043 
       0.926574         290.663         57.6982         57.6982 
       0.932687         289.961         56.8132         56.8132 
       0.938823         286.842         55.9437         55.9437 
       0.944975         286.927         55.0903         55.0903 
       0.951105         283.866         54.2579         54.2579 
       0.957225         282.041         53.4441         53.4441 
       0.963368         278.123         52.6442         52.6442 
       0.969511         277.449         51.8607         51.8607 
       0.975621         275.847         51.0974         51.0974 
       0.981748         273.607         50.3476         50.3476 
       0.987916         272.244          49.608          49.608 
        0.99406         269.128         48.8862         48.8862 
        1.00019         267.028         48.1801         48.1801 
        1.00632         266.148         47.4887         47.4887 
        1.01246         263.771         46.8098         46.8098 
        1.01859         263.479         46.1452         46.1452 
        1.02471         259.638         45.4944         45.4944 
        1.03085         258.612         44.8539         44.8539 
        1.03698         256.875         44.2271         44.2271 
        1.04314         255.193         43.6096         43.6096 
        1.04929         253.229         43.0054         43.0054 
        1.05541         252.763          42.415          42.415 
        1.06154         248.958         41.8343         41.8343 
        1.06769         248.521         41.2635         41.2635 
        1.07382         246.216         40.7054         40.7054 
        1.07993         244.974         40.1588         40.1588 
        1.08607         244.259           39.62           39.62 
        1.09222         241.314         39.0906         39.0906 
        1.09836         239.527         38.5714         38.5714 
        1.10449          237.92         38.0624         38.0624 
        1.11063         235.586         37.5619         37.5619 
        1.11677         235.294         37.0707         37.0707 
         1.1229          232.82         36.5891         36.5891 
        1.12903         231.904         36.1156         36.1156 
        1.13518         230.113         35.6501         35.6501 
        1.14131         228.488         35.1931         35.1931 
        1.14745         227.957         34.7444         34.7444 
        1.15359         226.008         34.3034         34.3034 
        1.15973         224.163         33.8699         33.8699 
        1.16584         222.693         33.4458         33.4458 
        1.17197         222.546         33.0284         33.0284 
        1.17811         219.615         32.6168         32.6168 
        1.18424         218.362         32.2135         32.2135 
        1.19038         217.475         31.8158         31.8158 
        1.19652         215.371          31.425          31.425 
        1.20267         215.382         31.0407         31.0407 
        1.20881         212.897          30.663          30.663 
        1.21495         211.846         30.2921         30.2921 
        1.22108         210.291         29.9274         29.9274 
         1.2272         208.938         29.5695         29.5695 
        1.23334         208.621         29.2167         29.2167 
        1.23949         205.804         28.8688         28.8688 
        1.24562         205.065         28.5275         28.5275 
        1.25174         204.162         28.1922         28.1922 
        1.25789         202.693         27.8613         27.8613 
        1.26402         200.667         27.5363         27.5363 
        1.27014         199.741         27.2172         27.2172 
        1.27628         198.019         26.9023         26.9023 
        1.28244         197.935         26.5917         26.5917 
        1.28858         196.046         26.2864         26.2864 
        1.29471         195.344         25.9866         25.9866 
        1.30084         193.229         25.6918         25.6918 
        1.30697         192.315         25.4011         25.4011 
        1.31312         190.712         25.1145         25.1145 
        1.31925         189.255         24.8331         24.8331 
        1.32537         189.117         24.5564         24.5564 
        1.33151         187.285         24.2829         24.2829 
        1.33765         185.803         24.0138         24.0138 
        1.34378         185.141         23.7492         23.7492 
        1.34992         184.283         23.4884         23.4884 
        1.35606         183.498          23.231          23.231 
         1.3622         181.207         22.9779         22.9779 
        1.36833         180.538         22.7292         22.7292 
        1.37445         179.328         22.4843         22.4843 
        1.38059         178.134         22.2422         22.2422 
        1.38675         177.453         22.0031         22.0031 
        1.39288         176.329         21.7685         21.7685 
        1.39901         174.839         21.5374         21.5374 
        1.40515         174.117         21.3091         21.3091 
         1.4113          172.97         21.0843         21.0843 
        1.41742         171.646         20.8635         20.8635 
        1.42355         170.749         20.6455         20.6455 
         1.4297         169.388         20.4299         20.4299 
        1.43585         168.418         20.2175         20.2175 
        1.44198         168.159         20.0089         20.0089 
        1.44809         166.622         19.8037         19.8037 
        1.45423         165.927         19.6005         19.6005 
        1.46036         164.513         19.4006         19.4006 
        1.46649         163.711         19.2034         19.2034 
        1.47263         162.789         19.0088         19.0088 
        1.47877         161.491         18.8169         18.8169 
        1.48491         160.058         18.6274         18.6274 
        1.49104         159.782         18.4409         18.4409 
        1.49718         158.038         18.2568         18.2568 
        1.50333         157.516         18.0749         18.0749 
        1.50947         156.238         17.8958         17.8958 
         1.5156          155.48         17.7195         17.7195 
        1.52172         154.727         17.5455         17.5455 
        1.52787         153.221         17.3735         17.3735 
          1.534         152.894          17.204          17.204 
        1.54013         151.675         17.0369         17.0369 
        1.54627         150.791         16.8717         16.8717 
        1.55241          149.71         16.7087         16.7087 
        1.55855          148.71         16.5481         16.5481 
        1.56467         147.774           16.39           16.39 
         1.5708         146.834         16.2336         16.2336 
        1.57695         146.561         16.0789         16.0789 
        1.58308         145.284         15.9267         15.9267 
        1.58922         144.446         15.7762         15.7762 
        1.59535         143.463         15.6278         15.6278 
         1.6015         142.502         15.4811         15.4811 
        1.60764         142.016         15.3363         15.3363 
        1.61376             141         15.1938         15.1938 
        1.61989         140.119          15.053          15.053 
        1.62604         139.117         14.9136         14.9136 
        1.63218         138.607         14.7761         14.7761 
        1.63831         137.369         14.6406         14.6406 
        1.64444         136.661         14.5068         14.5068 
        1.65059         135.935         14.3743         14.3743 
        1.65673         135.262         14.2436         14.2436 
        1.66285         134.151         14.1149         14.1149 
        1.66898         133.569         13.9877         13.9877 
        1.67512         132.545         13.8619         13.8619 
        1.68127         131.739         13.7375         13.7375 
         1.6874         131.297         13.6149         13.6149 
        1.69353         130.177         13.4938         13.4938 
        1.69967         129.246          13.374          13.374 
        1.70581         128.546         13.2556         13.2556 
        1.71193         127.577         13.1391         13.1391 
        1.71806         127.188         13.0238         13.0238 
        1.72421         126.435         12.9096         12.9096 
        1.73035         125.778          12.797          12.797 
        1.73649         124.899         12.6856         12.6856 
        1.74262         124.296         12.5757         12.5757 
        1.74876         123.122         12.4671         12.4671 
        1.75489         122.684         12.3599         12.3599 
        1.76101         121.594          12.254          12.254 
        1.76715         121.329         12.1492         12.1492 
        1.77329         120.252         12.0455         12.0455 
        1.77943         119.954          11.943          11.943 
        1.78557         119.272         11.8418         11.8418 
        1.79171         118.321         11.7417         11.7417 
        1.79785         117.692         11.6428         11.6428 
        1.80399         117.011         11.5451         11.5451 
        1.81012         116.497         11.4486         11.4486 
        1.81625         115.811         11.3532         11.3532 
        1.82239         115.051         11.2588         11.2588 
        1.82853         114.183         11.1655         11.1655 
        1.83466         113.737         11.0733         11.0733 
        1.84078         112.919         10.9823         10.9823 
        1.84692         112.043         10.8921         10.8921 
        1.85306         111.943         10.8029         10.8029 
         1.8592         110.982         10.7147         10.7147 
        1.86533         110.585         10.6277         10.6277 
        1.87147         109.675         10.5414         10.5414 
        1.87761         108.842         10.4561         10.4561 
