# k  (h/Mpc)    Pcb(k)  (Mpc/h)^3    Pcb_linear(k) (Mpc/h)^3    Pcb_NL(k) (Mpc/h)^3   ShotnoiseSubtracted = false
     0.00783031         20510.5         20827.4         20827.4 
       0.013688         24521.7         24241.6         24241.6 
       0.019231         23457.6           23375           23375 
      0.0249154         20184.6         20633.9         20633.9 
      0.0312784         16922.2         17091.9         17091.9 
      0.0375637         14173.3         14118.5         14118.5 
      0.0433917         11950.3         12125.9         12125.9 
      0.0492413         10751.8         10790.1         10790.1 
      0.0555754         9548.76         9832.83         9832.83 
      0.0619321         9131.16          9077.9          9077.9 
       0.067871         8151.26         8353.22         8353.22 
      0.0738098         7374.83         7532.77         7532.77 
      0.0800417         6429.99         6606.83         6606.83 
      0.0862327          5686.6         5725.65         5725.65 
      0.0921407         5122.46         5013.68         5013.68 
      0.0982031         4543.62         4461.31         4461.31 
       0.104506         4287.63         4071.42         4071.42 
       0.110769         3994.85         3819.42         3819.42 
       0.116806         3790.75         3638.37         3638.37 
       0.122832         3602.31         3459.27         3459.27 
       0.129052         3307.25         3238.76         3238.76 
       0.135211         3082.46         2979.58         2979.58 
       0.141259          2905.2         2706.86         2706.86 
       0.147318         2700.23         2446.93         2446.93 
       0.153489         2456.22         2222.61         2222.61 
       0.159709         2320.23         2050.39         2050.39 
       0.165845         2238.71         1929.88         1929.88 
       0.171974         2131.48         1843.67         1843.67 
       0.178125         2032.77            1772            1772 
       0.184229         1938.43         1698.53         1698.53 
        0.19034         1828.61            1613            1613 
       0.196428         1774.89         1515.36         1515.36 
       0.202534         1694.54         1411.69         1411.69 
       0.208729         1604.98         1310.55         1310.55 
       0.214876         1537.16         1222.59         1222.59 
       0.220989          1479.1         1151.43         1151.43 
       0.227147          1421.3         1095.54         1095.54 
        0.23329          1365.7         1051.32         1051.32 
       0.239377         1342.17         1013.12         1013.12 
       0.245482         1257.66         975.138         975.138 
       0.251667         1247.92         933.801         933.801 
       0.257832         1193.98         889.194         889.194 
       0.263955         1151.17          843.26          843.26 
       0.270079         1108.31         798.553         798.553 
        0.27624         1092.57         757.419         757.419 
       0.282372          1047.4         721.833         721.833 
        0.28843         1038.01         691.996         691.996 
       0.294538         984.625         666.173         666.173 
       0.300721          977.58         642.703         642.703 
        0.30691         938.973         620.131         620.131 
       0.313033         918.881          597.59          597.59 
       0.319153         900.922         574.437         574.437 
       0.325316         871.772          550.89          550.89 
        0.33145         850.501         527.949         527.949 
       0.337538         832.542         506.478         506.478 
       0.343633         813.867         486.811         486.811 
       0.349808         784.151         468.884         468.884 
       0.355968         777.979         452.782         452.782 
       0.362074         769.872         438.064         438.064 
       0.368217         744.742         424.013         424.013 
       0.374374         715.054         410.237         410.237 
       0.380519         715.737         396.604         396.604 
       0.386598         693.406          383.27          383.27 
       0.392688         690.172           370.2           370.2 
        0.39888         669.403         357.464         357.464 
       0.405048         659.865         345.517         345.517 
       0.411186          650.42         334.414         334.414 
       0.417313         636.761           324.1           324.1 
       0.423458         622.975         314.397         314.397 
       0.429607          616.37         305.146         305.146 
       0.435692         601.145         296.317         296.317 
       0.441815           594.6         287.674         287.674 
       0.447964         582.445         279.186         279.186 
       0.454126         576.405         270.907         270.907 
       0.460267         561.509          262.95          262.95 
       0.466387         554.629         255.358         255.358 
        0.47254         549.996         248.078         248.078 
       0.478662         543.981         241.198         241.198 
       0.484765         525.987         234.676         234.676 
       0.490885         522.048         228.419         228.419 
       0.497035         511.314         222.356         222.356 
       0.503198         507.092         216.473         216.473 
       0.509342         502.888          210.79          210.79 
       0.515458         498.463         205.305         205.305 
       0.521598         484.373         199.968         199.968 
       0.527764         477.502         194.791         194.791 
       0.533884         473.891         189.844         189.844 
           0.54         468.423         185.099         185.099 
       0.546137         464.376         180.526         180.526 
       0.552299         457.312         176.103         176.103 
       0.558452         453.599         171.839         171.839 
       0.564573         448.251         167.731         167.731 
       0.570708         441.539         163.742         163.742 
       0.576825         430.813         159.888         159.888 
       0.582926         430.668         156.165         156.165 
       0.589034         425.812         152.553         152.553 
       0.595184         422.465          149.03          149.03 
       0.601379         414.732         145.597         145.597 
       0.607522         409.756         142.302         142.302 
       0.613639         407.667         139.127         139.127 
       0.619772         400.448         136.047         136.047 
       0.625918         398.082         133.057         133.057 
       0.632068         391.422         130.158         130.158 
       0.638161         389.342         127.369         127.369 
         0.6443         383.608         124.641         124.641 
       0.650464         380.751          121.98          121.98 
       0.656582         376.333         119.414         119.414 
       0.662703         375.717         116.921         116.921 
       0.668861         369.873         114.485         114.485 
       0.675024         366.156         112.118         112.118 
       0.681124         362.653         109.843         109.843 
       0.687237         359.591         107.628         107.628 
       0.693381         354.062         105.465         105.465 
       0.699536         349.391         103.359         103.359 
       0.705665         347.602          101.32          101.32 
       0.711789         346.205         99.3377         99.3377 
       0.717957         342.789         97.3948         97.3948 
        0.72409          340.79         95.5144         95.5144 
       0.730186         335.583         93.6948         93.6948 
       0.736317         333.023         91.9127         91.9127 
       0.742472         330.344         90.1703         90.1703 
       0.748622         327.296         88.4747         88.4747 
        0.75476         322.717         86.8265         86.8265 
       0.760888         319.492         85.2229         85.2229 
       0.767043         319.464         83.6538         83.6538 
       0.773185         316.331         82.1276         82.1276 
       0.779291         311.847         80.6484         80.6484 
       0.785407         310.631         79.2037         79.2037 
       0.791564         306.871         77.7854         77.7854 
       0.797719         304.696         76.4028         76.4028 
       0.803834         300.745         75.0626         75.0626 
       0.809972         300.411         73.7499         73.7499 
       0.816124         298.928         72.4658         72.4658 
       0.822261         295.647         71.2158         71.2158 
       0.828378         293.214         69.9991         69.9991 
       0.834502         289.884         68.8099         68.8099 
       0.840667         288.022         67.6408         67.6408 
       0.846816         286.458         66.5022         66.5022 
       0.852925         284.539         65.3971         65.3971 
       0.859047          282.18         64.3148         64.3148 
       0.865192         278.535         63.2536         63.2536 
       0.871341         276.233         62.2157         62.2157 
       0.877463         276.234         61.2058         61.2058 
       0.883569         273.566          60.221          60.221 
       0.889708         270.786         59.2529         59.2529 
       0.895864         270.083         58.3036         58.3036 
       0.902008         267.311         57.3772         57.3772 
       0.908149         264.401         56.4716         56.4716 
       0.914301         262.275          55.584          55.584 
       0.920448         260.682         54.7165         54.7165 
       0.926574          257.53         53.8705         53.8705 
       0.932687         257.226         53.0442         53.0442 
       0.938823         254.321         52.2323         52.2323 
       0.944975         254.115         51.4356         51.4356 
       0.951105         251.628         50.6584         50.6584 
       0.957225         250.031         49.8986         49.8986 
       0.963368         246.391         49.1518         49.1518 
       0.969511         245.731         48.4203         48.4203 
       0.975621         243.986         47.7076         47.7076 
       0.981748         242.474         47.0075         47.0075 
       0.987916         241.126          46.317          46.317 
        0.99406         238.326         45.6431         45.6431 
        1.00019         236.699         44.9838         44.9838 
        1.00632         235.726         44.3383         44.3383 
        1.01246          233.66         43.7044         43.7044 
        1.01859         233.695          43.084          43.084 
        1.02471          229.89         42.4763         42.4763 
        1.03085         228.866         41.8783         41.8783 
        1.03698         227.477         41.2931         41.2931 
        1.04314         225.644         40.7166         40.7166 
        1.04929          224.25         40.1524         40.1524 
        1.05541         223.832         39.6012         39.6012 
        1.06154         220.543          39.059          39.059 
        1.06769         220.093         38.5261         38.5261 
        1.07382         218.145          38.005          38.005 
        1.07993         216.773         37.4946         37.4946 
        1.08607          216.35         36.9916         36.9916 
        1.09222         213.915         36.4973         36.4973 
        1.09836         212.385         36.0126         36.0126 
        1.10449          210.59         35.5373         35.5373 
        1.11063         208.783         35.0701         35.0701 
        1.11677         208.222         34.6114         34.6114 
         1.1229         206.148         34.1617         34.1617 
        1.12903         205.406         33.7197         33.7197 
        1.13518         203.935         33.2851         33.2851 
        1.14131         202.209         32.8584         32.8584 
        1.14745         202.135         32.4394         32.4394 
        1.15359         200.171         32.0277         32.0277 
        1.15973         198.283         31.6229         31.6229 
        1.16584         197.286          31.227          31.227 
        1.17197           197.2         30.8373         30.8373 
        1.17811         194.345          30.453          30.453 
        1.18424         193.486         30.0764         30.0764 
        1.19038         192.755         29.7051         29.7051 
        1.19652         190.791         29.3402         29.3402 
        1.20267         190.722         28.9815         28.9815 
        1.20881         188.698         28.6288         28.6288 
        1.21495         187.669         28.2825         28.2825 
        1.22108         186.379          27.942          27.942 
         1.2272         185.102         27.6079         27.6079 
        1.23334         184.844         27.2785         27.2785 
        1.23949         182.442         26.9536         26.9536 
        1.24562         181.784          26.635          26.635 
        1.25174         180.875         26.3219         26.3219 
        1.25789         179.683          26.013          26.013 
        1.26402         177.657         25.7095         25.7095 
        1.27014         176.833         25.4116         25.4116 
        1.27628         175.647         25.1176         25.1176 
        1.28244         175.486         24.8276         24.8276 
        1.28858         173.697         24.5426         24.5426 
        1.29471          172.86         24.2627         24.2627 
        1.30084         171.369         23.9874         23.9874 
        1.30697         170.109          23.716          23.716 
        1.31312         168.927         23.4484         23.4484 
        1.31925         167.716         23.1857         23.1857 
        1.32537         167.637         22.9273         22.9273 
        1.33151         165.948          22.672          22.672 
        1.33765         164.731         22.4207         22.4207 
        1.34378         164.041         22.1737         22.1737 
        1.34992         163.254         21.9302         21.9302 
        1.35606         162.814         21.6899         21.6899 
         1.3622         160.857         21.4536         21.4536 
        1.36833         159.974         21.2213         21.2213 
        1.37445         159.187         20.9927         20.9927 
        1.38059         157.914         20.7666         20.7666 
        1.38675          157.38         20.5434         20.5434 
        1.39288         156.298         20.3244         20.3244 
        1.39901         155.342         20.1086         20.1086 
        1.40515         154.225         19.8955         19.8955 
         1.4113         153.454         19.6855         19.6855 
        1.41742          152.15         19.4794         19.4794 
        1.42355         151.555         19.2759         19.2759 
         1.4297         150.239         19.0746         19.0746 
        1.43585         149.492         18.8763         18.8763 
        1.44198          149.01         18.6815         18.6815 
        1.44809         147.974         18.4899         18.4899 
        1.45423         147.358         18.3002         18.3002 
        1.46036         145.998         18.1136         18.1136 
        1.46649         145.122         17.9295         17.9295 
        1.47263         144.305         17.7477         17.7477 
        1.47877          143.12         17.5686         17.5686 
        1.48491         141.939         17.3917         17.3917 
        1.49104           141.8         17.2175         17.2175 
        1.49718         140.329         17.0456         17.0456 
        1.50333         139.659         16.8758         16.8758 
        1.50947         138.684         16.7086         16.7086 
         1.5156          138.05          16.544          16.544 
        1.52172         137.288         16.3815         16.3815 
        1.52787         136.007         16.2209         16.2209 
          1.534         135.648         16.0626         16.0626 
        1.54013         134.755         15.9067         15.9067 
        1.54627         133.855         15.7525         15.7525 
        1.55241         132.892         15.6003         15.6003 
        1.55855         132.216         15.4503         15.4503 
        1.56467         131.079         15.3027         15.3027 
         1.5708         130.283         15.1567         15.1567 
        1.57695         130.151         15.0123         15.0123 
        1.58308         129.134         14.8701         14.8701 
        1.58922         128.458         14.7297         14.7297 
        1.59535         127.562         14.5911         14.5911 
         1.6015         126.886         14.4541         14.4541 
        1.60764         126.258         14.3189         14.3189 
        1.61376         125.326         14.1858         14.1858 
        1.61989         124.452         14.0544         14.0544 
        1.62604         123.559         13.9242         13.9242 
        1.63218         123.289         13.7958         13.7958 
        1.63831         122.297         13.6693         13.6693 
        1.64444         121.535         13.5444         13.5444 
        1.65059         120.877         13.4207         13.4207 
        1.65673         120.169         13.2987         13.2987 
        1.66285         119.452         13.1785         13.1785 
        1.66898         118.722         13.0598         13.0598 
        1.67512          117.96         12.9423         12.9423 
        1.68127         117.228         12.8261         12.8261 
         1.6874         116.727         12.7117         12.7117 
        1.69353         115.958         12.5986         12.5986 
        1.69967         115.078         12.4867         12.4867 
        1.70581         114.379         12.3762         12.3762 
        1.71193         113.672         12.2675         12.2675 
        1.71806          113.27         12.1598         12.1598 
        1.72421          112.69         12.0532         12.0532 
        1.73035         112.139          11.948          11.948 
        1.73649         111.366         11.8441         11.8441 
        1.74262         110.738         11.7415         11.7415 
        1.74876         109.991           11.64           11.64 
        1.75489         109.299         11.5399         11.5399 
        1.76101         108.422         11.4411         11.4411 
        1.76715          108.15         11.3432         11.3432 
        1.77329         107.415         11.2464         11.2464 
        1.77943         106.981         11.1507         11.1507 
        1.78557         106.463         11.0562         11.0562 
        1.79171         105.522         10.9628         10.9628 
        1.79785         105.021         10.8704         10.8704 
        1.80399         104.405         10.7792         10.7792 
        1.81012         103.896         10.6891         10.6891 
        1.81625         103.386            10.6            10.6 
        1.82239         102.735         10.5119         10.5119 
        1.82853         101.915         10.4247         10.4247 
        1.83466         101.463         10.3387         10.3387 
        1.84078         100.894         10.2537         10.2537 
        1.84692         100.039         10.1695         10.1695 
        1.85306         99.8286         10.0862         10.0862 
         1.8592         99.0501         10.0039         10.0039 
        1.86533         98.5835         9.92262         9.92262 
        1.87147         97.8704         9.84212         9.84212 
