# k  (h/Mpc)    P(k)  (Mpc/h)^3    P_linear(k)  (Mpc/h)^3     P_NL(k)  ShotnoiseSubtracted = false
     0.00783031         20879.9         21204.7         21204.7 
       0.013688         24970.6         24680.5         24680.5 
       0.019231         23882.2         23798.2         23798.2 
      0.0249154         20541.9         21007.3         21007.3 
      0.0312784         17223.2         17401.2         17401.2 
      0.0375637         14428.5         14373.9         14373.9 
      0.0433917         12162.1         12345.3         12345.3 
      0.0492413         10944.2         10985.3         10985.3 
      0.0555754         9715.52         10010.7         10010.7 
      0.0619321         9294.57         9242.15         9242.15 
       0.067871          8293.7         8504.36         8504.36 
      0.0738098          7504.6         7669.06         7669.06 
      0.0800417         6542.88         6726.36         6726.36 
      0.0862327         5788.41         5829.25         5829.25 
      0.0921407         5217.01         5104.39         5104.39 
      0.0982031         4628.25         4542.03         4542.03 
       0.104506         4368.93         4145.08         4145.08 
       0.110769         4070.41         3888.53         3888.53 
       0.116806         3863.37          3704.2          3704.2 
       0.122832         3670.44         3521.86         3521.86 
       0.129052         3369.32         3297.36         3297.36 
       0.135211         3140.79         3033.49         3033.49 
       0.141259         2961.97         2755.83         2755.83 
       0.147318          2754.5         2491.19         2491.19 
       0.153489         2506.12         2262.83         2262.83 
       0.159709         2367.83         2087.49         2087.49 
       0.165845         2285.66         1964.79         1964.79 
       0.171974         2176.59         1877.03         1877.03 
       0.178125         2075.46         1804.06         1804.06 
       0.184229         1978.29         1729.26         1729.26 
        0.19034          1868.1         1642.19         1642.19 
       0.196428         1813.01         1542.78         1542.78 
       0.202534         1730.73         1437.23         1437.23 
       0.208729         1640.18         1334.26         1334.26 
       0.214876         1572.29         1244.71         1244.71 
       0.220989         1512.92         1172.26         1172.26 
       0.227147         1454.44         1115.35         1115.35 
        0.23329         1397.56         1070.34         1070.34 
       0.239377          1373.9         1031.45         1031.45 
       0.245482         1287.95         992.779         992.779 
       0.251667          1278.1         950.693         950.693 
       0.257832          1222.9         905.282         905.282 
       0.263955         1179.07         858.517         858.517 
       0.270079          1135.6         813.001         813.001 
        0.27624         1119.39         771.121         771.121 
       0.282372         1073.24         734.892         734.892 
        0.28843         1064.55         704.515         704.515 
       0.294538         1010.02         678.224         678.224 
       0.300721         1002.53         654.331         654.331 
        0.30691         963.571          631.35          631.35 
       0.313033         942.846         608.401         608.401 
       0.319153         925.104         584.829         584.829 
       0.325316         895.109         560.858         560.858 
        0.33145         873.619         537.501         537.501 
       0.337538         854.871         515.641         515.641 
       0.343633         836.348         495.619         495.619 
       0.349808         805.996         477.367         477.367 
       0.355968         799.555         460.974         460.974 
       0.362074           791.5          445.99          445.99 
       0.368217         765.454         431.683         431.683 
       0.374374         735.549          417.66          417.66 
       0.380519         736.402          403.78          403.78 
       0.386598         713.247         390.203         390.203 
       0.392688         709.922         376.898         376.898 
        0.39888         688.633          363.93          363.93 
       0.405048         679.307         351.769         351.769 
       0.411186         669.581         340.463         340.463 
       0.417313         655.526         329.964         329.964 
       0.423458         641.338         320.085         320.085 
       0.429607         634.784         310.667         310.667 
       0.435692         619.251         301.678         301.678 
       0.441815         612.439         292.879         292.879 
       0.447964         600.119         284.237         284.237 
       0.454126         594.335         275.808         275.808 
       0.460267         578.743         267.707         267.707 
       0.466387         571.568         259.978         259.978 
        0.47254         567.552         252.567         252.567 
       0.478662         560.803         245.561         245.561 
       0.484765         542.588         238.922         238.922 
       0.490885         538.571         232.551         232.551 
       0.497035          527.48         226.379         226.379 
       0.503198         523.285          220.39          220.39 
       0.509342         518.857         214.603         214.603 
       0.515458         514.485         209.019         209.019 
       0.521598          499.98         203.586         203.586 
       0.527764         492.968         198.315         198.315 
       0.533884         489.196         193.279         193.279 
           0.54         483.769         188.448         188.448 
       0.546137         479.323         183.792         183.792 
       0.552299         472.378         179.289         179.289 
       0.558452         468.323         174.948         174.948 
       0.564573         462.936         170.766         170.766 
       0.570708          456.18         166.704         166.704 
       0.576825          445.14         162.781         162.781 
       0.582926         445.187          158.99          158.99 
       0.589034         440.051         155.313         155.313 
       0.595184          436.59         151.727         151.727 
       0.601379          428.69         148.231         148.231 
       0.607522         423.495         144.876         144.876 
       0.613639         421.386         141.644         141.644 
       0.619772         414.176         138.508         138.508 
       0.625918         411.577         135.465         135.465 
       0.632068         404.814         132.512         132.512 
       0.638161         402.579         129.674         129.674 
         0.6443          396.78         126.896         126.896 
       0.650464         393.986         124.187         124.187 
       0.656582         389.272         121.575         121.575 
       0.662703         388.619         119.036         119.036 
       0.668861         382.661         116.556         116.556 
       0.675024         378.887         114.146         114.146 
       0.681124         375.283          111.83          111.83 
       0.687237         372.226         109.575         109.575 
       0.693381         366.469         107.373         107.373 
       0.699536         361.481         105.229         105.229 
       0.705665         359.858         103.153         103.153 
       0.711789         358.388         101.135         101.135 
       0.717957         354.826         99.1569         99.1569 
        0.72409         352.892         97.2425         97.2425 
       0.730186         347.471         95.3899         95.3899 
       0.736317         344.925         93.5755         93.5755 
       0.742472         342.093         91.8016         91.8016 
       0.748622         338.923         90.0754         90.0754 
        0.75476         334.102         88.3973         88.3973 
       0.760888         330.798         86.7648         86.7648 
       0.767043         330.752         85.1672         85.1672 
       0.773185         327.589         83.6135         83.6135 
       0.779291         323.119         82.1075         82.1075 
       0.785407         321.707         80.6366         80.6366 
       0.791564         317.905         79.1927         79.1927 
       0.797719         315.817          77.785          77.785 
       0.803834         311.545         76.4206         76.4206 
       0.809972         311.243         75.0841         75.0841 
       0.816124         309.706         73.7768         73.7768 
       0.822261         306.246         72.5042         72.5042 
       0.828378         303.863         71.2655         71.2655 
       0.834502         300.233         70.0548         70.0548 
       0.840667         298.373         68.8645         68.8645 
       0.846816         296.824         67.7053         67.7053 
       0.852925         294.844         66.5802         66.5802 
       0.859047         292.421         65.4784         65.4784 
       0.865192         288.691          64.398          64.398 
       0.871341         286.271         63.3413         63.3413 
       0.877463         286.374         62.3131         62.3131 
       0.883569         283.446         61.3105         61.3105 
       0.889708         280.751         60.3249         60.3249 
       0.895864         280.202         59.3585         59.3585 
       0.902008         277.217         58.4153         58.4153 
       0.908149          273.96         57.4932         57.4932 
       0.914301         272.019         56.5897         56.5897 
       0.920448         270.326         55.7064         55.7064 
       0.926574         267.001         54.8451         54.8451 
       0.932687         266.581         54.0039         54.0039 
       0.938823         263.628         53.1773         53.1773 
       0.944975          263.54         52.3662         52.3662 
       0.951105         260.852         51.5749         51.5749 
       0.957225         259.196         50.8013         50.8013 
       0.963368         255.476          50.041          50.041 
       0.969511         254.833         49.2963         49.2963 
       0.975621         253.149         48.5707         48.5707 
       0.981748         251.388         47.8579         47.8579 
       0.987916         250.064          47.155          47.155 
        0.99406         247.157         46.4688         46.4688 
        1.00019         245.356         45.7977         45.7977 
        1.00632         244.455         45.1404         45.1404 
        1.01246         242.291         44.4951         44.4951 
        1.01859         242.247         43.8634         43.8634 
        1.02471         238.412         43.2448         43.2448 
        1.03085         237.412          42.636          42.636 
        1.03698         235.927         42.0402         42.0402 
        1.04314         234.136         41.4532         41.4532 
        1.04929          232.56         40.8788         40.8788 
        1.05541         232.139         40.3176         40.3176 
        1.06154         228.684         39.7656         39.7656 
        1.06769         228.244         39.2231         39.2231 
        1.07382         226.193         38.6925         38.6925 
        1.07993         224.874          38.173          38.173 
        1.08607         224.367         37.6608         37.6608 
        1.09222         221.754         37.1576         37.1576 
        1.09836         220.171         36.6641         36.6641 
        1.10449         218.439         36.1802         36.1802 
        1.11063         216.488         35.7045         35.7045 
        1.11677         215.997         35.2376         35.2376 
         1.1229          213.79         34.7798         34.7798 
        1.12903          213.01         34.3297         34.3297 
        1.13518         211.457         33.8873         33.8873 
        1.14131         209.763         33.4529         33.4529 
        1.14745          209.57         33.0263         33.0263 
        1.15359           207.6         32.6071         32.6071 
        1.15973         205.709         32.1951         32.1951 
        1.16584         204.588          31.792          31.792 
        1.17197         204.508         31.3952         31.3952 
        1.17811         201.592          31.004          31.004 
        1.18424         200.629         30.6206         30.6206 
        1.19038         199.854         30.2426         30.2426 
        1.19652         197.834         29.8711         29.8711 
        1.20267         197.802         29.5058         29.5058 
        1.20881         195.631         29.1467         29.1467 
        1.21495          194.61         28.7942         28.7942 
        1.22108         193.252         28.4475         28.4475 
         1.2272         191.952         28.1074         28.1074 
        1.23334         191.675          27.772          27.772 
        1.23949         189.143         27.4413         27.4413 
        1.24562         188.482         27.1168         27.1168 
        1.25174         187.565         26.7981         26.7981 
        1.25789         186.302         26.4836         26.4836 
        1.26402         184.252         26.1746         26.1746 
        1.27014         183.431         25.8714         25.8714 
        1.27628         182.069          25.572          25.572 
        1.28244         181.924         25.2768         25.2768 
        1.28858         180.112         24.9866         24.9866 
        1.29471         179.325         24.7016         24.7016 
        1.30084         177.611         24.4214         24.4214 
        1.30697         176.484          24.145          24.145 
        1.31312         175.174         23.8726         23.8726 
        1.31925         173.873         23.6052         23.6052 
        1.32537         173.796         23.3421         23.3421 
        1.33151         172.064         23.0822         23.0822 
        1.33765         170.788         22.8263         22.8263 
        1.34378         170.078         22.5748         22.5748 
        1.34992         169.281          22.327          22.327 
        1.35606         168.749         22.0823         22.0823 
         1.3622         166.688         21.8417         21.8417 
        1.36833         165.868         21.6053         21.6053 
        1.37445         164.972         21.3725         21.3725 
        1.38059         163.719         21.1424         21.1424 
        1.38675         163.148         20.9151         20.9151 
        1.39288         162.055         20.6921         20.6921 
        1.39901         160.912         20.4724         20.4724 
        1.40515          159.94         20.2554         20.2554 
         1.4113         159.055         20.0417         20.0417 
        1.41742         157.744         19.8318         19.8318 
        1.42355         157.059         19.6246         19.6246 
         1.4297          155.71         19.4197         19.4197 
        1.43585         154.917         19.2178         19.2178 
        1.44198         154.505         19.0195         19.0195 
        1.44809         153.318         18.8244         18.8244 
        1.45423         152.691         18.6313         18.6313 
        1.46036         151.319         18.4413         18.4413 
        1.46649         150.466         18.2538         18.2538 
        1.47263         149.618         18.0688         18.0688 
        1.47877         148.381         17.8865         17.8865 
        1.48491         147.144         17.7063         17.7063 
        1.49104         146.967          17.529          17.529 
        1.49718         145.397          17.354          17.354 
        1.50333         144.777         17.1811         17.1811 
        1.50947         143.702         17.0109         17.0109 
         1.5156         143.041         16.8433         16.8433 
        1.52172         142.297         16.6779         16.6779 
        1.52787         140.931         16.5144         16.5144 
          1.534         140.594         16.3532         16.3532 
        1.54013         139.599         16.1944         16.1944 
        1.54627         138.698         16.0374         16.0374 
        1.55241         137.695         15.8825         15.8825 
        1.55855         136.941         15.7298         15.7298 
        1.56467         135.828         15.5796         15.5796 
         1.5708         135.021         15.4309         15.4309 
        1.57695         134.863         15.2839         15.2839 
        1.58308         133.742         15.1391         15.1391 
        1.58922          133.02         14.9961         14.9961 
        1.59535         132.098         14.8551         14.8551 
         1.6015         131.336         14.7156         14.7156 
        1.60764         130.755          14.578          14.578 
        1.61376         129.801         14.4425         14.4425 
        1.61989         128.925         14.3086         14.3086 
        1.62604         127.999         14.1761         14.1761 
        1.63218         127.647         14.0454         14.0454 
        1.63831         126.598         13.9166         13.9166 
        1.64444         125.842         13.7894         13.7894 
        1.65059         125.172         13.6635         13.6635 
        1.65673         124.482         13.5393         13.5393 
        1.66285          123.63         13.4169         13.4169 
        1.66898         122.956         13.2961         13.2961 
        1.67512         122.114         13.1764         13.1764 
        1.68127         121.354         13.0582         13.0582 
         1.6874         120.875         12.9416         12.9416 
        1.69353         119.986         12.8266         12.8266 
        1.69967         119.081         12.7126         12.7126 
        1.70581         118.408         12.6001         12.6001 
        1.71193         117.623         12.4894         12.4894 
        1.71806         117.223         12.3798         12.3798 
        1.72421         116.599         12.2713         12.2713 
        1.73035         115.991         12.1642         12.1642 
        1.73649         115.201         12.0584         12.0584 
        1.74262         114.591         11.9539         11.9539 
        1.74876         113.709         11.8506         11.8506 
        1.75489         113.109         11.7487         11.7487 
        1.76101         112.141         11.6481         11.6481 
        1.76715         111.895         11.5485         11.5485 
        1.77329         111.038         11.4499         11.4499 
        1.77943         110.684         11.3524         11.3524 
        1.78557         110.104         11.2562         11.2562 
        1.79171         109.163         11.1611         11.1611 
        1.79785         108.627         11.0671         11.0671 
        1.80399         107.996         10.9742         10.9742 
        1.81012         107.483         10.8824         10.8824 
        1.81625         106.929         10.7918         10.7918 
        1.82239         106.243          10.702          10.702 
        1.82853          105.41         10.6133         10.6133 
        1.83466         104.956         10.5257         10.5257 
        1.84078         104.309         10.4392         10.4392 
        1.84692         103.451         10.3535         10.3535 
        1.85306         103.272         10.2687         10.2687 
         1.8592         102.439         10.1849         10.1849 
        1.86533         102.003         10.1021         10.1021 
        1.87147         101.227         10.0202         10.0202 
        1.87761         100.417         9.93909         9.93909 
