# k  (h/Mpc)    P(k)  (Mpc/h)^3    P_linear(k)  (Mpc/h)^3     P_NL(k)  ShotnoiseSubtracted = false
     0.00783031         19173.4         19465.6         19465.6 
       0.013688         22909.3           22657           22657 
       0.019231         21924.3         21847.3         21847.3 
      0.0249154         18880.8         19285.4         19285.4 
      0.0312784         15826.2           15975           15975 
      0.0375637         13249.4         13195.9         13195.9 
      0.0433917         11177.9         11333.5         11333.5 
      0.0492413         10053.2           10085           10085 
      0.0555754         8936.33         9190.32         9190.32 
      0.0619321         8537.83         8484.73         8484.73 
       0.067871         7628.25         7807.41         7807.41 
      0.0738098         6899.97         7040.57         7040.57 
      0.0800417         6016.48         6175.13         6175.13 
      0.0862327         5317.14         5351.54         5351.54 
      0.0921407         4784.16         4686.08         4686.08 
      0.0982031         4242.19         4169.81         4169.81 
       0.104506         4000.32         3805.39         3805.39 
       0.110769         3727.54         3569.86         3569.86 
       0.116806         3535.41         3400.65         3400.65 
       0.122832         3361.35         3233.25         3233.25 
       0.129052         3087.01         3027.14         3027.14 
       0.135211         2876.18          2784.9          2784.9 
       0.141259         2707.32         2529.99         2529.99 
       0.147318         2513.47         2287.04         2287.04 
       0.153489         2285.36         2077.39         2077.39 
       0.159709         2157.86         1916.42         1916.42 
       0.165845         2080.12         1803.78         1803.78 
       0.171974         1979.69         1723.21         1723.21 
       0.178125         1888.72         1656.22         1656.22 
       0.184229          1802.6         1587.55         1587.55 
        0.19034         1697.06         1507.61         1507.61 
       0.196428         1647.49         1416.35         1416.35 
       0.202534         1573.24         1319.45         1319.45 
       0.208729         1488.36         1224.92         1224.92 
       0.214876         1422.73         1142.71         1142.71 
       0.220989         1368.98          1076.2          1076.2 
       0.227147         1314.23         1023.95         1023.95 
        0.23329          1262.8          982.63          982.63 
       0.239377         1240.26         946.924         946.924 
       0.245482         1161.18         911.422         911.422 
       0.251667         1151.87         872.786         872.786 
       0.257832         1102.08         831.096         831.096 
       0.263955          1062.5         788.163         788.163 
       0.270079         1022.15         746.377         746.377 
        0.27624          1007.7         707.929         707.929 
       0.282372         965.848         674.669         674.669 
        0.28843         955.361         646.782         646.782 
       0.294538         905.899         622.645         622.645 
       0.300721         899.839          600.71          600.71 
        0.30691         863.164         579.612         579.612 
       0.313033         844.852         558.544         558.544 
       0.319153         827.053         536.903         536.903 
       0.325316         800.437         514.897         514.897 
        0.33145         780.203         493.454         493.454 
       0.337538         764.287         473.385         473.385 
       0.343633          745.92         455.004         455.004 
       0.349808         718.427         438.248         438.248 
       0.355968         712.903         423.198         423.198 
       0.362074         704.883         409.442         409.442 
       0.368217         682.288         396.307         396.307 
       0.374374         654.055         383.434         383.434 
       0.380519         654.322         370.691         370.691 
       0.386598         634.266         358.227         358.227 
       0.392688         631.228         346.012         346.012 
        0.39888         612.164         334.106         334.106 
       0.405048         602.521         322.942         322.942 
       0.411186         593.836         312.563         312.563 
       0.417313         581.369         302.924         302.924 
       0.423458         568.816         293.854         293.854 
       0.429607         562.265         285.208         285.208 
       0.435692         548.155         276.956         276.956 
       0.441815         542.312         268.878         268.878 
       0.447964         530.868         260.944         260.944 
       0.454126         524.418         253.206         253.206 
       0.460267         511.406         245.769         245.769 
       0.466387         505.243         238.673         238.673 
        0.47254         499.664          231.87          231.87 
       0.478662         495.146         225.438         225.438 
       0.484765         478.237         219.343         219.343 
       0.490885         474.529         213.494         213.494 
       0.497035         464.817         207.828         207.828 
       0.503198         460.591         202.329         202.329 
       0.509342         456.906         197.017         197.017 
       0.515458          452.54          191.89          191.89 
       0.521598          439.77         186.903         186.903 
       0.527764         433.379         182.064         182.064 
       0.533884         430.143          177.44          177.44 
           0.54         424.817         173.005         173.005 
       0.546137         421.573          168.73          168.73 
       0.552299         414.534         164.597         164.597 
       0.558452         411.547         160.612         160.612 
       0.564573         406.444         156.772         156.772 
       0.570708         399.971         153.043         153.043 
       0.576825          390.35         149.441         149.441 
       0.582926         389.761         145.961         145.961 
       0.589034         385.545         142.585         142.585 
       0.595184         382.474         139.293         139.293 
       0.601379          375.43         136.084         136.084 
       0.607522         370.947         133.004         133.004 
       0.613639         368.917         130.037         130.037 
       0.619772         361.956         127.158         127.158 
       0.625918         360.091         124.364         124.364 
       0.632068         353.874         121.653         121.653 
       0.638161         352.122         119.047         119.047 
         0.6443          346.71         116.497         116.497 
       0.650464         343.846          114.01          114.01 
       0.656582          340.08         111.612         111.612 
       0.662703         339.542         109.281         109.281 
       0.668861           334.1         107.005         107.005 
       0.675024         330.549         104.792         104.792 
       0.681124         327.408         102.666         102.666 
       0.687237         324.464         100.596         100.596 
       0.693381         319.518         98.5744         98.5744 
       0.699536          315.59         96.6058         96.6058 
       0.705665         313.541         94.6998         94.6998 
       0.711789         312.261         92.8472         92.8472 
       0.717957         309.277         91.0312         91.0312 
        0.72409         307.171         89.2737         89.2737 
       0.730186         302.592         87.5729         87.5729 
       0.736317         300.084         85.9072         85.9072 
       0.742472         297.733         84.2787         84.2787 
       0.748622         295.021         82.6939         82.6939 
        0.75476         291.074         81.1534         81.1534 
       0.760888         288.115         79.6546         79.6546 
       0.767043         288.101          78.188          78.188 
       0.773185         285.107         76.7615         76.7615 
       0.779291         280.754         75.3789         75.3789 
       0.785407         279.872         74.0286         74.0286 
       0.791564         276.387          72.703          72.703 
       0.797719         274.094         71.4107         71.4107 
       0.803834         270.904         70.1581         70.1581 
       0.809972         270.487         68.9312         68.9312 
       0.816124         269.163          67.731          67.731 
       0.822261         266.293         66.5627         66.5627 
       0.828378         263.852         65.4255         65.4255 
       0.834502         261.253          64.314          64.314 
       0.840667         259.352         63.2212         63.2212 
       0.846816          257.78          62.157          62.157 
       0.852925         256.088         61.1241         61.1241 
       0.859047         253.943         60.1126         60.1126 
       0.865192         250.551         59.1207         59.1207 
       0.871341         248.572         58.1506         58.1506 
       0.877463         248.268         57.2067         57.2067 
       0.883569          246.24         56.2863         56.2863 
       0.889708         243.456         55.3814         55.3814 
       0.895864         242.429         54.4942         54.4942 
       0.902008         240.178         53.6283         53.6283 
       0.908149         238.017         52.7818         52.7818 
       0.914301         235.604         51.9523         51.9523 
       0.920448         234.295         51.1414         51.1414 
       0.926574         231.597         50.3507         50.3507 
       0.932687          231.48         49.5784         49.5784 
       0.938823         228.733         48.8196         48.8196 
       0.944975         228.288         48.0749         48.0749 
       0.951105         226.281         47.3485         47.3485 
       0.957225         224.821         46.6383         46.6383 
       0.963368         221.473         45.9403         45.9403 
       0.969511         220.792         45.2566         45.2566 
       0.975621         218.982         44.5905         44.5905 
       0.981748         218.018         43.9361         43.9361 
       0.987916         216.605         43.2908         43.2908 
        0.99406         214.145         42.6608         42.6608 
        1.00019         212.959         42.0447         42.0447 
        1.00632         211.791         41.4413         41.4413 
        1.01246             210         40.8488         40.8488 
        1.01859         210.086         40.2689         40.2689 
        1.02471         206.589          39.701          39.701 
        1.03085         205.504         39.1421         39.1421 
        1.03698         204.298         38.5951         38.5951 
        1.04314         202.522         38.0562         38.0562 
        1.04929         201.499         37.5289         37.5289 
        1.05541         201.071         37.0137         37.0137 
        1.06154          198.23         36.5069         36.5069 
        1.06769         197.806         36.0089         36.0089 
        1.07382         196.061         35.5218         35.5218 
        1.07993         194.652         35.0448         35.0448 
        1.08607         194.352         34.5746         34.5746 
        1.09222         192.381         34.1126         34.1126 
        1.09836         190.953         33.6596         33.6596 
        1.10449         189.136         33.2153         33.2153 
        1.11063         187.604         32.7786         32.7786 
        1.11677         186.992         32.3499         32.3499 
         1.1229         185.259         31.9297         31.9297 
        1.12903         184.575         31.5165         31.5165 
        1.13518         183.263         31.1103         31.1103 
        1.14131         181.585         30.7115         30.7115 
        1.14745         181.639         30.3199         30.3199 
        1.15359         179.828          29.935          29.935 
        1.15973         178.102         29.5567         29.5567 
        1.16584         177.261         29.1867         29.1867 
        1.17197         177.088         28.8224         28.8224 
        1.17811         174.598         28.4633         28.4633 
        1.18424         173.906         28.1113         28.1113 
        1.19038         173.296         27.7642         27.7642 
        1.19652         171.529         27.4232         27.4232 
        1.20267         171.355         27.0879         27.0879 
        1.20881         169.668         26.7582         26.7582 
        1.21495         168.651         26.4346         26.4346 
        1.22108         167.504         26.1163         26.1163 
         1.2272         166.315          25.804          25.804 
        1.23334         166.093         25.4961         25.4961 
        1.23949         164.058         25.1925         25.1925 
        1.24562         163.386         24.8947         24.8947 
        1.25174         162.537         24.6021         24.6021 
        1.25789         161.478         24.3133         24.3133 
        1.26402         159.653         24.0297         24.0297 
        1.27014         158.776         23.7513         23.7513 
        1.27628         157.971         23.4764         23.4764 
        1.28244         157.791         23.2054         23.2054 
        1.28858         156.123          22.939          22.939 
        1.29471         155.208         22.6774         22.6774 
        1.30084          154.22         22.4201         22.4201 
        1.30697         152.761         22.1664         22.1664 
        1.31312         151.863         21.9163         21.9163 
        1.31925         150.838         21.6708         21.6708 
        1.32537         150.714         21.4293         21.4293 
        1.33151         149.192         21.1906         21.1906 
        1.33765         148.081         20.9558         20.9558 
        1.34378           147.5         20.7249         20.7249 
        1.34992         146.769         20.4973         20.4973 
        1.35606         146.448         20.2727         20.2727 
         1.3622         144.733         20.0518         20.0518 
        1.36833         143.803         19.8348         19.8348 
        1.37445          143.18          19.621          19.621 
        1.38059         141.973         19.4098         19.4098 
        1.38675         141.487         19.2011         19.2011 
        1.39288         140.522         18.9964         18.9964 
        1.39901         139.928         18.7947         18.7947 
        1.40515         138.604         18.5955         18.5955 
         1.4113         138.039         18.3993         18.3993 
        1.41742         136.822         18.2067         18.2067 
        1.42355         136.351         18.0164         18.0164 
         1.4297         135.222         17.8283         17.8283 
        1.43585          134.51         17.6429         17.6429 
        1.44198          133.96         17.4609         17.4609 
        1.44809         133.184         17.2818         17.2818 
        1.45423         132.609         17.1045         17.1045 
        1.46036         131.325         16.9301         16.9301 
        1.46649         130.467          16.758          16.758 
        1.47263         129.731         16.5881         16.5881 
        1.47877         128.758         16.4207         16.4207 
        1.48491         127.661         16.2553         16.2553 
        1.49104         127.575         16.0926         16.0926 
        1.49718         126.367         15.9319         15.9319 
        1.50333         125.665         15.7732         15.7732 
        1.50947         124.892         15.6169         15.6169 
         1.5156         124.302          15.463          15.463 
        1.52172         123.518         15.3112         15.3112 
        1.52787         122.478         15.1611         15.1611 
          1.534         122.098         15.0131         15.0131 
        1.54013         121.387         14.8673         14.8673 
        1.54627         120.566         14.7232         14.7232 
        1.55241         119.713          14.581          14.581 
        1.55855         119.116         14.4408         14.4408 
        1.56467         118.126         14.3029         14.3029 
         1.5708         117.321         14.1663         14.1663 
        1.57695         117.175         14.0314         14.0314 
        1.58308         116.416         13.8985         13.8985 
        1.58922         115.847         13.7672         13.7672 
        1.59535         115.002         13.6377         13.6377 
         1.6015         114.504         13.5097         13.5097 
        1.60764         113.808         13.3833         13.3833 
        1.61376         112.991          13.259          13.259 
        1.61989         112.184         13.1361         13.1361 
        1.62604         111.386         13.0144         13.0144 
        1.63218         111.244         12.8944         12.8944 
        1.63831         110.348         12.7762         12.7762 
        1.64444         109.638         12.6594         12.6594 
        1.65059         109.028         12.5438         12.5438 
        1.65673         108.312         12.4298         12.4298 
        1.66285         107.849         12.3174         12.3174 
        1.66898         107.102         12.2065         12.2065 
        1.67512         106.459         12.0967         12.0967 
        1.68127         105.842         11.9881         11.9881 
         1.6874         105.281         11.8811         11.8811 
        1.69353         104.754         11.7755         11.7755 
        1.69967         104.034         11.6709         11.6709 
        1.70581         103.277         11.5676         11.5676 
        1.71193         102.699          11.466          11.466 
        1.71806         102.326         11.3653         11.3653 
        1.72421         101.795         11.2657         11.2657 
        1.73035         101.372         11.1673         11.1673 
        1.73649         100.668         11.0702         11.0702 
        1.74262         100.017         10.9743         10.9743 
        1.74876         99.5097         10.8795         10.8795 
        1.75489         98.7448         10.7859         10.7859 
        1.76101         98.0555         10.6935         10.6935 
        1.76715          97.732         10.6021         10.6021 
        1.77329         97.2282         10.5116         10.5116 
        1.77943         96.6181         10.4221         10.4221 
        1.78557         96.2315         10.3338         10.3338 
        1.79171         95.3538         10.2465         10.2465 
        1.79785         94.9136         10.1602         10.1602 
        1.80399         94.3445         10.0749         10.0749 
        1.81012         93.8546         9.99066         9.99066 
        1.81625         93.4336         9.90744         9.90744 
        1.82239           92.87         9.82504         9.82504 
        1.82853         92.1324         9.74361         9.74361 
        1.83466         91.6968         9.66318         9.66318 
        1.84078          91.256         9.58375         9.58375 
        1.84692         90.4816         9.50507         9.50507 
        1.85306         90.2338         9.42719         9.42719 
         1.8592         89.5914         9.35029         9.35029 
        1.86533          89.083         9.27429         9.27429 
        1.87147         88.4869         9.19905         9.19905 
        1.87761         87.8316         9.12461         9.12461 
