# k  (h/Mpc)    Pcb(k)  (Mpc/h)^3    Pcb_linear(k) (Mpc/h)^3    Pcb_NL(k) (Mpc/h)^3   ShotnoiseSubtracted = false
     0.00783031          425.64         429.834         429.834 
       0.013688         499.364         500.838         500.838 
       0.019231         483.017         483.141         483.141 
      0.0249154         425.235         426.582         426.582 
      0.0312784         353.739         353.409         353.409 
      0.0375637         292.874         291.953         291.953 
      0.0433917         250.994         250.763         250.763 
      0.0492413         223.513         223.147         223.147 
      0.0555754         203.003         203.357         203.357 
      0.0619321         188.223         187.748         187.748 
       0.067871          172.45         172.763         172.763 
      0.0738098         155.458         155.797         155.797 
      0.0800417         136.246         136.647         136.647 
      0.0862327         118.378         118.424         118.424 
      0.0921407         103.846         103.699         103.699 
      0.0982031         92.2478         92.2745         92.2745 
       0.104506         84.5497         84.2106         84.2106 
       0.110769         79.1836         78.9988         78.9988 
       0.116806         75.1426         75.2544         75.2544 
       0.122832         71.5997         71.5502         71.5502 
       0.129052         66.8282         66.9894         66.9894 
       0.135211         61.4746         61.6288         61.6288 
       0.141259         56.0425          55.988          55.988 
       0.147318         50.8192         50.6117         50.6117 
       0.153489         46.1013         45.9722         45.9722 
       0.159709         42.5459           42.41           42.41 
       0.165845         40.2162         39.9174         39.9174 
       0.171974         38.1887         38.1343         38.1343 
       0.178125         36.7336         36.6519         36.6519 
       0.184229         35.2578         35.1324         35.1324 
        0.19034         33.2991         33.3633         33.3633 
       0.196428          31.412         31.3437         31.3437 
       0.202534         29.4421         29.1994         29.1994 
       0.208729         27.2589         27.1074         27.1074 
       0.214876         25.3637         25.2882         25.2882 
       0.220989         24.0386         23.8162         23.8162 
       0.227147         22.7398         22.6601         22.6601 
        0.23329         21.8194         21.7456         21.7456 
       0.239377         21.0423         20.9555         20.9555 
       0.245482         20.1893         20.1699         20.1699 
       0.251667         19.4286         19.3148         19.3148 
       0.257832         18.4792         18.3922         18.3922 
       0.263955         17.5493         17.4421         17.4421 
       0.270079         16.6452         16.5174         16.5174 
        0.27624         15.8631         15.6666         15.6666 
       0.282372         15.1266         14.9305         14.9305 
        0.28843         14.4535         14.3133         14.3133 
       0.294538         13.9081         13.7792         13.7792 
       0.300721          13.474         13.2938         13.2938 
        0.30691         12.9467         12.8269         12.8269 
       0.313033         12.4787         12.3607         12.3607 
       0.319153         11.9131         11.8818         11.8818 
       0.325316         11.5568         11.3947         11.3947 
        0.33145         11.0594         10.9202         10.9202 
       0.337538          10.619         10.4761         10.4761 
       0.343633         10.1841         10.0693         10.0693 
       0.349808         9.83751          9.6985          9.6985 
       0.355968         9.51195         9.36544         9.36544 
       0.362074         9.18857         9.06101         9.06101 
       0.368217          8.8947         8.77037         8.77037 
       0.374374         8.57959         8.48543         8.48543 
       0.380519         8.32645         8.20345         8.20345 
       0.386598         8.06078         7.92764         7.92764 
       0.392688         7.81381          7.6573          7.6573 
        0.39888         7.53138         7.39386         7.39386 
       0.405048         7.29262         7.14675         7.14675 
       0.411186         7.06651         6.91709         6.91709 
       0.417313         6.83218         6.70376         6.70376 
       0.423458         6.64301         6.50306         6.50306 
       0.429607         6.43147         6.31171         6.31171 
       0.435692         6.24714         6.12909         6.12909 
       0.441815         6.07025         5.95033         5.95033 
       0.447964          5.9202         5.77474         5.77474 
       0.454126         5.71595          5.6035          5.6035 
       0.460267         5.55675         5.43892         5.43892 
       0.466387         5.38231         5.28188         5.28188 
        0.47254         5.24446         5.13131         5.13131 
       0.478662         5.11276           4.989           4.989 
       0.484765          4.9594          4.8541          4.8541 
       0.490885         4.83514         4.72467         4.72467 
       0.497035         4.73578         4.59926         4.59926 
       0.503198         4.59818         4.47759         4.47759 
       0.509342         4.48661         4.36003         4.36003 
       0.515458         4.35882         4.24657         4.24657 
       0.521598         4.25192         4.13619         4.13619 
       0.527764         4.13242         4.02911         4.02911 
       0.533884         4.05071         3.92679         3.92679 
           0.54         3.94499         3.82863         3.82863 
       0.546137         3.85396         3.73404         3.73404 
       0.552299         3.76148         3.64256         3.64256 
       0.558452         3.65629         3.55436         3.55436 
       0.564573         3.58377          3.4694          3.4694 
       0.570708         3.49903         3.38688         3.38688 
       0.576825         3.40972         3.30717         3.30717 
       0.582926         3.34241         3.23015         3.23015 
       0.589034         3.24326         3.15544         3.15544 
       0.595184         3.17789         3.08259         3.08259 
       0.601379         3.10439         3.01156         3.01156 
       0.607522         3.04692         2.94341         2.94341 
       0.613639         2.98984         2.87775         2.87775 
       0.619772           2.908         2.81403         2.81403 
       0.625918          2.8556          2.7522          2.7522 
       0.632068         2.80258         2.69221         2.69221 
       0.638161         2.73227         2.63454         2.63454 
         0.6443         2.67459         2.57811         2.57811 
       0.650464         2.61005         2.52307         2.52307 
       0.656582         2.56892            2.47            2.47 
       0.662703         2.51545         2.41842         2.41842 
       0.668861         2.47153         2.36804         2.36804 
       0.675024         2.41402         2.31907         2.31907 
       0.681124         2.36187         2.27202         2.27202 
       0.687237         2.32201         2.22621         2.22621 
       0.693381         2.27699         2.18147         2.18147 
       0.699536          2.2179         2.13791         2.13791 
       0.705665         2.17895         2.09573         2.09573 
       0.711789         2.14244         2.05473         2.05473 
       0.717957         2.09593         2.01454         2.01454 
        0.72409         2.05688         1.97565         1.97565 
       0.730186         2.01922         1.93801         1.93801 
       0.736317          1.9929         1.90115         1.90115 
       0.742472         1.95409         1.86511         1.86511 
       0.748622         1.91383         1.83004         1.83004 
        0.75476         1.87208         1.79594         1.79594 
       0.760888         1.83956         1.76278         1.76278 
       0.767043         1.81695         1.73032         1.73032 
       0.773185         1.77593         1.69875         1.69875 
       0.779291         1.74851         1.66815         1.66815 
       0.785407         1.71673         1.63827         1.63827 
       0.791564         1.68913         1.60894         1.60894 
       0.797719         1.66187         1.58034         1.58034 
       0.803834         1.63585         1.55262         1.55262 
       0.809972         1.60627         1.52546         1.52546 
       0.816124         1.57443          1.4989          1.4989 
       0.822261         1.54447         1.47305         1.47305 
       0.828378         1.52355         1.44788         1.44788 
       0.834502         1.50306         1.42328         1.42328 
       0.840667         1.46987          1.3991          1.3991 
       0.846816         1.44615         1.37555         1.37555 
       0.852925         1.42963         1.35269         1.35269 
       0.859047         1.40527         1.33031         1.33031 
       0.865192         1.38047         1.30836         1.30836 
       0.871341         1.35966         1.28689         1.28689 
       0.877463         1.34153           1.266           1.266 
       0.883569         1.31566         1.24563         1.24563 
       0.889708         1.29541          1.2256          1.2256 
       0.895864         1.27453         1.20597         1.20597 
       0.902008         1.25387         1.18681         1.18681 
       0.908149         1.23587         1.16807         1.16807 
       0.914301         1.21122         1.14972         1.14972 
       0.920448         1.19483         1.13177         1.13177 
       0.926574         1.17606         1.11427         1.11427 
       0.932687         1.15854         1.09718         1.09718 
       0.938823         1.14571         1.08039         1.08039 
       0.944975         1.12817         1.06391         1.06391 
       0.951105         1.11194         1.04783         1.04783 
       0.957225         1.09995         1.03212         1.03212 
       0.963368         1.08166         1.01667         1.01667 
       0.969511         1.06342         1.00154         1.00154 
       0.975621         1.04648        0.986799        0.986799 
       0.981748         1.03616        0.972317        0.972317 
       0.987916         1.01907        0.958035        0.958035 
        0.99406         1.00265        0.944095        0.944095 
        1.00019        0.992035        0.930459        0.930459 
        1.00632        0.974479        0.917106        0.917106 
        1.01246        0.961593        0.903995        0.903995 
        1.01859        0.950088        0.891162        0.891162 
        1.02471        0.935788        0.878593        0.878593 
        1.03085        0.925249        0.866224        0.866224 
        1.03698        0.910577        0.854119        0.854119 
        1.04314        0.899374        0.842194        0.842194 
        1.04929        0.886107        0.830524        0.830524 
        1.05541         0.87598        0.819123        0.819123 
        1.06154        0.862565        0.807908        0.807908 
        1.06769        0.851202        0.796886        0.796886 
        1.07382        0.840284        0.786106        0.786106 
        1.07993        0.827036         0.77555         0.77555 
        1.08607        0.820562        0.765145        0.765145 
        1.09222        0.807394        0.754921        0.754921 
        1.09836         0.80026        0.744896        0.744896 
        1.10449        0.789871        0.735064        0.735064 
        1.11063        0.776213          0.7254          0.7254 
        1.11677        0.765923        0.715913        0.715913 
         1.1229        0.757102        0.706612        0.706612 
        1.12903        0.746975        0.697468        0.697468 
        1.13518        0.739552        0.688479        0.688479 
        1.14131        0.728354        0.679653        0.679653 
        1.14745        0.715477        0.670987        0.670987 
        1.15359        0.710102        0.662471        0.662471 
        1.15973        0.698454        0.654099        0.654099 
        1.16584         0.69492        0.645909        0.645909 
        1.17197        0.684543        0.637848        0.637848 
        1.17811        0.677528          0.6299          0.6299 
        1.18424        0.670685        0.622111        0.622111 
        1.19038        0.660027         0.61443         0.61443 
        1.19652        0.651415        0.606883        0.606883 
        1.20267        0.646282        0.599462        0.599462 
        1.20881        0.636419        0.592167        0.592167 
        1.21495         0.63105        0.585004        0.585004 
        1.22108        0.623055        0.577961        0.577961 
         1.2272        0.617036         0.57105         0.57105 
        1.23334         0.60815        0.564236        0.564236 
        1.23949        0.601364        0.557517        0.557517 
        1.24562         0.59511        0.550926        0.550926 
        1.25174         0.58858        0.544451        0.544451 
        1.25789        0.582191         0.53806         0.53806 
        1.26402        0.573403        0.531783        0.531783 
        1.27014        0.567341        0.525622        0.525622 
        1.27628        0.563288        0.519539        0.519539 
        1.28244        0.553995        0.513542        0.513542 
        1.28858        0.548926        0.507646        0.507646 
        1.29471        0.543859        0.501857        0.501857 
        1.30084        0.536498        0.496163        0.496163 
        1.30697          0.5307        0.490549        0.490549 
        1.31312        0.522901        0.485013        0.485013 
        1.31925        0.518902        0.479581        0.479581 
        1.32537        0.513855        0.474237        0.474237 
        1.33151        0.509303        0.468955        0.468955 
        1.33765        0.503059        0.463757        0.463757 
        1.34378        0.496262        0.458647        0.458647 
        1.34992        0.492316        0.453612        0.453612 
        1.35606        0.486263         0.44864         0.44864 
         1.3622        0.481637        0.443752        0.443752 
        1.36833        0.476202        0.438949        0.438949 
        1.37445        0.469798        0.434219        0.434219 
        1.38059        0.465481        0.429544        0.429544 
        1.38675        0.463513        0.424927        0.424927 
        1.39288        0.456793        0.420396        0.420396 
        1.39901        0.452114        0.415933        0.415933 
        1.40515        0.447778        0.411525        0.411525 
         1.4113        0.442262        0.407182        0.407182 
        1.41742        0.437991        0.402919        0.402919 
        1.42355        0.435463        0.398708        0.398708 
         1.4297        0.429029        0.394545        0.394545 
        1.43585        0.425179        0.390443        0.390443 
        1.44198        0.422712        0.386415        0.386415 
        1.44809        0.416726        0.382451        0.382451 
        1.45423        0.412906        0.378528        0.378528 
        1.46036        0.408726        0.374667        0.374667 
        1.46649        0.405023        0.370859        0.370859 
        1.47263        0.400439          0.3671          0.3671 
        1.47877        0.396148        0.363395        0.363395 
        1.48491        0.392663        0.359735        0.359735 
        1.49104        0.388041        0.356133        0.356133 
        1.49718        0.385021        0.352577        0.352577 
        1.50333        0.381142        0.349065        0.349065 
        1.50947        0.377702        0.345607        0.345607 
         1.5156        0.373673        0.342201        0.342201 
        1.52172        0.370173         0.33884         0.33884 
        1.52787         0.36644        0.335519        0.335519 
          1.534        0.363261        0.332245        0.332245 
        1.54013        0.358992        0.329019        0.329019 
        1.54627         0.35607        0.325829        0.325829 
        1.55241        0.352448        0.322681        0.322681 
        1.55855        0.348953        0.319579        0.319579 
        1.56467        0.347093        0.316527        0.316527 
         1.5708        0.342755        0.313505        0.313505 
        1.57695        0.340246        0.310519        0.310519 
        1.58308        0.336617        0.307578        0.307578 
        1.58922        0.333749        0.304673        0.304673 
        1.59535        0.330434        0.301807        0.301807 
         1.6015        0.327433        0.298973        0.298973 
        1.60764        0.324762        0.296177        0.296177 
        1.61376        0.320878        0.293425        0.293425 
        1.61989          0.3187        0.290705        0.290705 
        1.62604        0.315788        0.288014        0.288014 
        1.63218        0.313285        0.285358        0.285358 
        1.63831        0.310568        0.282741        0.282741 
        1.64444        0.307315        0.280157        0.280157 
        1.65059        0.304628        0.277598        0.277598 
        1.65673        0.301925        0.275074        0.275074 
        1.66285        0.299432        0.272589        0.272589 
        1.66898        0.297343        0.270133        0.270133 
        1.67512         0.29362        0.267703        0.267703 
        1.68127        0.291088          0.2653          0.2653 
         1.6874        0.289544        0.262932        0.262932 
        1.69353        0.286316        0.260595        0.260595 
        1.69967        0.284064         0.25828         0.25828 
        1.70581        0.281333        0.255994        0.255994 
        1.71193        0.279145        0.253745        0.253745 
        1.71806        0.276546        0.251518        0.251518 
        1.72421        0.274443        0.249313        0.249313 
        1.73035        0.271627        0.247137        0.247137 
        1.73649        0.270103        0.244987        0.244987 
        1.74262        0.267509        0.242865        0.242865 
        1.74876        0.264913        0.240766        0.240766 
        1.75489        0.262868        0.238696        0.238696 
        1.76101        0.260339        0.236651        0.236651 
        1.76715        0.258318        0.234628        0.234628 
        1.77329        0.256215        0.232625        0.232625 
        1.77943        0.253696        0.230645        0.230645 
        1.78557        0.252073        0.228691        0.228691 
        1.79171        0.250075        0.226758        0.226758 
        1.79785        0.247824        0.224848        0.224848 
        1.80399        0.245794         0.22296         0.22296 
        1.81012        0.243883        0.221096        0.221096 
        1.81625        0.241818        0.219255        0.219255 
        1.82239        0.240226        0.217431        0.217431 
        1.82853        0.237388        0.215629        0.215629 
        1.83466        0.235857        0.213849        0.213849 
        1.84078        0.233767        0.212091        0.212091 
        1.84692          0.2321         0.21035         0.21035 
        1.85306        0.230691        0.208627        0.208627 
         1.8592        0.228464        0.206925        0.206925 
        1.86533        0.226916        0.205243        0.205243 
        1.87147        0.224883        0.203578        0.203578 
