# k  (h/Mpc)    P(k)  (Mpc/h)^3    P_linear(k)  (Mpc/h)^3     P_NL(k)  ShotnoiseSubtracted = false
     0.00783031         4077.51         4124.92         4124.92 
       0.013688         4816.56         4803.66         4803.66 
       0.019231         4642.09         4632.98         4632.98 
      0.0249154         4055.44         4090.18         4090.18 
      0.0312784         3384.78         3388.36         3388.36 
      0.0375637         2812.69         2799.03         2799.03 
      0.0433917         2397.51         2404.07         2404.07 
      0.0492413          2142.3         2139.29         2139.29 
      0.0555754         1932.67         1949.53         1949.53 
      0.0619321         1812.87         1799.88         1799.88 
       0.067871         1646.19         1656.22         1656.22 
      0.0738098         1484.48         1493.56         1493.56 
      0.0800417         1297.92         1309.97         1309.97 
      0.0862327         1133.67         1135.26         1135.26 
      0.0921407         1001.24           994.1           994.1 
      0.0982031         886.801         884.582         884.582 
       0.104506         821.971         807.277         807.277 
       0.110769          768.34         757.314         757.314 
       0.116806         726.269         721.417         721.417 
       0.122832         694.127         685.906         685.906 
       0.129052         643.511         642.184         642.184 
       0.135211          593.96         590.795         590.795 
       0.141259         546.798          536.72          536.72 
       0.147318         499.235          485.18          485.18 
       0.153489         452.322         440.704         440.704 
       0.159709         420.578         406.555         406.555 
       0.165845         400.438          382.66          382.66 
       0.171974         378.555         365.567         365.567 
       0.178125         364.238         351.356         351.356 
       0.184229         349.992          336.79          336.79 
        0.19034         326.823         319.831         319.831 
       0.196428         312.922          300.47          300.47 
       0.202534         296.705         279.914         279.914 
       0.208729         275.513          259.86          259.86 
       0.214876         256.794          242.42          242.42 
       0.220989         245.693         228.309         228.309 
       0.227147         231.984         217.226         217.226 
        0.23329         222.856          208.46          208.46 
       0.239377         216.414         200.885         200.885 
       0.245482         204.279         193.353         193.353 
       0.251667         199.326         185.157         185.157 
       0.257832         190.951         176.313         176.313 
       0.263955         181.844         167.205         167.205 
       0.270079         173.349          158.34          158.34 
        0.27624         167.789         150.184         150.184 
       0.282372         160.663         143.128         143.128 
        0.28843         153.874         137.212         137.212 
       0.294538          147.52         132.091         132.091 
       0.300721         144.637         127.438         127.438 
        0.30691         138.145         122.962         122.962 
       0.313033         133.821         118.492         118.492 
       0.319153          127.41         113.901         113.901 
       0.325316         124.644         109.233         109.233 
        0.33145         119.337         104.684         104.684 
       0.337538         116.278         100.426         100.426 
       0.343633         111.814          96.527          96.527 
       0.349808         108.176         92.9722         92.9722 
       0.355968         105.482         89.7794         89.7794 
       0.362074         102.151         86.8612         86.8612 
       0.368217         98.9507         84.0748         84.0748 
       0.374374          95.895         81.3437         81.3437 
       0.380519         93.4882         78.6404         78.6404 
       0.386598         90.7126         75.9962         75.9962 
       0.392688         88.6955         73.4049         73.4049 
        0.39888          85.999         70.8792         70.8792 
       0.405048          83.655         68.5107         68.5107 
       0.411186         81.5395         66.3088         66.3088 
       0.417313         79.1148          64.264          64.264 
       0.423458         77.0395         62.3399         62.3399 
       0.429607         74.9801         60.5056         60.5056 
       0.435692         72.4804          58.755          58.755 
       0.441815         71.4949         57.0413         57.0413 
       0.447964         70.0746         55.3581         55.3581 
       0.454126         66.9002         53.7166         53.7166 
       0.460267          65.898         52.1388         52.1388 
       0.466387           64.27         50.6334         50.6334 
        0.47254         62.9938         49.1901         49.1901 
       0.478662         61.9665         47.8257         47.8257 
       0.484765         60.0773         46.5327         46.5327 
       0.490885         58.7915         45.2918         45.2918 
       0.497035         57.8977         44.0897         44.0897 
       0.503198         56.2158         42.9233         42.9233 
       0.509342          54.822         41.7963         41.7963 
       0.515458         53.7319         40.7087         40.7087 
       0.521598         52.8362         39.6506         39.6506 
       0.527764         51.7791         38.6241         38.6241 
       0.533884         50.8667         37.6431         37.6431 
           0.54         49.6461         36.7022         36.7022 
       0.546137         48.9474         35.7954         35.7954 
       0.552299         48.1214         34.9185         34.9185 
       0.558452         46.7167          34.073          34.073 
       0.564573         45.8653         33.2585         33.2585 
       0.570708         45.1621         32.4674         32.4674 
       0.576825         44.2151         31.7033         31.7033 
       0.582926         43.2397          30.965          30.965 
       0.589034         42.1859         30.2488         30.2488 
       0.595184         41.6121         29.5504         29.5504 
       0.601379         40.8826         28.8696         28.8696 
       0.607522         39.9202         28.2162         28.2162 
       0.613639         39.6473         27.5868         27.5868 
       0.619772         38.6491          26.976          26.976 
       0.625918         38.2834         26.3832         26.3832 
       0.632068         37.7078         25.8082         25.8082 
       0.638161         36.9803         25.2554         25.2554 
         0.6443         36.3008         24.7143         24.7143 
       0.650464         35.6611         24.1867         24.1867 
       0.656582         35.3192          23.678          23.678 
       0.662703         34.5765         23.1836         23.1836 
       0.668861         34.0139         22.7006         22.7006 
       0.675024         33.4329         22.2312         22.2312 
       0.681124         32.8493         21.7801         21.7801 
       0.687237         32.2178          21.341          21.341 
       0.693381         31.9372         20.9121         20.9121 
       0.699536         31.2163         20.4945         20.4945 
       0.705665         31.2061         20.0902         20.0902 
       0.711789         30.3492         19.6971         19.6971 
       0.717957         29.9715         19.3119         19.3119 
        0.72409         29.5501          18.939          18.939 
       0.730186         29.0576         18.5782         18.5782 
       0.736317         28.8004         18.2249         18.2249 
       0.742472         28.2744         17.8794         17.8794 
       0.748622         27.9821         17.5432         17.5432 
        0.75476          27.531         17.2163         17.2163 
       0.760888         27.0681         16.8984         16.8984 
       0.767043         26.7268         16.5873         16.5873 
       0.773185         26.2947         16.2846         16.2846 
       0.779291         26.1386         15.9913         15.9913 
       0.785407         25.8671         15.7049         15.7049 
       0.791564         25.3715         15.4236         15.4236 
       0.797719          24.796         15.1495         15.1495 
       0.803834         24.7417         14.8838         14.8838 
       0.809972         24.4029         14.6235         14.6235 
       0.816124          23.912         14.3688         14.3688 
       0.822261         23.6923          14.121          14.121 
       0.828378         23.5083         13.8797         13.8797 
       0.834502         23.2114         13.6439         13.6439 
       0.840667         22.8997         13.4121         13.4121 
       0.846816          22.495         13.1864         13.1864 
       0.852925         22.2879         12.9672         12.9672 
       0.859047         22.0051         12.7526         12.7526 
       0.865192         21.7506         12.5422         12.5422 
       0.871341         21.6065         12.3364         12.3364 
       0.877463         21.1785         12.1362         12.1362 
       0.883569         20.9347         11.9409         11.9409 
       0.889708         20.6767         11.7489         11.7489 
       0.895864          20.466         11.5607         11.5607 
       0.902008         20.2875          11.377          11.377 
       0.908149         20.0555         11.1974         11.1974 
       0.914301         19.9589         11.0215         11.0215 
       0.920448         19.5757         10.8494         10.8494 
       0.926574          19.391         10.6817         10.6817 
       0.932687         19.1544         10.5179         10.5179 
       0.938823         18.8909         10.3569         10.3569 
       0.944975         18.7317         10.1989         10.1989 
       0.951105         18.5329         10.0448         10.0448 
       0.957225         18.3054         9.89412         9.89412 
       0.963368         18.2106         9.74604         9.74604 
       0.969511          18.003           9.601           9.601 
       0.975621         17.8545         9.45969         9.45969 
       0.981748         17.5696         9.32086         9.32086 
       0.987916         17.4375         9.18396         9.18396 
        0.99406         17.2532         9.05032         9.05032 
        1.00019          17.021          8.9196          8.9196 
        1.00632         16.9146          8.7916          8.7916 
        1.01246         16.8005         8.66591         8.66591 
        1.01859         16.5029         8.54289         8.54289 
        1.02471         16.4394          8.4224          8.4224 
        1.03085         16.2872         8.30383         8.30383 
        1.03698         15.9938         8.18779         8.18779 
        1.04314         15.8998         8.07347         8.07347 
        1.04929         15.7174          7.9616          7.9616 
        1.05541         15.5322         7.85231         7.85231 
        1.06154         15.4528          7.7448          7.7448 
        1.06769         15.3309         7.63914         7.63914 
        1.07382         15.1634          7.5358          7.5358 
        1.07993         15.0514         7.43461         7.43461 
        1.08607         14.8432         7.33486         7.33486 
        1.09222         14.7616         7.23685         7.23685 
        1.09836          14.575         7.14075         7.14075 
        1.10449         14.4735          7.0465          7.0465 
        1.11063         14.2732         6.95385         6.95385 
        1.11677         14.2214         6.86291         6.86291 
         1.1229         14.1336         6.77375         6.77375 
        1.12903         13.9388          6.6861          6.6861 
        1.13518         13.7879         6.59992         6.59992 
        1.14131         13.7367         6.51532         6.51532 
        1.14745         13.5966         6.43224         6.43224 
        1.15359         13.5205          6.3506          6.3506 
        1.15973          13.354         6.27035         6.27035 
        1.16584         13.1797         6.19184         6.19184 
        1.17197         13.1737         6.11456         6.11456 
        1.17811         12.9981         6.03837         6.03837 
        1.18424         12.8852          5.9637          5.9637 
        1.19038         12.8243         5.89007         5.89007 
        1.19652         12.7176         5.81772         5.81772 
        1.20267         12.5998         5.74658         5.74658 
        1.20881         12.5029         5.67665         5.67665 
        1.21495         12.4099         5.60799         5.60799 
        1.22108         12.2871         5.54047         5.54047 
         1.2272         12.1603         5.47422         5.47422 
        1.23334         12.0967          5.4089          5.4089 
        1.23949         11.9676         5.34449         5.34449 
        1.24562         11.9073         5.28131         5.28131 
        1.25174         11.8317         5.21924         5.21924 
        1.25789         11.7129         5.15797         5.15797 
        1.26402         11.6738          5.0978          5.0978 
        1.27014         11.5266         5.03873         5.03873 
        1.27628         11.4146         4.98043         4.98043 
        1.28244         11.3506         4.92293         4.92293 
        1.28858         11.3138         4.86642         4.86642 
        1.29471          11.198         4.81092         4.81092 
        1.30084         11.0928         4.75633         4.75633 
        1.30697         11.0142         4.70252         4.70252 
        1.31312         10.8947         4.64945         4.64945 
        1.31925         10.8183         4.59737         4.59737 
        1.32537         10.7778         4.54614         4.54614 
        1.33151         10.6821         4.49551         4.49551 
        1.33765         10.6172         4.44568         4.44568 
        1.34378         10.5407          4.3967          4.3967 
        1.34992         10.4179         4.34843         4.34843 
        1.35606         10.3971         4.30077         4.30077 
         1.3622         10.3225         4.25391         4.25391 
        1.36833         10.2059         4.20787         4.20787 
        1.37445          10.177         4.16252         4.16252 
        1.38059         10.0837         4.11771         4.11771 
        1.38675         9.97216         4.07345         4.07345 
        1.39288          9.9472         4.03001         4.03001 
        1.39901         9.86246         3.98723         3.98723 
        1.40515         9.81263         3.94497         3.94497 
         1.4113         9.72303         3.90334         3.90334 
        1.41742         9.64471         3.86247         3.86247 
        1.42355         9.59208         3.82211         3.82211 
         1.4297         9.55296          3.7822          3.7822 
        1.43585         9.49518         3.74288         3.74288 
        1.44198         9.40986         3.70426         3.70426 
        1.44809         9.34464         3.66627         3.66627 
        1.45423         9.27897         3.62866         3.62866 
        1.46036         9.22209         3.59165         3.59165 
        1.46649         9.17723         3.55514         3.55514 
        1.47263         9.08622         3.51911         3.51911 
        1.47877          9.0362         3.48359         3.48359 
        1.48491         8.99588          3.4485          3.4485 
        1.49104         8.94416         3.41397         3.41397 
        1.49718         8.86982         3.37989         3.37989 
        1.50333         8.81588         3.34621         3.34621 
        1.50947         8.75774         3.31307         3.31307 
         1.5156         8.69244         3.28041         3.28041 
        1.52172         8.64916          3.2482          3.2482 
        1.52787         8.59591         3.21636         3.21636 
          1.534         8.52936         3.18498         3.18498 
        1.54013         8.46088         3.15405         3.15405 
        1.54627         8.41009         3.12347         3.12347 
        1.55241         8.36713          3.0933          3.0933 
        1.55855         8.31482         3.06356         3.06356 
        1.56467         8.25911          3.0343          3.0343 
         1.5708         8.24801         3.00534         3.00534 
        1.57695         8.16358         2.97671         2.97671 
        1.58308         8.12208         2.94851         2.94851 
        1.58922         8.07948         2.92067         2.92067 
        1.59535         8.02922         2.89319         2.89319 
         1.6015         7.96616         2.86603         2.86603 
        1.60764         7.92179         2.83922         2.83922 
        1.61376         7.88589         2.81284         2.81284 
        1.61989         7.81847         2.78677         2.78677 
        1.62604         7.80333         2.76096         2.76096 
        1.63218         7.74649          2.7355          2.7355 
        1.63831         7.70619         2.71042         2.71042 
        1.64444         7.63742         2.68565         2.68565 
        1.65059         7.59445         2.66112         2.66112 
        1.65673         7.57984         2.63692         2.63692 
        1.66285         7.49757          2.6131          2.6131 
        1.66898          7.4799         2.58956         2.58956 
        1.67512         7.44264         2.56626         2.56626 
        1.68127         7.39763         2.54323         2.54323 
         1.6874         7.34724         2.52053         2.52053 
        1.69353         7.29001         2.49812         2.49812 
        1.69967         7.26633         2.47593         2.47593 
        1.70581         7.23374         2.45402         2.45402 
        1.71193         7.17263         2.43246         2.43246 
        1.71806         7.14464         2.41111         2.41111 
        1.72421         7.10085         2.38997         2.38997 
        1.73035         7.06469         2.36911         2.36911 
        1.73649         7.03155          2.3485          2.3485 
        1.74262         6.99763         2.32816         2.32816 
        1.74876         6.96123         2.30804         2.30804 
        1.75489         6.92044          2.2882          2.2882 
        1.76101         6.86345         2.26859         2.26859 
        1.76715         6.85494         2.24919         2.24919 
        1.77329         6.78951            2.23            2.23 
        1.77943          6.7599         2.21101         2.21101 
        1.78557         6.73856         2.19228         2.19228 
        1.79171         6.71076         2.17376         2.17376 
        1.79785         6.64781         2.15545         2.15545 
        1.80399         6.62358         2.13735         2.13735 
        1.81012         6.60064         2.11948         2.11948 
        1.81625         6.55299         2.10183         2.10183 
        1.82239         6.51904         2.08435         2.08435 
        1.82853         6.47483         2.06707         2.06707 
        1.83466         6.44097         2.05001         2.05001 
        1.84078         6.40899         2.03316         2.03316 
        1.84692         6.38975         2.01647         2.01647 
        1.85306         6.34431         1.99994         1.99994 
         1.8592         6.31677         1.98363         1.98363 
        1.86533         6.28878         1.96751         1.96751 
        1.87147         6.25516         1.95154         1.95154 
        1.87761         6.23087         1.93575         1.93575 
