# k  (h/Mpc)    Pcb(k)  (Mpc/h)^3    Pcb_linear(k) (Mpc/h)^3    Pcb_NL(k) (Mpc/h)^3   ShotnoiseSubtracted = false
     0.00783031          1682.5         1700.43         1700.43 
       0.013688         1980.21         1980.69         1980.69 
       0.019231         1912.21          1910.5          1910.5 
      0.0249154         1677.47         1686.74         1686.74 
      0.0312784         1397.69         1397.36         1397.36 
      0.0375637         1159.11         1154.34         1154.34 
      0.0433917         990.899         991.472         991.472 
      0.0492413         883.759         882.279         882.279 
      0.0555754         800.277         804.025         804.025 
      0.0619321          746.05         742.309         742.309 
       0.067871         680.734          683.06          683.06 
      0.0738098         613.641         615.977         615.977 
      0.0800417         537.158         540.265         540.265 
      0.0862327         467.766         468.211         468.211 
      0.0921407         411.424         409.993         409.993 
      0.0982031         364.863         364.825         364.825 
       0.104506         336.134         332.942         332.942 
       0.110769         314.517         312.337         312.337 
       0.116806         297.762         297.532         297.532 
       0.122832          284.28         282.887         282.887 
       0.129052         264.501         264.855         264.855 
       0.135211         243.556          243.66          243.66 
       0.141259         222.939         221.358         221.358 
       0.147318         202.768         200.102         200.102 
       0.153489         183.773         181.759         181.759 
       0.159709         170.048         167.675         167.675 
       0.165845         161.339          157.82          157.82 
       0.171974          152.69         150.771         150.771 
       0.178125         146.974         144.909         144.909 
       0.184229         141.187         138.902         138.902 
        0.19034         132.587         131.907         131.907 
       0.196428         125.869         123.923         123.923 
       0.202534         118.652         115.445         115.445 
       0.208729         109.857         107.174         107.174 
       0.214876         102.164         99.9809         99.9809 
       0.220989         97.3251         94.1613         94.1613 
       0.227147         91.8189         89.5905         89.5905 
        0.23329         88.1474         85.9749         85.9749 
       0.239377          85.242         82.8509         82.8509 
       0.245482          81.243         79.7448         79.7448 
       0.251667         78.6633         76.3643         76.3643 
       0.257832         75.0253         72.7165         72.7165 
       0.263955           71.29         68.9602         68.9602 
       0.270079         67.7809         65.3041         65.3041 
        0.27624         65.0233         61.9403         61.9403 
       0.282372         62.1185         59.0302         59.0302 
        0.28843         59.3318         56.5901         56.5901 
       0.294538         57.0293         54.4784         54.4784 
       0.300721         55.5212         52.5591         52.5591 
        0.30691         53.1881         50.7132         50.7132 
       0.313033         51.3227         48.8698         48.8698 
       0.319153         48.8064         46.9764         46.9764 
       0.325316           47.71         45.0508         45.0508 
        0.33145         45.6025         43.1748         43.1748 
       0.337538         44.0343         41.4189         41.4189 
       0.343633         42.2482         39.8105         39.8105 
       0.349808         40.8822         38.3446         38.3446 
       0.355968         39.6284         37.0278         37.0278 
       0.362074         38.3024         35.8241         35.8241 
       0.368217         37.0718          34.675          34.675 
       0.374374         35.8343         33.5485         33.5485 
       0.380519         34.8362         32.4336         32.4336 
       0.386598         33.7599         31.3432         31.3432 
       0.392688         32.8649         30.2744         30.2744 
        0.39888         31.7215         29.2328         29.2328 
       0.405048         30.8132         28.2558         28.2558 
       0.411186         29.9345         27.3478         27.3478 
       0.417313         28.9152         26.5044         26.5044 
       0.423458           28.11         25.7109         25.7109 
       0.429607         27.2762         24.9543         24.9543 
       0.435692         26.4464         24.2323         24.2323 
       0.441815         25.8409         23.5256         23.5256 
       0.447964          25.292         22.8314         22.8314 
       0.454126         24.2802         22.1543         22.1543 
       0.460267         23.7497         21.5036         21.5036 
       0.466387         22.9713         20.8828         20.8828 
        0.47254         22.5128         20.2875         20.2875 
       0.478662         22.0363         19.7248         19.7248 
       0.484765         21.3409         19.1915         19.1915 
       0.490885         20.8202         18.6797         18.6797 
       0.497035         20.4745         18.1839         18.1839 
       0.503198         19.8932         17.7029         17.7029 
       0.509342         19.3749          17.238          17.238 
       0.515458         18.8678         16.7895         16.7895 
       0.521598         18.4782         16.3531         16.3531 
       0.527764         18.0124         15.9297         15.9297 
       0.533884         17.6743         15.5252         15.5252 
           0.54         17.2323         15.1371         15.1371 
       0.546137         16.8929         14.7631         14.7631 
       0.552299         16.5499         14.4014         14.4014 
       0.558452         16.0248         14.0527         14.0527 
       0.564573         15.7694         13.7168         13.7168 
       0.570708         15.4406         13.3905         13.3905 
       0.576825         15.0233         13.0754         13.0754 
       0.582926         14.7243         12.7709         12.7709 
       0.589034         14.2898         12.4755         12.4755 
       0.595184         14.0678         12.1875         12.1875 
       0.601379         13.7409         11.9067         11.9067 
       0.607522         13.4999         11.6372         11.6372 
       0.613639         13.3019         11.3776         11.3776 
       0.619772          12.931         11.1257         11.1257 
       0.625918          12.806         10.8812         10.8812 
       0.632068         12.5798         10.6441         10.6441 
       0.638161         12.2475         10.4161         10.4161 
         0.6443         11.9862         10.1929         10.1929 
       0.650464          11.725         9.97534         9.97534 
       0.656582           11.62         9.76552         9.76552 
       0.662703         11.3794         9.56162         9.56162 
       0.668861         11.1468         9.36241         9.36241 
       0.675024         10.9093         9.16881         9.16881 
       0.681124         10.7103         8.98278         8.98278 
       0.687237          10.515         8.80166         8.80166 
       0.693381         10.3596          8.6248          8.6248 
       0.699536         10.0756         8.45255         8.45255 
       0.705665         9.96109         8.28579         8.28579 
       0.711789         9.76079         8.12369         8.12369 
       0.717957         9.58438         7.96481         7.96481 
        0.72409         9.41199         7.81103         7.81103 
       0.730186         9.27872         7.66223         7.66223 
       0.736317           9.153         7.51648         7.51648 
       0.742472         8.98934         7.37399         7.37399 
       0.748622         8.84074         7.23533         7.23533 
        0.75476         8.64192         7.10054         7.10054 
       0.760888         8.51594         6.96941         6.96941 
       0.767043         8.39928         6.84109         6.84109 
       0.773185         8.21744         6.71628         6.71628 
       0.779291         8.13965         6.59531         6.59531 
       0.785407         8.00984         6.47716         6.47716 
       0.791564         7.86611         6.36118         6.36118 
       0.797719         7.69983         6.24811         6.24811 
       0.803834         7.64991         6.13851         6.13851 
       0.809972         7.55235         6.03116         6.03116 
       0.816124         7.36961         5.92615         5.92615 
       0.822261         7.25342         5.82392         5.82392 
       0.828378         7.16501         5.72443         5.72443 
       0.834502         7.08761         5.62718         5.62718 
       0.840667         6.94741         5.53157         5.53157 
       0.846816         6.81526         5.43845         5.43845 
       0.852925         6.74679         5.34808         5.34808 
       0.859047         6.64543         5.25957         5.25957 
       0.865192         6.57428         5.17279         5.17279 
       0.871341          6.4881         5.08791         5.08791 
       0.877463         6.37374         5.00533         5.00533 
       0.883569         6.26255         4.92479         4.92479 
       0.889708         6.15058         4.84562         4.84562 
       0.895864         6.08382         4.76799         4.76799 
       0.902008         6.01709         4.69223         4.69223 
       0.908149         5.94272         4.61817         4.61817 
       0.914301         5.84988         4.54558         4.54558 
       0.920448         5.75004         4.47464         4.47464 
       0.926574         5.67356         4.40545         4.40545 
       0.932687         5.60472         4.33788         4.33788 
       0.938823         5.52337         4.27149         4.27149 
       0.944975         5.44403         4.20633         4.20633 
       0.951105          5.3814         4.14277         4.14277 
       0.957225         5.34466         4.08064         4.08064 
       0.963368         5.26037         4.01956         4.01956 
       0.969511         5.19092         3.95974         3.95974 
       0.975621         5.12072         3.90146         3.90146 
       0.981748         5.05588         3.84421         3.84421 
       0.987916         4.99835         3.78774         3.78774 
        0.99406         4.91189         3.73263         3.73263 
        1.00019         4.83464         3.67872         3.67872 
        1.00632         4.80357         3.62592         3.62592 
        1.01246         4.74098         3.57408         3.57408 
        1.01859         4.66881         3.52335         3.52335 
        1.02471         4.62276         3.47366         3.47366 
        1.03085         4.56228         3.42475         3.42475 
        1.03698         4.49184         3.37689         3.37689 
        1.04314         4.45211         3.32974         3.32974 
        1.04929         4.39192         3.28361         3.28361 
        1.05541          4.3312         3.23853         3.23853 
        1.06154         4.29041         3.19419         3.19419 
        1.06769         4.26091         3.15061         3.15061 
        1.07382         4.18801         3.10799         3.10799 
        1.07993          4.1329         3.06626         3.06626 
        1.08607         4.10305         3.02512         3.02512 
        1.09222         4.05027          2.9847          2.9847 
        1.09836          4.0002         2.94506         2.94506 
        1.10449         3.95806         2.90619         2.90619 
        1.11063         3.90648         2.86798         2.86798 
        1.11677         3.87353         2.83047         2.83047 
         1.1229         3.83098          2.7937          2.7937 
        1.12903         3.77906         2.75755         2.75755 
        1.13518          3.7346         2.72201         2.72201 
        1.14131         3.68522         2.68711         2.68711 
        1.14745         3.63774         2.65285         2.65285 
        1.15359         3.61389         2.61918         2.61918 
        1.15973         3.56536         2.58608         2.58608 
        1.16584          3.5212          2.5537          2.5537 
        1.17197         3.48672         2.52183         2.52183 
        1.17811         3.46188         2.49041         2.49041 
        1.18424         3.42156         2.45961         2.45961 
        1.19038         3.39432         2.42925         2.42925 
        1.19652           3.352         2.39941         2.39941 
        1.20267         3.31283         2.37007         2.37007 
        1.20881          3.2869         2.34122         2.34122 
        1.21495         3.25293          2.3129          2.3129 
        1.22108         3.21205         2.28506         2.28506 
         1.2272         3.18529         2.25774         2.25774 
        1.23334         3.14012          2.2308          2.2308 
        1.23949         3.10795         2.20423         2.20423 
        1.24562         3.08558         2.17817         2.17817 
        1.25174         3.04856         2.15257         2.15257 
        1.25789         3.02307          2.1273          2.1273 
        1.26402         2.99472         2.10249         2.10249 
        1.27014         2.96181         2.07813         2.07813 
        1.27628         2.93284         2.05408         2.05408 
        1.28244         2.89303         2.03037         2.03037 
        1.28858         2.88086         2.00706         2.00706 
        1.29471          2.8415         1.98417         1.98417 
        1.30084         2.80989         1.96166         1.96166 
        1.30697         2.80285         1.93946         1.93946 
        1.31312         2.74727         1.91758         1.91758 
        1.31925         2.72845          1.8961          1.8961 
        1.32537          2.7004         1.87497         1.87497 
        1.33151         2.68957         1.85409         1.85409 
        1.33765         2.64951         1.83353         1.83353 
        1.34378         2.62949         1.81333         1.81333 
        1.34992         2.61132         1.79342         1.79342 
        1.35606         2.57167         1.77377         1.77377 
         1.3622         2.55873         1.75444         1.75444 
        1.36833         2.53075         1.73545         1.73545 
        1.37445         2.50681         1.71675         1.71675 
        1.38059         2.49575         1.69827         1.69827 
        1.38675         2.47171         1.68001         1.68001 
        1.39288          2.4477          1.6621          1.6621 
        1.39901         2.41541         1.64446         1.64446 
        1.40515         2.39652         1.62703         1.62703 
         1.4113         2.37661         1.60986         1.60986 
        1.41742         2.35748           1.593           1.593 
        1.42355         2.33313         1.57635         1.57635 
         1.4297          2.3126          1.5599          1.5599 
        1.43585         2.29915         1.54368         1.54368 
        1.44198         2.28007         1.52775         1.52775 
        1.44809         2.25385         1.51208         1.51208 
        1.45423         2.23285         1.49657         1.49657 
        1.46036          2.2106         1.48131         1.48131 
        1.46649         2.19405         1.46625         1.46625 
        1.47263         2.17193         1.45139         1.45139 
        1.47877         2.15196         1.43674         1.43674 
        1.48491         2.13642         1.42227         1.42227 
        1.49104         2.11993         1.40803         1.40803 
        1.49718         2.09982         1.39397         1.39397 
        1.50333         2.08482         1.38008         1.38008 
        1.50947         2.06381         1.36641         1.36641 
         1.5156         2.04762         1.35294         1.35294 
        1.52172         2.03167         1.33966         1.33966 
        1.52787         2.01602         1.32652         1.32652 
          1.534         1.99538         1.31358         1.31358 
        1.54013         1.98221         1.30083         1.30083 
        1.54627         1.96111         1.28822         1.28822 
        1.55241         1.94364         1.27577         1.27577 
        1.55855         1.93314         1.26351         1.26351 
        1.56467         1.91727         1.25144         1.25144 
         1.5708         1.89924         1.23949         1.23949 
        1.57695         1.88332         1.22768         1.22768 
        1.58308         1.86506         1.21606         1.21606 
        1.58922         1.85649         1.20457         1.20457 
        1.59535         1.84074         1.19324         1.19324 
         1.6015         1.82436         1.18204         1.18204 
        1.60764         1.81134         1.17098         1.17098 
        1.61376         1.79827          1.1601          1.1601 
        1.61989         1.78081         1.14935         1.14935 
        1.62604         1.76659         1.13871         1.13871 
        1.63218         1.75905         1.12821         1.12821 
        1.63831         1.74047         1.11786         1.11786 
        1.64444         1.72748         1.10764         1.10764 
        1.65059         1.71163         1.09753         1.09753 
        1.65673         1.70296         1.08755         1.08755 
        1.66285         1.68448         1.07772         1.07772 
        1.66898          1.6746         1.06801         1.06801 
        1.67512         1.65843          1.0584          1.0584 
        1.68127         1.64769         1.04891         1.04891 
         1.6874         1.64064         1.03954         1.03954 
        1.69353         1.61904          1.0303          1.0303 
        1.69967         1.61006         1.02115         1.02115 
        1.70581         1.60164         1.01211         1.01211 
        1.71193          1.5867         1.00322         1.00322 
        1.71806         1.57758        0.994415        0.994415 
        1.72421         1.56527        0.985697        0.985697 
        1.73035         1.55313        0.977094        0.977094 
        1.73649         1.54078        0.968595        0.968595 
        1.74262         1.52875        0.960203        0.960203 
        1.74876         1.52051        0.951906        0.951906 
        1.75489         1.50707        0.943723        0.943723 
        1.76101         1.49396        0.935638        0.935638 
        1.76715         1.48688        0.927637        0.927637 
        1.77329         1.47754        0.919719        0.919719 
        1.77943         1.46033         0.91189         0.91189 
        1.78557         1.45276        0.904163        0.904163 
        1.79171         1.44576        0.896524        0.896524 
        1.79785         1.43141        0.888972        0.888972 
        1.80399         1.42185        0.881508        0.881508 
        1.81012         1.41253        0.874139        0.874139 
        1.81625         1.40318        0.866858        0.866858 
        1.82239         1.39208        0.859648        0.859648 
        1.82853         1.37916        0.852524        0.852524 
        1.83466         1.37416        0.845487        0.845487 
        1.84078         1.36517        0.838536        0.838536 
        1.84692         1.35585        0.831653        0.831653 
        1.85306         1.34307        0.824838        0.824838 
         1.8592         1.33329         0.81811         0.81811 
        1.86533         1.32413         0.81146         0.81146 
        1.87147         1.31798        0.804877        0.804877 
