# k  (h/Mpc)    Pcb(k)  (Mpc/h)^3    Pcb_linear(k) (Mpc/h)^3    Pcb_NL(k) (Mpc/h)^3   ShotnoiseSubtracted = false
     0.00783031         21073.8         21401.6         21401.6 
       0.013688         25202.4         24909.7         24909.7 
       0.019231           24104         24019.1         24019.1 
      0.0249154         20732.6         21202.4         21202.4 
      0.0312784         17383.2         17562.8         17562.8 
      0.0375637         14562.5         14507.4         14507.4 
      0.0433917           12275         12459.9         12459.9 
      0.0492413         11045.9         11087.3         11087.3 
      0.0555754         9805.73         10103.7         10103.7 
      0.0619321         9380.87         9327.96         9327.96 
       0.067871         8370.71         8583.32         8583.32 
      0.0738098         7574.28         7740.27         7740.27 
      0.0800417         6603.63         6788.82         6788.82 
      0.0862327         5842.15         5883.37         5883.37 
      0.0921407         5265.45         5151.79         5151.79 
      0.0982031         4671.22          4584.2          4584.2 
       0.104506          4409.5         4183.57         4183.57 
       0.110769         4108.21         3924.63         3924.63 
       0.116806         3899.24          3738.6          3738.6 
       0.122832         3704.52         3554.56         3554.56 
       0.129052         3400.61         3327.98         3327.98 
       0.135211         3169.95         3061.66         3061.66 
       0.141259         2989.47         2781.42         2781.42 
       0.147318         2780.07         2514.33         2514.33 
       0.153489         2529.39         2283.84         2283.84 
       0.159709         2389.82         2106.87         2106.87 
       0.165845         2306.89         1983.04         1983.04 
       0.171974          2196.8         1894.46         1894.46 
       0.178125         2094.73         1820.81         1820.81 
       0.184229         1996.66         1745.32         1745.32 
        0.19034         1885.44         1657.43         1657.43 
       0.196428         1829.84          1557.1          1557.1 
       0.202534          1746.8         1450.57         1450.57 
       0.208729         1655.41         1346.65         1346.65 
       0.214876         1586.89         1256.27         1256.27 
       0.220989         1526.97         1183.14         1183.14 
       0.227147         1467.94         1125.71         1125.71 
        0.23329         1410.54         1080.28         1080.28 
       0.239377         1386.66         1041.03         1041.03 
       0.245482         1299.91            1002            1002 
       0.251667         1289.97         959.522         959.522 
       0.257832         1234.26         913.687         913.687 
       0.263955         1190.02         866.488         866.488 
       0.270079         1146.14         820.549         820.549 
        0.27624         1129.79         778.282         778.282 
       0.282372         1083.21         741.716         741.716 
        0.28843         1074.43         711.057         711.057 
       0.294538          1019.4         684.523         684.523 
       0.300721         1011.84         660.406         660.406 
        0.30691         972.517         637.212         637.212 
       0.313033         951.601         614.051         614.051 
       0.319153         933.694          590.26          590.26 
       0.325316          903.42         566.064         566.064 
        0.33145         881.731         542.492         542.492 
       0.337538         862.809         520.429         520.429 
       0.343633         844.113          500.22          500.22 
       0.349808         813.479           481.8           481.8 
       0.355968         806.979         465.254         465.254 
       0.362074         798.849         450.131         450.131 
       0.368217         772.562         435.692         435.692 
       0.374374         742.379         421.537         421.537 
       0.380519         743.239         407.529         407.529 
       0.386598         719.869         393.827         393.827 
       0.392688         716.514         380.397         380.397 
        0.39888         695.027          367.31          367.31 
       0.405048         685.614         355.034         355.034 
       0.411186         675.798         343.625         343.625 
       0.417313         661.613         333.028         333.028 
       0.423458         647.293         323.057         323.057 
       0.429607         640.678         313.551         313.551 
       0.435692             625         304.479         304.479 
       0.441815         618.126         295.598         295.598 
       0.447964         605.691         286.876         286.876 
       0.454126         599.854         278.369         278.369 
       0.460267         584.116         270.193         270.193 
       0.466387         576.875         262.392         262.392 
        0.47254         572.822         254.912         254.912 
       0.478662          566.01         247.842         247.842 
       0.484765         547.626          241.14          241.14 
       0.490885         543.572         234.711         234.711 
       0.497035         532.378         228.481         228.481 
       0.503198         528.144         222.436         222.436 
       0.509342         523.675         216.596         216.596 
       0.515458         519.262          210.96          210.96 
       0.521598         504.622         205.476         205.476 
       0.527764         497.545         200.157         200.157 
       0.533884         493.739         195.074         195.074 
           0.54         488.261         190.197         190.197 
       0.546137         483.773         185.498         185.498 
       0.552299         476.764         180.954         180.954 
       0.558452         472.672         176.572         176.572 
       0.564573         467.234         172.351         172.351 
       0.570708         460.416         168.252         168.252 
       0.576825         449.273         164.292         164.292 
       0.582926          449.32         160.466         160.466 
       0.589034         444.137         156.755         156.755 
       0.595184         440.644         153.135         153.135 
       0.601379         432.671         149.607         149.607 
       0.607522         427.427         146.221         146.221 
       0.613639         425.299          142.96          142.96 
       0.619772         418.022         139.794         139.794 
       0.625918         415.398         136.722         136.722 
       0.632068         408.573         133.743         133.743 
       0.638161         406.317         130.878         130.878 
         0.6443         400.464         128.074         128.074 
       0.650464         397.644          125.34          125.34 
       0.656582         392.887         122.704         122.704 
       0.662703         392.228         120.142         120.142 
       0.668861         386.214         117.638         117.638 
       0.675024         382.405         115.206         115.206 
       0.681124         378.768         112.868         112.868 
       0.687237         375.683         110.593         110.593 
       0.693381         369.871          108.37          108.37 
       0.699536         364.837         106.206         106.206 
       0.705665         363.199         104.111         104.111 
       0.711789         361.715         102.074         102.074 
       0.717957         358.121         100.078         100.078 
        0.72409         356.169         98.1454         98.1454 
       0.730186         350.698         96.2756         96.2756 
       0.736317         348.127         94.4444         94.4444 
       0.742472          345.27          92.654          92.654 
       0.748622          342.07         90.9117         90.9117 
        0.75476         337.204         89.2181         89.2181 
       0.760888          333.87         87.5704         87.5704 
       0.767043         333.823          85.958          85.958 
       0.773185         330.631         84.3898         84.3898 
       0.779291         326.119         82.8699         82.8699 
       0.785407         324.694         81.3853         81.3853 
       0.791564         320.857          79.928          79.928 
       0.797719          318.75         78.5073         78.5073 
       0.803834         314.438         77.1302         77.1302 
       0.809972         314.133         75.7813         75.7813 
       0.816124         312.582         74.4618         74.4618 
       0.822261          309.09         73.1774         73.1774 
       0.828378         306.685         71.9272         71.9272 
       0.834502          303.02         70.7053         70.7053 
       0.840667         301.143          69.504          69.504 
       0.846816          299.58          68.334          68.334 
       0.852925         297.582         67.1984         67.1984 
       0.859047         295.136         66.0864         66.0864 
       0.865192         291.371         64.9959         64.9959 
       0.871341         288.929         63.9294         63.9294 
       0.877463         289.033         62.8917         62.8917 
       0.883569         286.078         61.8798         61.8798 
       0.889708         283.358          60.885          60.885 
       0.895864         282.804         59.9096         59.9096 
       0.902008         279.791         58.9577         58.9577 
       0.908149         276.504         58.0271         58.0271 
       0.914301         274.544         57.1151         57.1151 
       0.920448         272.836         56.2236         56.2236 
       0.926574         269.481         55.3543         55.3543 
       0.932687         269.057         54.5053         54.5053 
       0.938823         266.075         53.6711         53.6711 
       0.944975         265.987         52.8524         52.8524 
       0.951105         263.274         52.0538         52.0538 
       0.957225         261.603          51.273          51.273 
       0.963368         257.848         50.5057         50.5057 
       0.969511         257.199          49.754          49.754 
       0.975621           255.5         49.0217         49.0217 
       0.981748         253.722         48.3023         48.3023 
       0.987916         252.386         47.5928         47.5928 
        0.99406         249.452         46.9003         46.9003 
        1.00019         247.634         46.2229         46.2229 
        1.00632         246.725         45.5595         45.5595 
        1.01246         244.541         44.9082         44.9082 
        1.01859         244.496         44.2707         44.2707 
        1.02471         240.626         43.6463         43.6463 
        1.03085         239.617         43.0319         43.0319 
        1.03698         238.118         42.4305         42.4305 
        1.04314          236.31         41.8381         41.8381 
        1.04929         234.719         41.2584         41.2584 
        1.05541         234.294          40.692          40.692 
        1.06154         230.807         40.1348         40.1348 
        1.06769         230.363         39.5873         39.5873 
        1.07382         228.294         39.0518         39.0518 
        1.07993         226.962         38.5274         38.5274 
        1.08607         226.451         38.0105         38.0105 
        1.09222         223.813         37.5026         37.5026 
        1.09836         222.215         37.0046         37.0046 
        1.10449         220.467         36.5162         36.5162 
        1.11063         218.498         36.0361         36.0361 
        1.11677         218.003         35.5648         35.5648 
         1.1229         215.775         35.1027         35.1027 
        1.12903         214.988         34.6485         34.6485 
        1.13518         213.421         34.2019         34.2019 
        1.14131         211.711         33.7635         33.7635 
        1.14745         211.516          33.333          33.333 
        1.15359         209.528         32.9099         32.9099 
        1.15973         207.619          32.494          32.494 
        1.16584         206.488         32.0871         32.0871 
        1.17197         206.407         31.6867         31.6867 
        1.17811         203.464         31.2919         31.2919 
        1.18424         202.492         30.9049         30.9049 
        1.19038         201.709         30.5234         30.5234 
        1.19652         199.671         30.1484         30.1484 
        1.20267         199.639         29.7798         29.7798 
        1.20881         197.447         29.4173         29.4173 
        1.21495         196.417         29.0615         29.0615 
        1.22108         195.046         28.7116         28.7116 
         1.2272         193.734         28.3683         28.3683 
        1.23334         193.455         28.0298         28.0298 
        1.23949         190.899         27.6961         27.6961 
        1.24562         190.232         27.3686         27.3686 
        1.25174         189.306          27.047          27.047 
        1.25789         188.032         26.7295         26.7295 
        1.26402         185.963         26.4177         26.4177 
        1.27014         185.135         26.1116         26.1116 
        1.27628         183.759         25.8094         25.8094 
        1.28244         183.613         25.5115         25.5115 
        1.28858         181.784         25.2186         25.2186 
        1.29471          180.99          24.931          24.931 
        1.30084          179.26         24.6481         24.6481 
        1.30697         178.123         24.3692         24.3692 
        1.31312         176.801         24.0942         24.0942 
        1.31925         175.487         23.8244         23.8244 
        1.32537          175.41         23.5589         23.5589 
        1.33151         173.661         23.2965         23.2965 
        1.33765         172.374         23.0383         23.0383 
        1.34378         171.657         22.7844         22.7844 
        1.34992         170.852         22.5343         22.5343 
        1.35606         170.316         22.2873         22.2873 
         1.3622         168.235         22.0445         22.0445 
        1.36833         167.408         21.8059         21.8059 
        1.37445         166.504         21.5709         21.5709 
        1.38059          165.24         21.3387         21.3387 
        1.38675         164.663         21.1093         21.1093 
        1.39288         163.559         20.8842         20.8842 
        1.39901         162.406         20.6625         20.6625 
        1.40515         161.425         20.4435         20.4435 
         1.4113         160.532         20.2278         20.2278 
        1.41742         159.209          20.016          20.016 
        1.42355         158.517         19.8068         19.8068 
         1.4297         157.156            19.6            19.6 
        1.43585         156.355         19.3962         19.3962 
        1.44198         155.939         19.1961         19.1961 
        1.44809         154.741         18.9992         18.9992 
        1.45423         154.108         18.8043         18.8043 
        1.46036         152.724         18.6125         18.6125 
        1.46649         151.863         18.4233         18.4233 
        1.47263         151.007         18.2366         18.2366 
        1.47877         149.759         18.0525         18.0525 
        1.48491          148.51         17.8707         17.8707 
        1.49104         148.332         17.6918         17.6918 
        1.49718         146.747         17.5151         17.5151 
        1.50333         146.121         17.3406         17.3406 
        1.50947         145.037         17.1689         17.1689 
         1.5156         144.369         16.9997         16.9997 
        1.52172         143.618         16.8327         16.8327 
        1.52787          142.24         16.6677         16.6677 
          1.534         141.899         16.5051         16.5051 
        1.54013         140.895         16.3448         16.3448 
        1.54627         139.986         16.1864         16.1864 
        1.55241         138.974           16.03           16.03 
        1.55855         138.213         15.8759         15.8759 
        1.56467          137.09         15.7242         15.7242 
         1.5708         136.274         15.5741         15.5741 
        1.57695         136.115         15.4258         15.4258 
        1.58308         134.984         15.2797         15.2797 
        1.58922         134.255         15.1354         15.1354 
        1.59535         133.325          14.993          14.993 
         1.6015         132.555         14.8522         14.8522 
        1.60764         131.969         14.7133         14.7133 
        1.61376         131.007         14.5766         14.5766 
        1.61989         130.122         14.4415         14.4415 
        1.62604         129.187         14.3078         14.3078 
        1.63218         128.833         14.1758         14.1758 
        1.63831         127.773         14.0459         14.0459 
        1.64444          127.01         13.9175         13.9175 
        1.65059         126.334         13.7904         13.7904 
        1.65673         125.638          13.665          13.665 
        1.66285         124.778         13.5415         13.5415 
        1.66898         124.097         13.4195         13.4195 
        1.67512         123.248         13.2988         13.2988 
        1.68127         122.481         13.1794         13.1794 
         1.6874         121.997         13.0618         13.0618 
        1.69353           121.1         12.9457         12.9457 
        1.69967         120.186         12.8307         12.8307 
        1.70581         119.507         12.7171         12.7171 
        1.71193         118.715         12.6054         12.6054 
        1.71806         118.311         12.4948         12.4948 
        1.72421         117.681         12.3852         12.3852 
        1.73035         117.068         12.2771         12.2771 
        1.73649          116.27         12.1703         12.1703 
        1.74262         115.655         12.0649         12.0649 
        1.74876         114.765         11.9606         11.9606 
        1.75489         114.159         11.8578         11.8578 
        1.76101         113.182         11.7562         11.7562 
        1.76715         112.934         11.6557         11.6557 
        1.77329         112.069         11.5562         11.5562 
        1.77943         111.711         11.4578         11.4578 
        1.78557         111.127         11.3607         11.3607 
        1.79171         110.176         11.2648         11.2648 
        1.79785         109.636         11.1699         11.1699 
        1.80399         108.999         11.0761         11.0761 
        1.81012         108.481         10.9835         10.9835 
        1.81625         107.921          10.892          10.892 
        1.82239          107.23         10.8014         10.8014 
        1.82853         106.389         10.7119         10.7119 
        1.83466          105.93         10.6235         10.6235 
        1.84078         105.277         10.5361         10.5361 
        1.84692         104.412         10.4497         10.4497 
        1.85306          104.23          10.364          10.364 
         1.8592          103.39         10.2795         10.2795 
        1.86533          102.95         10.1959         10.1959 
        1.87147         102.167         10.1132         10.1132 
