# k  (h/Mpc)    Pcb(k)  (Mpc/h)^3    Pcb_linear(k) (Mpc/h)^3    Pcb_NL(k) (Mpc/h)^3   ShotnoiseSubtracted = false
     0.00783031           11312         11465.5         11465.5 
       0.013688         13449.8         13347.9         13347.9 
       0.019231         12913.1           12872           12872 
      0.0249154         11192.4         11363.1         11363.1 
      0.0312784         9366.19         9412.89         9412.89 
      0.0375637          7814.4         7775.51         7775.51 
      0.0433917         6623.23         6678.23         6678.23 
      0.0492413         5939.71         5942.61         5942.61 
      0.0555754         5316.35         5415.45         5415.45 
      0.0619321         5040.82          4999.7          4999.7 
       0.067871         4535.73          4600.6          4600.6 
      0.0738098         4095.96         4148.75         4148.75 
      0.0800417         3574.88         3638.78         3638.78 
      0.0862327         3142.27         3153.48         3153.48 
      0.0921407         2802.42         2761.35         2761.35 
      0.0982031         2481.04         2457.14         2457.14 
       0.104506         2324.03          2242.4          2242.4 
       0.110769         2168.21         2103.61         2103.61 
       0.116806         2050.44          2003.9          2003.9 
       0.122832         1956.45         1905.26         1905.26 
       0.129052         1802.91         1783.81         1783.81 
       0.135211         1673.48         1641.06         1641.06 
       0.141259         1559.45         1490.85         1490.85 
       0.147318         1435.86         1347.69         1347.69 
       0.153489         1302.33         1224.15         1224.15 
       0.159709         1223.03         1129.29         1129.29 
       0.165845          1171.6         1062.92         1062.92 
       0.171974         1110.91         1015.44         1015.44 
       0.178125         1064.28         975.963         975.963 
       0.184229         1020.61         935.502         935.502 
        0.19034         951.159         888.394         888.394 
       0.196428         921.556         834.616         834.616 
       0.202534         879.595         777.517         777.517 
       0.208729           824.7         721.812         721.812 
       0.214876          777.34         673.368         673.368 
       0.220989         747.104         634.173         634.173 
       0.227147         711.515         603.389         603.389 
        0.23329         683.759         579.038         579.038 
       0.239377         668.412         557.998         557.998 
       0.245482         624.042         537.078         537.078 
       0.251667         616.139         514.311         514.311 
       0.257832          590.97         489.743         489.743 
       0.263955         567.591         464.444         464.444 
       0.270079         543.386          439.82          439.82 
        0.27624         533.565         417.165         417.165 
       0.282372         511.511         397.565         397.565 
        0.28843         497.377         381.132         381.132 
       0.294538         472.743         366.909         366.909 
       0.300721         468.951         353.983         353.983 
        0.30691         447.038         341.551         341.551 
       0.313033         437.005         329.136         329.136 
       0.319153         422.129         316.384         316.384 
       0.325316         409.718         303.415         303.415 
        0.33145         396.068          290.78          290.78 
       0.337538         389.195         278.954         278.954 
       0.343633         376.034         268.122         268.122 
       0.349808         362.756         258.248         258.248 
       0.355968           358.4          249.38          249.38 
       0.362074         350.943         241.274         241.274 
       0.368217         340.834         233.534         233.534 
       0.374374         326.462         225.947         225.947 
       0.380519         323.267         218.439         218.439 
       0.386598         314.512         211.094         211.094 
       0.392688         310.943         203.896         203.896 
        0.39888         302.243         196.881         196.881 
       0.405048         294.598         190.301         190.301 
       0.411186         288.722         184.186         184.186 
       0.417313         282.999         178.505         178.505 
       0.423458         276.822         173.161         173.161 
       0.429607         271.275         168.066         168.066 
       0.435692         263.707         163.203         163.203 
       0.441815         261.119         158.443         158.443 
       0.447964         255.338         153.768         153.768 
       0.454126         246.679         149.208         149.208 
       0.460267         242.975         144.826         144.826 
       0.466387         240.085         140.644         140.644 
        0.47254         234.228         136.635         136.635 
       0.478662         233.381         132.845         132.845 
       0.484765         225.279         129.253         129.253 
       0.490885         222.325         125.807         125.807 
       0.497035         218.558         122.467         122.467 
       0.503198         213.659         119.228         119.228 
       0.509342         211.394         116.097         116.097 
       0.515458         208.372         113.076         113.076 
       0.521598         203.906         110.137         110.137 
       0.527764         200.935         107.286         107.286 
       0.533884         198.304         104.561         104.561 
           0.54         195.077         101.947         101.947 
       0.546137         193.574         99.4285         99.4285 
       0.552299         189.504         96.9928         96.9928 
       0.558452          187.58         94.6443         94.6443 
       0.564573         184.593         92.3818         92.3818 
       0.570708         180.649         90.1845         90.1845 
       0.576825         178.059         88.0621         88.0621 
       0.582926         175.396         86.0113         86.0113 
       0.589034          173.39         84.0219         84.0219 
       0.595184          171.24         82.0819         82.0819 
       0.601379         169.062         80.1907         80.1907 
       0.607522         165.828         78.3759         78.3759 
       0.613639         164.462         76.6275         76.6275 
       0.619772         161.009          74.931          74.931 
       0.625918         159.528         73.2844         73.2844 
       0.632068         157.296         71.6872         71.6872 
       0.638161         156.106         70.1515         70.1515 
         0.6443          153.74         68.6488         68.6488 
       0.650464         152.038         67.1833         67.1833 
       0.656582         150.065         65.7701         65.7701 
       0.662703         148.755         64.3969         64.3969 
       0.668861         146.136         63.0552         63.0552 
       0.675024         144.095         61.7513         61.7513 
       0.681124         143.286         60.4984         60.4984 
       0.687237          140.96         59.2786         59.2786 
       0.693381         138.753         58.0874         58.0874 
       0.699536         137.805         56.9274         56.9274 
       0.705665         137.007         55.8043         55.8043 
       0.711789         134.464         54.7125         54.7125 
       0.717957         134.021         53.6424         53.6424 
        0.72409         131.967         52.6067         52.6067 
       0.730186         130.005         51.6046         51.6046 
       0.736317         128.907          50.623          50.623 
       0.742472         127.963         49.6633         49.6633 
       0.748622         126.666         48.7295         48.7295 
        0.75476         125.395         47.8217         47.8217 
       0.760888         123.724         46.9385         46.9385 
       0.767043         123.206         46.0742         46.0742 
       0.773185          121.82         45.2337         45.2337 
       0.779291         119.649         44.4189         44.4189 
       0.785407         119.116         43.6232         43.6232 
       0.791564         118.004         42.8421         42.8421 
       0.797719         115.944         42.0806         42.0806 
       0.803834         115.393         41.3424         41.3424 
       0.809972         114.182         40.6194         40.6194 
       0.816124         113.701         39.9122         39.9122 
       0.822261         112.416         39.2237         39.2237 
       0.828378         111.332         38.5536         38.5536 
       0.834502         110.965         37.8986         37.8986 
       0.840667         109.136         37.2547         37.2547 
       0.846816         107.958         36.6276         36.6276 
       0.852925         107.407         36.0189         36.0189 
       0.859047          106.04         35.4229         35.4229 
       0.865192         105.142         34.8384         34.8384 
       0.871341          104.24         34.2667         34.2667 
       0.877463         103.074         33.7105         33.7105 
       0.883569         102.707         33.1681         33.1681 
       0.889708         101.708         32.6349         32.6349 
       0.895864         100.597         32.1121         32.1121 
       0.902008          99.906         31.6018         31.6018 
       0.908149          99.328          31.103          31.103 
       0.914301         98.1807         30.6142         30.6142 
       0.920448         97.4358         30.1363         30.1363 
       0.926574           96.68         29.6704         29.6704 
       0.932687         96.5371         29.2153         29.2153 
       0.938823         94.9402         28.7682         28.7682 
       0.944975         93.9826         28.3293         28.3293 
       0.951105         93.4899         27.9013         27.9013 
       0.957225         92.5127         27.4828         27.4828 
       0.963368         91.6293         27.0715         27.0715 
       0.969511         91.4676         26.6686         26.6686 
       0.975621         90.8443         26.2761         26.2761 
       0.981748         90.1839         25.8905         25.8905 
       0.987916         89.1547         25.5102         25.5102 
        0.99406         88.4893          25.139          25.139 
        1.00019         88.0864         24.7759         24.7759 
        1.00632         87.2315         24.4203         24.4203 
        1.01246         86.7318         24.0712         24.0712 
        1.01859         85.6867         23.7295         23.7295 
        1.02471         85.1949         23.3948         23.3948 
        1.03085         84.4193         23.0654         23.0654 
        1.03698         84.0546         22.7431         22.7431 
        1.04314         83.2132         22.4256         22.4256 
        1.04929         82.7089         22.1148         22.1148 
        1.05541         81.9621         21.8113         21.8113 
        1.06154         81.6333         21.5126         21.5126 
        1.06769         81.2533         21.2191         21.2191 
        1.07382         80.6434         20.9321         20.9321 
        1.07993         79.9939          20.651          20.651 
        1.08607         79.3624          20.374          20.374 
        1.09222         79.1068         20.1017         20.1017 
        1.09836         78.3601         19.8348         19.8348 
        1.10449         77.8385          19.573          19.573 
        1.11063         77.1872         19.3156         19.3156 
        1.11677         76.8553          19.063          19.063 
         1.1229         76.0423         18.8154         18.8154 
        1.12903         75.3878         18.5719         18.5719 
        1.13518         75.4584         18.3325         18.3325 
        1.14131         74.8503         18.0975         18.0975 
        1.14745         74.1629         17.8668         17.8668 
        1.15359         73.7438           17.64           17.64 
        1.15973         73.3212         17.4171         17.4171 
        1.16584         72.6896          17.199          17.199 
        1.17197         72.2872         16.9843         16.9843 
        1.17811         71.8297         16.7727         16.7727 
        1.18424         71.3583         16.5653         16.5653 
        1.19038         70.9653         16.3608         16.3608 
        1.19652         70.5289         16.1598         16.1598 
        1.20267         69.8227         15.9622         15.9622 
        1.20881         69.4911          15.768          15.768 
        1.21495         68.9909         15.5772         15.5772 
        1.22108         68.7164         15.3897         15.3897 
         1.2272          67.941         15.2057         15.2057 
        1.23334         67.7069         15.0242         15.0242 
        1.23949         67.3047         14.8453         14.8453 
        1.24562         66.8171         14.6698         14.6698 
        1.25174         66.4436         14.4974         14.4974 
        1.25789         66.1734         14.3272         14.3272 
        1.26402         65.6971         14.1601         14.1601 
        1.27014          65.171          13.996          13.996 
        1.27628         64.8617         13.8341         13.8341 
        1.28244         64.3658         13.6744         13.6744 
        1.28858         64.1977         13.5174         13.5174 
        1.29471         63.7929         13.3632         13.3632 
        1.30084         63.3638         13.2116         13.2116 
        1.30697         62.9252         13.0621         13.0621 
        1.31312         62.5691         12.9147         12.9147 
        1.31925         62.1904         12.7701         12.7701 
        1.32537         61.9122         12.6278         12.6278 
        1.33151         61.3079         12.4871         12.4871 
        1.33765         61.0616         12.3487         12.3487 
        1.34378         60.6896         12.2127         12.2127 
        1.34992         60.4231         12.0786         12.0786 
        1.35606         60.0537         11.9462         11.9462 
         1.3622         59.4756          11.816          11.816 
        1.36833         59.3548         11.6881         11.6881 
        1.37445         58.9476         11.5622         11.5622 
        1.38059         58.5113         11.4377         11.4377 
        1.38675         58.1926         11.3148         11.3148 
        1.39288         57.8548         11.1941         11.1941 
        1.39901         57.6323         11.0753         11.0753 
        1.40515         57.2194         10.9579         10.9579 
         1.4113         56.9523         10.8423         10.8423 
        1.41742         56.8409         10.7287         10.7287 
        1.42355         56.2791         10.6166         10.6166 
         1.4297         56.0799         10.5058         10.5058 
        1.43585         55.6274         10.3965         10.3965 
        1.44198         55.3038         10.2893         10.2893 
        1.44809         55.0909         10.1837         10.1837 
        1.45423         54.7651         10.0793         10.0793 
        1.46036         54.5476         9.97648         9.97648 
        1.46649         54.1993         9.87506         9.87506 
        1.47263         53.8013         9.77498         9.77498 
        1.47877         53.5961         9.67632         9.67632 
        1.48491         53.3533         9.57886         9.57886 
        1.49104         53.0264         9.48295         9.48295 
        1.49718         52.5902         9.38827         9.38827 
        1.50333         52.4183         9.29473         9.29473 
        1.50947         52.1438         9.20266         9.20266 
         1.5156         51.8161         9.11196         9.11196 
        1.52172          51.585         9.02249         9.02249 
        1.52787         51.4469         8.93404         8.93404 
          1.534         50.9961         8.84687         8.84687 
        1.54013         50.7063         8.76096         8.76096 
        1.54627         50.5568         8.67603         8.67603 
        1.55241         50.0852         8.59221         8.59221 
        1.55855         49.8805         8.50962         8.50962 
        1.56467          49.551         8.42833         8.42833 
         1.5708         49.4969         8.34788         8.34788 
        1.57695          49.266         8.26835         8.26835 
        1.58308         48.8315         8.19005         8.19005 
        1.58922         48.6796          8.1127          8.1127 
        1.59535         48.5368         8.03637         8.03637 
         1.6015         48.0479         7.96092         7.96092 
        1.60764         47.8901         7.88647         7.88647 
        1.61376         47.6032         7.81318         7.81318 
        1.61989         47.3387         7.74076         7.74076 
        1.62604         47.1664         7.66909         7.66909 
        1.63218         47.0309         7.59837         7.59837 
        1.63831         46.6223          7.5287          7.5287 
        1.64444         46.4139         7.45988         7.45988 
        1.65059         46.1785         7.39175         7.39175 
        1.65673         45.9611         7.32455         7.32455 
        1.66285         45.6141         7.25837         7.25837 
        1.66898         45.4894         7.19298         7.19298 
        1.67512         45.1373         7.12827         7.12827 
        1.68127         44.9249         7.06429         7.06429 
         1.6874         44.7619         7.00124         7.00124 
        1.69353         44.4981           6.939           6.939 
        1.69967         44.2894         6.87736         6.87736 
        1.70581         44.1563          6.8165          6.8165 
        1.71193         43.9548          6.7566          6.7566 
        1.71806         43.5126          6.6973          6.6973 
        1.72421         43.4098         6.63859         6.63859 
        1.73035         43.2115         6.58064         6.58064 
        1.73649         42.8645          6.5234          6.5234 
        1.74262         42.7699         6.46689         6.46689 
        1.74876         42.5311           6.411           6.411 
        1.75489         42.3269         6.35589         6.35589 
        1.76101          42.155         6.30144         6.30144 
        1.76715         41.8339         6.24755         6.24755 
        1.77329         41.6208         6.19423         6.19423 
        1.77943         41.3933          6.1415          6.1415 
        1.78557         41.2632         6.08946         6.08946 
        1.79171         41.0458         6.03801         6.03801 
        1.79785         40.8268         5.98715         5.98715 
        1.80399         40.7291         5.93688         5.93688 
        1.81012         40.4191         5.88725         5.88725 
        1.81625         40.1404         5.83821         5.83821 
        1.82239          40.044         5.78965         5.78965 
        1.82853         39.7448         5.74167         5.74167 
        1.83466         39.5636         5.69428         5.69428 
        1.84078         39.3299         5.64747         5.64747 
        1.84692         39.1289         5.60111         5.60111 
        1.85306          38.948         5.55521         5.55521 
         1.8592         38.6932          5.5099          5.5099 
        1.86533         38.5851         5.46511         5.46511 
        1.87147         38.3982         5.42078         5.42078 
