# k  (h/Mpc)    P(k)  (Mpc/h)^3    P_linear(k)  (Mpc/h)^3     P_NL(k)  ShotnoiseSubtracted = false
     0.00783031         106.212         107.217         107.217 
       0.013688         124.431         124.972         124.972 
       0.019231         120.464         120.571         120.571 
      0.0249154         106.245         106.462         106.462 
      0.0312784         88.3091         88.2036         88.2036 
      0.0375637         73.0593         72.8669         72.8669 
      0.0433917           62.69         62.5872         62.5872 
      0.0492413         55.7872         55.6951         55.6951 
      0.0555754         50.7394         50.7557         50.7557 
      0.0619321         46.9194           46.86           46.86 
       0.067871         43.0745         43.1201         43.1201 
      0.0738098         38.8376         38.8855         38.8855 
      0.0800417         34.0613         34.1062         34.1062 
      0.0862327         29.5666         29.5578         29.5578 
      0.0921407         25.9138         25.8826         25.8826 
      0.0982031         23.0436         23.0312         23.0312 
       0.104506         21.0701         21.0185         21.0185 
       0.110769         19.7426         19.7177         19.7177 
       0.116806         18.7631          18.783          18.783 
       0.122832         17.8564         17.8585         17.8585 
       0.129052         16.6921         16.7201         16.7201 
       0.135211         15.3553         15.3822         15.3822 
       0.141259         13.9758         13.9743         13.9743 
       0.147318          12.656         12.6324         12.6324 
       0.153489         11.4897         11.4745         11.4745 
       0.159709         10.5984         10.5854         10.5854 
       0.165845         9.99639          9.9632          9.9632 
       0.171974         9.51698         9.51815         9.51815 
       0.178125         9.14925         9.14812         9.14812 
       0.184229         8.77595         8.76886         8.76886 
        0.19034         8.31175          8.3273          8.3273 
       0.196428         7.82272         7.82323         7.82323 
       0.202534         7.31092         7.28803         7.28803 
       0.208729         6.77636          6.7659          6.7659 
       0.214876         6.31241         6.31183         6.31183 
       0.220989         5.96472         5.94443         5.94443 
       0.227147         5.65671         5.65586         5.65586 
        0.23329         5.42725         5.42761         5.42761 
       0.239377         5.23023         5.23038         5.23038 
       0.245482         5.02851         5.03429         5.03429 
       0.251667         4.82638         4.82088         4.82088 
       0.257832         4.59069         4.59061         4.59061 
       0.263955         4.35795         4.35347         4.35347 
       0.270079         4.12978         4.12267         4.12267 
        0.27624         3.92564          3.9103          3.9103 
       0.282372         3.74156         3.72659         3.72659 
        0.28843         3.57955         3.57255         3.57255 
       0.294538         3.44558         3.43923         3.43923 
       0.300721         3.33094         3.31807         3.31807 
        0.30691         3.20666         3.20153         3.20153 
       0.313033         3.09051         3.08516         3.08516 
       0.319153            2.96         2.96563         2.96563 
       0.325316         2.85556         2.84407         2.84407 
        0.33145         2.73507         2.72564         2.72564 
       0.337538         2.62356         2.61478         2.61478 
       0.343633         2.51823         2.51326         2.51326 
       0.349808         2.42911          2.4207          2.4207 
       0.355968         2.34716         2.33757         2.33757 
       0.362074         2.26823         2.26159         2.26159 
       0.368217          2.1958         2.18904         2.18904 
       0.374374         2.11997         2.11793         2.11793 
       0.380519         2.05413         2.04755         2.04755 
       0.386598         1.98709          1.9787          1.9787 
       0.392688         1.92248         1.91123         1.91123 
        0.39888         1.85403         1.84547         1.84547 
       0.405048         1.79298          1.7838          1.7838 
       0.411186         1.73625         1.72647         1.72647 
       0.417313         1.68082         1.67323         1.67323 
       0.423458          1.6332         1.62313         1.62313 
       0.429607         1.58206         1.57538         1.57538 
       0.435692         1.53656         1.52979         1.52979 
       0.441815         1.49211         1.48518         1.48518 
       0.447964         1.45184         1.44135         1.44135 
       0.454126         1.40528         1.39861         1.39861 
       0.460267         1.36399         1.35753         1.35753 
       0.466387         1.32355         1.31834         1.31834 
        0.47254         1.28673         1.28076         1.28076 
       0.478662         1.25248         1.24523         1.24523 
       0.484765         1.21691         1.21156         1.21156 
       0.490885          1.1858         1.17926         1.17926 
       0.497035         1.15785         1.14796         1.14796 
       0.503198         1.12506         1.11759         1.11759 
       0.509342          1.0974         1.08824         1.08824 
       0.515458         1.06701         1.05993         1.05993 
       0.521598         1.03962         1.03238         1.03238 
       0.527764         1.01096         1.00565         1.00565 
       0.533884        0.988886        0.980108        0.980108 
           0.54        0.963281        0.955611        0.955611 
       0.546137        0.940282           0.932           0.932 
       0.552299        0.916999        0.909168        0.909168 
       0.558452        0.893541        0.887155        0.887155 
       0.564573        0.873487        0.865947        0.865947 
       0.570708        0.852644         0.84535         0.84535 
       0.576825        0.832029        0.825456        0.825456 
       0.582926        0.814342        0.806233        0.806233 
       0.589034        0.792448        0.787585        0.787585 
       0.595184        0.774921        0.769401        0.769401 
       0.601379         0.75746        0.751673        0.751673 
       0.607522        0.741797        0.734662        0.734662 
       0.613639        0.726591        0.718273        0.718273 
       0.619772        0.708299        0.702371        0.702371 
       0.625918        0.693529        0.686937        0.686937 
       0.632068        0.679508        0.671965        0.671965 
       0.638161         0.66413        0.657571        0.657571 
         0.6443        0.650107        0.643484        0.643484 
       0.650464        0.635014        0.629747        0.629747 
       0.656582        0.622777        0.616501        0.616501 
       0.662703            0.61        0.603629        0.603629 
       0.668861        0.598837        0.591052        0.591052 
       0.675024        0.585468         0.57883         0.57883 
       0.681124        0.572435        0.567086        0.567086 
       0.687237        0.562227        0.555652        0.555652 
       0.693381        0.551332        0.544487        0.544487 
       0.699536        0.538459        0.533613        0.533613 
       0.705665        0.528243        0.523085        0.523085 
       0.711789        0.519067        0.512852        0.512852 
       0.717957        0.508022        0.502821        0.502821 
        0.72409        0.498684        0.493113        0.493113 
       0.730186        0.488682        0.483719        0.483719 
       0.736317        0.481175        0.474518        0.474518 
       0.742472        0.471583        0.465523        0.465523 
       0.748622        0.462289        0.456769        0.456769 
        0.75476        0.453217         0.44826         0.44826 
       0.760888        0.444575        0.439981        0.439981 
       0.767043        0.438577         0.43188         0.43188 
       0.773185        0.429337        0.424001        0.424001 
       0.779291        0.421682        0.416364        0.416364 
       0.785407        0.414261        0.408906        0.408906 
       0.791564         0.40723        0.401584        0.401584 
       0.797719        0.400469        0.394445        0.394445 
       0.803834        0.393602        0.387527        0.387527 
       0.809972        0.386298        0.380749        0.380749 
       0.816124        0.379418         0.37412         0.37412 
       0.822261        0.372514        0.367667        0.367667 
       0.828378         0.36679        0.361385        0.361385 
       0.834502        0.361101        0.355246        0.355246 
       0.840667        0.354031         0.34921         0.34921 
       0.846816        0.348316        0.343332        0.343332 
       0.852925         0.34348        0.337626        0.337626 
       0.859047        0.337712        0.332039        0.332039 
       0.865192        0.331532         0.32656         0.32656 
       0.871341        0.326117        0.321202        0.321202 
       0.877463        0.321784        0.315988        0.315988 
       0.883569        0.316071        0.310904        0.310904 
       0.889708        0.311127        0.305906        0.305906 
       0.895864         0.30602        0.301005        0.301005 
       0.902008         0.30111        0.296222        0.296222 
       0.908149        0.296311        0.291547        0.291547 
       0.914301        0.290915        0.286965        0.286965 
       0.920448        0.286831        0.282486        0.282486 
       0.926574        0.282384        0.278118        0.278118 
       0.932687        0.277838        0.273852        0.273852 
       0.938823        0.274535        0.269661        0.269661 
       0.944975        0.270173        0.265548        0.265548 
       0.951105        0.266261        0.261535        0.261535 
       0.957225        0.262746        0.257612        0.257612 
       0.963368        0.258521        0.253757        0.253757 
       0.969511        0.254317         0.24998         0.24998 
       0.975621        0.250547        0.246301        0.246301 
       0.981748        0.247649        0.242686        0.242686 
       0.987916        0.243724        0.239122        0.239122 
        0.99406        0.240057        0.235642        0.235642 
        1.00019        0.237021        0.232239        0.232239 
        1.00632        0.232987        0.228906        0.228906 
        1.01246        0.229668        0.225633        0.225633 
        1.01859        0.226795         0.22243         0.22243 
        1.02471        0.223498        0.219293        0.219293 
        1.03085        0.221019        0.216206        0.216206 
        1.03698         0.21746        0.213185        0.213185 
        1.04314        0.214559        0.210208        0.210208 
        1.04929        0.211363        0.207295        0.207295 
        1.05541        0.208917         0.20445         0.20445 
        1.06154        0.205743         0.20165         0.20165 
        1.06769        0.202791        0.198899        0.198899 
        1.07382        0.200173        0.196209        0.196209 
        1.07993        0.197323        0.193574        0.193574 
        1.08607        0.195347        0.190977        0.190977 
        1.09222        0.192346        0.188425        0.188425 
        1.09836        0.190316        0.185923        0.185923 
        1.10449        0.187778        0.183469        0.183469 
        1.11063        0.184889        0.181057        0.181057 
        1.11677        0.182329        0.178689        0.178689 
         1.1229        0.180324        0.176367        0.176367 
        1.12903        0.177855        0.174085        0.174085 
        1.13518         0.17574        0.171842        0.171842 
        1.14131        0.173371        0.169639        0.169639 
        1.14745        0.170647        0.167476        0.167476 
        1.15359        0.168895         0.16535         0.16535 
        1.15973        0.166496         0.16326         0.16326 
        1.16584        0.164894        0.161216        0.161216 
        1.17197        0.162804        0.159204        0.159204 
        1.17811        0.161021        0.157221        0.157221 
        1.18424        0.159203        0.155276        0.155276 
        1.19038        0.156936        0.153359        0.153359 
        1.19652        0.154674        0.151475        0.151475 
        1.20267        0.153325        0.149623        0.149623 
        1.20881        0.151358        0.147802        0.147802 
        1.21495        0.149806        0.146015        0.146015 
        1.22108        0.147763        0.144257        0.144257 
         1.2272        0.146221        0.142532        0.142532 
        1.23334        0.144312        0.140831        0.140831 
        1.23949        0.142674        0.139154        0.139154 
        1.24562        0.140974        0.137509        0.137509 
        1.25174        0.139443        0.135893        0.135893 
        1.25789        0.138047        0.134298        0.134298 
        1.26402        0.135989        0.132731        0.132731 
        1.27014        0.134591        0.131193        0.131193 
        1.27628        0.133226        0.129675        0.129675 
        1.28244        0.131335        0.128178        0.128178 
        1.28858        0.130065        0.126707        0.126707 
        1.29471        0.128886        0.125261        0.125261 
        1.30084        0.127187         0.12384         0.12384 
        1.30697        0.125729        0.122439        0.122439 
        1.31312        0.124025        0.121057        0.121057 
        1.31925        0.122812        0.119701        0.119701 
        1.32537        0.121625        0.118368        0.118368 
        1.33151        0.120403        0.117049        0.117049 
        1.33765        0.119059        0.115752        0.115752 
        1.34378        0.117551        0.114477        0.114477 
        1.34992        0.116316         0.11322         0.11322 
        1.35606        0.115127        0.111979        0.111979 
         1.3622        0.113905        0.110759        0.110759 
        1.36833        0.112574         0.10956         0.10956 
        1.37445        0.111152        0.108379        0.108379 
        1.38059        0.110123        0.107213        0.107213 
        1.38675        0.109296         0.10606         0.10606 
        1.39288        0.108031        0.104929        0.104929 
        1.39901        0.106832        0.103815        0.103815 
        1.40515          0.1059        0.102715        0.102715 
         1.4113         0.10452        0.101631        0.101631 
        1.41742        0.103492        0.100567        0.100567 
        1.42355        0.102617        0.099516        0.099516 
         1.4297        0.101365       0.0984769       0.0984769 
        1.43585        0.100411        0.097453        0.097453 
        1.44198       0.0995028       0.0964476       0.0964476 
        1.44809       0.0983496       0.0954583       0.0954583 
        1.45423       0.0974534       0.0944792       0.0944792 
        1.46036       0.0963998       0.0935155       0.0935155 
        1.46649        0.095656       0.0925649       0.0925649 
        1.47263        0.094613       0.0916267       0.0916267 
        1.47877       0.0934117       0.0907019       0.0907019 
        1.48491       0.0926857       0.0897884       0.0897884 
        1.49104        0.091551       0.0888894       0.0888894 
        1.49718       0.0906325       0.0880019       0.0880019 
        1.50333       0.0900162       0.0871251       0.0871251 
        1.50947        0.088992        0.086262        0.086262 
         1.5156       0.0880879       0.0854119       0.0854119 
        1.52172       0.0873234       0.0845732       0.0845732 
        1.52787       0.0864499       0.0837441       0.0837441 
          1.534       0.0854978       0.0829271       0.0829271 
        1.54013       0.0847298       0.0821217       0.0821217 
        1.54627       0.0840635       0.0813257       0.0813257 
        1.55241       0.0830741         0.08054         0.08054 
        1.55855       0.0822639       0.0797658       0.0797658 
        1.56467       0.0817932       0.0790038       0.0790038 
         1.5708        0.080861       0.0782497       0.0782497 
        1.57695        0.080075       0.0775043       0.0775043 
        1.58308       0.0793296       0.0767703       0.0767703 
        1.58922       0.0786042       0.0760452       0.0760452 
        1.59535       0.0778742       0.0753298       0.0753298 
         1.6015       0.0770749       0.0746226       0.0746226 
        1.60764       0.0764709       0.0739247       0.0739247 
        1.61376       0.0756384       0.0732377       0.0732377 
        1.61989       0.0750308       0.0725588       0.0725588 
        1.62604       0.0744119        0.071887        0.071887 
        1.63218       0.0737089       0.0712241       0.0712241 
        1.63831       0.0730462       0.0705711       0.0705711 
        1.64444       0.0723998        0.069926        0.069926 
        1.65059       0.0717859       0.0692874       0.0692874 
        1.65673       0.0711344       0.0686574       0.0686574 
        1.66285       0.0705819       0.0680371       0.0680371 
        1.66898        0.069912       0.0674241       0.0674241 
        1.67512       0.0691871       0.0668176       0.0668176 
        1.68127       0.0685505       0.0662179       0.0662179 
         1.6874       0.0680771       0.0656269       0.0656269 
        1.69353       0.0673218       0.0650434       0.0650434 
        1.69967       0.0669354       0.0644657       0.0644657 
        1.70581       0.0661264       0.0638952       0.0638952 
        1.71193       0.0656466       0.0633338       0.0633338 
        1.71806       0.0650037       0.0627779       0.0627779 
        1.72421       0.0646315       0.0622275       0.0622275 
        1.73035        0.063953       0.0616844       0.0616844 
        1.73649       0.0634722       0.0611478       0.0611478 
        1.74262       0.0629026       0.0606181       0.0606181 
        1.74876       0.0623431       0.0600942       0.0600942 
        1.75489       0.0619184       0.0595777       0.0595777 
        1.76101       0.0613133       0.0590673       0.0590673 
        1.76715       0.0607607       0.0585621       0.0585621 
        1.77329       0.0601719       0.0580623       0.0580623 
        1.77943       0.0597236        0.057568        0.057568 
        1.78557       0.0593348       0.0570803       0.0570803 
        1.79171       0.0588365        0.056598        0.056598 
        1.79785        0.058353       0.0561212       0.0561212 
        1.80399       0.0578397         0.05565         0.05565 
        1.81012       0.0574033       0.0551848       0.0551848 
        1.81625       0.0568906       0.0547251       0.0547251 
        1.82239       0.0564135         0.05427         0.05427 
        1.82853       0.0559544       0.0538202       0.0538202 
        1.83466        0.055495        0.053376        0.053376 
        1.84078       0.0550568       0.0529372       0.0529372 
        1.84692       0.0545369       0.0525026       0.0525026 
        1.85306       0.0542286       0.0520724       0.0520724 
         1.8592       0.0536794       0.0516477       0.0516477 
        1.86533       0.0533286       0.0512279       0.0512279 
        1.87147         0.05287       0.0508123       0.0508123 
        1.87761       0.0525121       0.0504011       0.0504011 
