# k  (h/Mpc)    Pcb(k)  (Mpc/h)^3    Pcb_linear(k) (Mpc/h)^3    Pcb_NL(k) (Mpc/h)^3   ShotnoiseSubtracted = false
     0.00783031         13164.7         13348.8         13348.8 
       0.013688         15672.5         15539.5         15539.5 
       0.019231         15034.9         14985.1         14985.1 
      0.0249154         13010.4         13228.4         13228.4 
      0.0312784         10892.5         10957.9         10957.9 
      0.0375637         9095.54         9051.74         9051.74 
      0.0433917         7700.07         7774.33         7774.33 
      0.0492413         6910.47         6917.96         6917.96 
      0.0555754         6174.67         6304.26         6304.26 
      0.0619321         5866.47         5820.27         5820.27 
       0.067871         5269.04         5355.66         5355.66 
      0.0738098         4759.95         4829.65         4829.65 
      0.0800417         4153.23         4235.99         4235.99 
      0.0862327         3655.57         3671.03         3671.03 
      0.0921407         3267.33         3214.55         3214.55 
      0.0982031         2893.33          2860.4          2860.4 
       0.104506         2715.26         2610.42         2610.42 
       0.110769          2532.3         2448.85         2448.85 
       0.116806         2396.13         2332.77         2332.77 
       0.122832          2284.5         2217.94         2217.94 
       0.129052          2103.1         2076.56         2076.56 
       0.135211         1954.23         1910.39         1910.39 
       0.141259          1825.7         1735.53         1735.53 
       0.147318         1684.33         1568.87         1568.87 
       0.153489         1528.45         1425.05         1425.05 
       0.159709         1437.79         1314.63         1314.63 
       0.165845          1379.3         1237.36         1237.36 
       0.171974         1309.09         1182.09         1182.09 
       0.178125          1252.7         1136.13         1136.13 
       0.184229         1200.21         1089.03         1089.03 
        0.19034         1120.28         1034.19         1034.19 
       0.196428         1086.65          971.59          971.59 
       0.202534          1037.7         905.121         905.121 
       0.208729         975.136         840.273         840.273 
       0.214876         922.102         783.879         783.879 
       0.220989         886.698         738.252         738.252 
       0.227147         846.218         702.415         702.415 
        0.23329          813.15         674.068         674.068 
       0.239377          795.83         649.574         649.574 
       0.245482         742.908         625.222         625.222 
       0.251667          734.67         598.718         598.718 
       0.257832         704.102         570.117         570.117 
       0.263955         677.278         540.666         540.666 
       0.270079         649.071         512.002         512.002 
        0.27624         638.481         485.628         485.628 
       0.282372         611.971         462.812         462.812 
        0.28843         597.673         443.682         443.682 
       0.294538         567.267         427.125         427.125 
       0.300721         563.414         412.077         412.077 
        0.30691         537.506         397.605         397.605 
       0.313033         525.927         383.152         383.152 
       0.319153         509.837         368.308         368.308 
       0.325316         494.363          353.21          353.21 
        0.33145         478.889         338.501         338.501 
       0.337538         470.512         324.735         324.735 
       0.343633         455.443         312.125         312.125 
       0.349808         439.018         300.631         300.631 
       0.355968         434.625         290.307         290.307 
       0.362074         426.772          280.87          280.87 
       0.368217         414.333         271.861         271.861 
       0.374374         396.133         263.029         263.029 
       0.380519         393.578         254.288         254.288 
       0.386598         382.793         245.738         245.738 
       0.392688         379.378         237.359         237.359 
        0.39888         368.459         229.193         229.193 
       0.405048         359.758         221.533         221.533 
       0.411186         353.259         214.414         214.414 
       0.417313         346.204         207.801         207.801 
       0.423458         338.771          201.58          201.58 
       0.429607          332.71         195.648         195.648 
       0.435692         323.842         189.987         189.987 
       0.441815         320.607         184.446         184.446 
       0.447964         313.356         179.003         179.003 
       0.454126         304.601         173.695         173.695 
       0.460267         299.384         168.594         168.594 
       0.466387         295.833         163.726         163.726 
        0.47254         289.166         159.059         159.059 
       0.478662         288.288         154.647         154.647 
       0.484765         278.013         150.466         150.466 
       0.490885         274.829         146.454         146.454 
       0.497035         269.836         142.566         142.566 
       0.503198         264.822         138.795         138.795 
       0.509342         262.474          135.15          135.15 
       0.515458         258.907         131.634         131.634 
       0.521598         252.782         128.212         128.212 
       0.527764         249.023         124.893         124.893 
       0.533884         246.292         121.721         121.721 
           0.54         242.534         118.679         118.679 
       0.546137         240.937         115.746         115.746 
       0.552299          235.74         112.911         112.911 
       0.558452         234.041         110.177         110.177 
       0.564573          230.49         107.543         107.543 
       0.570708         225.537         104.985         104.985 
       0.576825         221.839         102.514         102.514 
       0.582926          219.28         100.127         100.127 
       0.589034         216.973         97.8112         97.8112 
       0.595184         214.562         95.5528         95.5528 
       0.601379         211.611         93.3513         93.3513 
       0.607522         208.069         91.2386         91.2386 
       0.613639         206.318         89.2033         89.2033 
       0.619772         201.945         87.2284         87.2284 
       0.625918          200.67         85.3115         85.3115 
       0.632068         197.417         83.4522         83.4522 
       0.638161         196.269         81.6645         81.6645 
         0.6443         193.085         79.9151         79.9151 
       0.650464          190.97         78.2091         78.2091 
       0.656582         188.909          76.564          76.564 
       0.662703         187.887         74.9654         74.9654 
       0.668861         184.468         73.4035         73.4035 
       0.675024         181.843         71.8857         71.8857 
       0.681124         180.793         70.4271         70.4271 
       0.687237         178.372         69.0071         69.0071 
       0.693381          175.48         67.6205         67.6205 
       0.699536         174.176           66.27           66.27 
       0.705665         172.694         64.9626         64.9626 
       0.711789         170.466         63.6917         63.6917 
       0.717957         169.742          62.446          62.446 
        0.72409         167.454         61.2403         61.2403 
       0.730186         165.162         60.0737         60.0737 
       0.736317         163.413          58.931          58.931 
       0.742472         162.308         57.8138         57.8138 
       0.748622         160.783         56.7267         56.7267 
        0.75476         159.193         55.6699         55.6699 
       0.760888         157.224         54.6418         54.6418 
       0.767043         156.829         53.6357         53.6357 
       0.773185         155.101         52.6572         52.6572 
       0.779291         152.075         51.7088         51.7088 
       0.785407         151.578         50.7825         50.7825 
       0.791564         150.119         49.8731         49.8731 
       0.797719         147.703         48.9866         48.9866 
       0.803834         146.936         48.1274         48.1274 
       0.809972         145.868         47.2857         47.2857 
       0.816124          145.21         46.4624         46.4624 
       0.822261         143.547         45.6609         45.6609 
       0.828378         142.105         44.8809         44.8809 
       0.834502         141.784         44.1184         44.1184 
       0.840667         139.459         43.3688         43.3688 
       0.846816         138.086         42.6388         42.6388 
       0.852925         137.529         41.9302         41.9302 
       0.859047         136.003         41.2363         41.2363 
       0.865192         134.506         40.5559         40.5559 
       0.871341         133.417         39.8904         39.8904 
       0.877463         132.145         39.2429         39.2429 
       0.883569         131.836         38.6115         38.6115 
       0.889708         130.405         37.9908         37.9908 
       0.895864         128.841         37.3822         37.3822 
       0.902008         128.113         36.7882         36.7882 
       0.908149          127.57         36.2075         36.2075 
       0.914301         125.908         35.6384         35.6384 
       0.920448         125.002         35.0822         35.0822 
       0.926574          124.12         34.5398         34.5398 
       0.932687         123.955           34.01           34.01 
       0.938823         122.063         33.4895         33.4895 
       0.944975         120.976         32.9786         32.9786 
       0.951105          120.34         32.4803         32.4803 
       0.957225         119.184         31.9931         31.9931 
       0.963368         117.645         31.5143         31.5143 
       0.969511         117.484         31.0453         31.0453 
       0.975621         116.573         30.5884         30.5884 
       0.981748         116.147         30.1395         30.1395 
       0.987916           114.8         29.6968         29.6968 
        0.99406         113.818         29.2647         29.2647 
        1.00019         113.608          28.842          28.842 
        1.00632         112.308         28.4281         28.4281 
        1.01246         111.737         28.0217         28.0217 
        1.01859         110.844         27.6239         27.6239 
        1.02471         109.677         27.2343         27.2343 
        1.03085         108.742         26.8508         26.8508 
        1.03698         108.334         26.4756         26.4756 
        1.04314         107.178          26.106          26.106 
        1.04929         106.693         25.7442         25.7442 
        1.05541         105.886         25.3908         25.3908 
        1.06154         105.272         25.0432         25.0432 
        1.06769         104.989         24.7015         24.7015 
        1.07382         103.947         24.3674         24.3674 
        1.07993         103.111         24.0402         24.0402 
        1.08607         102.391         23.7176         23.7176 
        1.09222          102.13         23.4007         23.4007 
        1.09836         101.168           23.09           23.09 
        1.10449         100.213         22.7852         22.7852 
        1.11063          99.495         22.4856         22.4856 
        1.11677         99.0819         22.1916         22.1916 
         1.1229         98.2329         21.9032         21.9032 
        1.12903         97.5921         21.6198         21.6198 
        1.13518         97.3577         21.3412         21.3412 
        1.14131          96.416         21.0676         21.0676 
        1.14745         95.8991          20.799          20.799 
        1.15359         95.2242          20.535          20.535 
        1.15973         94.7789         20.2755         20.2755 
        1.16584         93.7961         20.0216         20.0216 
        1.17197         93.3186         19.7717         19.7717 
        1.17811          92.792         19.5254         19.5254 
        1.18424         92.3158         19.2839         19.2839 
        1.19038         91.9291         19.0458         19.0458 
        1.19652         91.1751         18.8119         18.8119 
        1.20267          90.446         18.5819         18.5819 
        1.20881          89.877         18.3557         18.3557 
        1.21495         89.2866         18.1337         18.1337 
        1.22108         88.8718         17.9154         17.9154 
         1.2272         87.9726         17.7012         17.7012 
        1.23334         87.6128         17.4899         17.4899 
        1.23949         87.0368         17.2817         17.2817 
        1.24562         86.4682         17.0774         17.0774 
        1.25174         85.9086         16.8767         16.8767 
        1.25789         85.5311         16.6786         16.6786 
        1.26402         84.7144          16.484          16.484 
        1.27014         84.3532          16.293          16.293 
        1.27628         83.9218         16.1045         16.1045 
        1.28244          83.375         15.9185         15.9185 
        1.28858         83.1509         15.7358         15.7358 
        1.29471         82.3459         15.5563         15.5563 
        1.30084         82.0121         15.3798         15.3798 
        1.30697         81.3255         15.2058         15.2058 
        1.31312          80.948         15.0342         15.0342 
        1.31925         80.3317         14.8658         14.8658 
        1.32537         79.9515         14.7002         14.7002 
        1.33151         79.2561         14.5365         14.5365 
        1.33765         78.9447         14.3753         14.3753 
        1.34378         78.5248         14.2169         14.2169 
        1.34992         78.2049         14.0608         14.0608 
        1.35606         77.6486         13.9068         13.9068 
         1.3622            76.9         13.7552         13.7552 
        1.36833         76.7477         13.6063         13.6063 
        1.37445         76.2269         13.4597         13.4597 
        1.38059         75.6677         13.3148         13.3148 
        1.38675         75.2117         13.1717         13.1717 
        1.39288         74.9593         13.0312         13.0312 
        1.39901         74.4976         12.8929         12.8929 
        1.40515         73.9257         12.7563         12.7563 
         1.4113         73.5669         12.6216         12.6216 
        1.41742         73.3483         12.4895         12.4895 
        1.42355         72.7489          12.359          12.359 
         1.4297         72.4727         12.2299         12.2299 
        1.43585          71.848         12.1028         12.1028 
        1.44198         71.4708         11.9779         11.9779 
        1.44809         71.1322          11.855          11.855 
        1.45423         70.7615         11.7334         11.7334 
        1.46036         70.4558         11.6138         11.6138 
        1.46649         69.8852         11.4957         11.4957 
        1.47263         69.4337         11.3792         11.3792 
        1.47877          69.313         11.2643         11.2643 
        1.48491         68.6804         11.1509         11.1509 
        1.49104         68.5026         11.0392         11.0392 
        1.49718         68.0208          10.929          10.929 
        1.50333         67.6705         10.8201         10.8201 
        1.50947         67.2813          10.713          10.713 
         1.5156         66.9093         10.6074         10.6074 
        1.52172         66.4665         10.5032         10.5032 
        1.52787         66.2689         10.4002         10.4002 
          1.534         65.7246         10.2988         10.2988 
        1.54013          65.355         10.1988         10.1988 
        1.54627         65.1603         10.0999         10.0999 
        1.55241         64.6315         10.0023         10.0023 
        1.55855         64.3847         9.90617         9.90617 
        1.56467         64.0624         9.81155         9.81155 
         1.5708         63.7036         9.71789         9.71789 
        1.57695         63.5972         9.62532         9.62532 
        1.58308          62.939         9.53416         9.53416 
        1.58922         62.7041         9.44411         9.44411 
        1.59535         62.4986         9.35526         9.35526 
         1.6015         61.9187         9.26743         9.26743 
        1.60764         61.7208         9.18077         9.18077 
        1.61376         61.4045         9.09545         9.09545 
        1.61989         61.0167         9.01114         9.01114 
        1.62604         60.8098         8.92771         8.92771 
        1.63218         60.5053         8.84538         8.84538 
        1.63831          59.841         8.76428         8.76428 
        1.64444         59.7071         8.68416         8.68416 
        1.65059         59.4274         8.60485         8.60485 
        1.65673          59.015         8.52662         8.52662 
        1.66285         58.7105         8.44957         8.44957 
        1.66898         58.5165         8.37345         8.37345 
        1.67512         58.0248         8.29812         8.29812 
        1.68127         57.8279         8.22365         8.22365 
         1.6874         57.5106         8.15025         8.15025 
        1.69353         57.1846         8.07779         8.07779 
        1.69967         56.8618         8.00604         8.00604 
        1.70581         56.6794         7.93519         7.93519 
        1.71193         56.4614         7.86547         7.86547 
        1.71806         55.9715         7.79643         7.79643 
        1.72421         55.7079         7.72808         7.72808 
        1.73035         55.4712         7.66063         7.66063 
        1.73649         55.1935         7.59399         7.59399 
        1.74262         54.9007          7.5282          7.5282 
        1.74876          54.625         7.46315         7.46315 
        1.75489         54.2953         7.39899         7.39899 
        1.76101         54.1281         7.33561         7.33561 
        1.76715         53.6884         7.27287         7.27287 
        1.77329         53.4425          7.2108          7.2108 
        1.77943         53.1098         7.14941         7.14941 
        1.78557         52.9607         7.08884         7.08884 
        1.79171         52.6197         7.02894         7.02894 
        1.79785          52.288         6.96973         6.96973 
        1.80399         52.2098         6.91121         6.91121 
        1.81012         51.8941         6.85344         6.85344 
        1.81625         51.4916         6.79635         6.79635 
        1.82239          51.304         6.73983         6.73983 
        1.82853         51.0082         6.68397         6.68397 
        1.83466         50.7807          6.6288          6.6288 
        1.84078         50.4806         6.57431         6.57431 
        1.84692         50.1569         6.52034         6.52034 
        1.85306         49.9465         6.46691         6.46691 
         1.8592         49.6741         6.41416         6.41416 
        1.86533         49.4314         6.36202         6.36202 
        1.87147          49.086         6.31041         6.31041 
