# k  (h/Mpc)    Pcb(k)  (Mpc/h)^3    Pcb_linear(k) (Mpc/h)^3    Pcb_NL(k) (Mpc/h)^3   ShotnoiseSubtracted = false
     0.00783031         18756.6         19040.2         19040.2 
       0.013688           22404         22162.2         22162.2 
       0.019231         21445.4         21370.3         21370.3 
      0.0249154         18476.4         18864.4         18864.4 
      0.0312784         15485.7         15626.3         15626.3 
      0.0375637         12961.2         12907.8         12907.8 
      0.0433917         10938.2         11086.1         11086.1 
      0.0492413          9835.7          9864.9          9864.9 
      0.0555754         8747.13         8989.72         8989.72 
      0.0619321         8353.09         8299.53         8299.53 
       0.067871         7466.61            7637            7637 
      0.0738098         6752.93          6886.9          6886.9 
      0.0800417         5888.56         6040.35         6040.35 
      0.0862327         5202.17         5234.73         5234.73 
      0.0921407          4677.9         4583.81         4583.81 
      0.0982031         4147.32          4078.8          4078.8 
       0.104506         3909.34         3722.34         3722.34 
       0.110769         3642.99         3491.95         3491.95 
       0.116806         3454.37         3326.42         3326.42 
       0.122832         3285.16         3162.68         3162.68 
       0.129052         3017.58         2961.07         2961.07 
       0.135211         2810.95         2724.12         2724.12 
       0.141259         2644.14         2474.78         2474.78 
       0.147318         2453.37         2237.13         2237.13 
       0.153489         2230.24         2032.05         2032.05 
       0.159709         2105.28         1874.59         1874.59 
       0.165845         2028.47         1764.41         1764.41 
       0.171974         1930.11          1685.6          1685.6 
       0.178125         1841.81         1620.07         1620.07 
       0.184229         1758.59         1552.91         1552.91 
        0.19034         1653.97         1474.71         1474.71 
       0.196428         1605.76         1385.44         1385.44 
       0.202534         1533.53         1290.65         1290.65 
       0.208729         1449.91         1198.18         1198.18 
       0.214876         1384.58         1117.77         1117.77 
       0.220989         1332.25         1052.71         1052.71 
       0.227147         1278.32         1001.61         1001.61 
        0.23329         1228.29         961.184         961.184 
       0.239377         1205.98         926.258         926.258 
       0.245482         1128.62         891.532         891.532 
       0.251667         1119.36         853.739         853.739 
       0.257832         1071.03         812.956         812.956 
       0.263955          1032.5         770.961         770.961 
       0.270079           992.9         730.086         730.086 
        0.27624         978.852         692.479         692.479 
       0.282372         938.124         659.945         659.945 
        0.28843         926.976         632.665         632.665 
       0.294538         878.867         609.057         609.057 
       0.300721         873.154         587.599         587.599 
        0.30691         837.021         566.962         566.962 
       0.313033         819.325         546.354         546.354 
       0.319153         801.407         525.186         525.186 
       0.325316         775.703         503.658         503.658 
        0.33145         755.714         482.684         482.684 
       0.337538         740.575         463.053         463.053 
       0.343633         722.162         445.073         445.073 
       0.349808         695.461         428.683         428.683 
       0.355968         690.146         413.962         413.962 
       0.362074         682.045         400.505         400.505 
       0.368217         660.398         387.659         387.659 
       0.374374         632.614         375.064         375.064 
       0.380519         632.646           362.6           362.6 
       0.386598         613.447         350.409         350.409 
       0.392688         610.428          338.46          338.46 
        0.39888         591.993         326.816         326.816 
       0.405048         582.196         315.893         315.893 
       0.411186         573.736         305.742         305.742 
       0.417313         561.704         296.313         296.313 
       0.423458         549.606         287.441         287.441 
       0.429607          542.99         278.983         278.983 
       0.435692         529.274         270.911         270.911 
       0.441815          523.69          263.01          263.01 
       0.447964         512.472         255.249         255.249 
       0.454126         505.701          247.68          247.68 
       0.460267         493.471         240.405         240.405 
       0.466387         487.553         233.464         233.464 
        0.47254         481.515         226.809         226.809 
       0.478662         477.607         220.518         220.518 
       0.484765         461.077         214.556         214.556 
       0.490885         457.415         208.835         208.835 
       0.497035         448.087         203.292         203.292 
       0.503198         443.767         197.914         197.914 
       0.509342         440.267         192.717         192.717 
       0.515458          435.89         187.702         187.702 
       0.521598         423.646         182.823         182.823 
       0.527764         417.419          178.09          178.09 
       0.533884         414.293         173.568         173.568 
           0.54             409         169.229         169.229 
       0.546137         406.058         165.048         165.048 
       0.552299         398.978         161.004         161.004 
       0.558452          396.27         157.106         157.106 
       0.564573          391.23          153.35          153.35 
       0.570708          384.78         149.703         149.703 
       0.576825         375.655          146.18          146.18 
       0.582926         374.819         142.776         142.776 
       0.589034          370.83         139.473         139.473 
       0.595184         367.833         136.253         136.253 
       0.601379         361.101         133.114         133.114 
       0.607522         356.757         130.101         130.101 
       0.613639         354.716         127.199         127.199 
       0.619772         347.832         124.383         124.383 
       0.625918         346.166         121.649         121.649 
       0.632068         340.111         118.998         118.998 
       0.638161         338.477         116.449         116.449 
         0.6443         333.171         113.954         113.954 
       0.650464         330.288         111.522         111.522 
       0.656582         326.765         109.176         109.176 
       0.662703         326.242         106.896         106.896 
       0.668861         320.931         104.669         104.669 
       0.675024         317.398         102.505         102.505 
       0.681124         314.427         100.425         100.425 
       0.687237         311.521         98.4003         98.4003 
       0.693381         306.774          96.423          96.423 
       0.699536          303.15         94.4973         94.4973 
       0.705665         300.968          92.633          92.633 
       0.711789         299.693         90.8208         90.8208 
       0.717957         296.905         89.0444         89.0444 
        0.72409          294.71         87.3252         87.3252 
       0.730186           290.4         85.6616         85.6616 
       0.736317         287.885         84.0323         84.0323 
       0.742472         285.651         82.4393         82.4393 
       0.748622         283.071         80.8891         80.8891 
        0.75476         279.389         79.3822         79.3822 
       0.760888          276.52         77.9161         77.9161 
       0.767043         276.502         76.4815         76.4815 
       0.773185         273.549         75.0862         75.0862 
       0.779291         269.219         73.7338         73.7338 
       0.785407         268.442         72.4129         72.4129 
       0.791564         265.089         71.1163         71.1163 
       0.797719         262.712         69.8522         69.8522 
       0.803834         259.851         68.6269         68.6269 
       0.809972         259.374         67.4267         67.4267 
       0.816124         258.111         66.2527         66.2527 
       0.822261         255.389         65.1099         65.1099 
       0.828378         252.934         63.9976         63.9976 
       0.834502         250.664         62.9103         62.9103 
       0.840667          248.68         61.8414         61.8414 
       0.846816          247.08         60.8005         60.8005 
       0.852925         245.501         59.7901         59.7901 
       0.859047         243.442         58.8006         58.8006 
       0.865192         240.138         57.8304         57.8304 
       0.871341         238.286         56.8815         56.8815 
       0.877463           237.8         55.9582         55.9582 
       0.883569         236.065         55.0578         55.0578 
       0.889708         233.287         54.1727         54.1727 
       0.895864         232.088         53.3048         53.3048 
       0.902008         230.058         52.4578         52.4578 
       0.908149         228.217         51.6298         51.6298 
       0.914301         225.658         50.8184         50.8184 
       0.920448         224.472         50.0252         50.0252 
       0.926574         221.979         49.2518         49.2518 
       0.932687         221.917         48.4963         48.4963 
       0.938823         219.209         47.7541         47.7541 
       0.944975         218.649         47.0257         47.0257 
       0.951105         216.839         46.3151         46.3151 
       0.957225          215.41         45.6204         45.6204 
       0.963368          212.18         44.9376         44.9376 
       0.969511         211.491         44.2688         44.2688 
       0.975621         209.641         43.6173         43.6173 
       0.981748         208.921         42.9772         42.9772 
       0.987916          207.44         42.3459         42.3459 
        0.99406         205.134         41.7297         41.7297 
        1.00019         204.155          41.127          41.127 
        1.00632         202.853         40.5368         40.5368 
        1.01246         201.189         39.9573         39.9573 
        1.01859         201.248           39.39           39.39 
        1.02471          197.92         38.8345         38.8345 
        1.03085         196.782         38.2878         38.2878 
        1.03698         195.633         37.7527         37.7527 
        1.04314         193.896         37.2256         37.2256 
        1.04929         193.013         36.7098         36.7098 
        1.05541         192.567         36.2059         36.2059 
        1.06154         189.924         35.7102         35.7102 
        1.06769         189.526          35.223          35.223 
        1.07382         187.829         34.7465         34.7465 
        1.07993         186.404         34.2799         34.2799 
        1.08607         186.127           33.82           33.82 
        1.09222         184.369         33.3681         33.3681 
        1.09836          182.96          32.925          32.925 
        1.10449         181.134         32.4904         32.4904 
        1.11063         179.699         32.0632         32.0632 
        1.11677         179.082         31.6439         31.6439 
         1.1229         177.496         31.2328         31.2328 
        1.12903         176.821         30.8286         30.8286 
        1.13518         175.557         30.4313         30.4313 
        1.14131         173.906         30.0412         30.0412 
        1.14745         173.975         29.6581         29.6581 
        1.15359         172.251         29.2817         29.2817 
        1.15973         170.634         28.9117         28.9117 
        1.16584         169.789         28.5497         28.5497 
        1.17197         169.547         28.1934         28.1934 
        1.17811         167.275         27.8421         27.8421 
        1.18424         166.631         27.4978         27.4978 
        1.19038         166.078         27.1583         27.1583 
        1.19652         164.392         26.8247         26.8247 
        1.20267          164.14         26.4967         26.4967 
        1.20881         162.587         26.1742         26.1742 
        1.21495         161.572         25.8576         25.8576 
        1.22108         160.474         25.5463         25.5463 
         1.2272         159.315         25.2408         25.2408 
        1.23334         159.091         24.9397         24.9397 
        1.23949         157.244         24.6427         24.6427 
        1.24562         156.543         24.3513         24.3513 
        1.25174          155.71         24.0651         24.0651 
        1.25789         154.688         23.7827         23.7827 
        1.26402         152.962         23.5052         23.5052 
        1.27014         152.049         23.2329         23.2329 
        1.27628         151.407          22.964          22.964 
        1.28244         151.207         22.6989         22.6989 
        1.28858         149.606         22.4384         22.4384 
        1.29471         148.629         22.1824         22.1824 
        1.30084         147.864         21.9308         21.9308 
        1.30697         146.332         21.6826         21.6826 
        1.31312         145.553         21.4379         21.4379 
        1.31925         144.583         21.1978         21.1978 
        1.32537         144.418         20.9616         20.9616 
        1.33151         142.978         20.7282         20.7282 
        1.33765         141.903         20.4984         20.4984 
        1.34378         141.365         20.2726         20.2726 
        1.34992         140.674           20.05           20.05 
        1.35606          140.37         19.8302         19.8302 
         1.3622         138.741         19.6142         19.6142 
        1.36833         137.799         19.4019         19.4019 
        1.37445         137.228         19.1928         19.1928 
        1.38059         136.078         18.9862         18.9862 
        1.38675         135.584         18.7821         18.7821 
        1.39288         134.709         18.5818         18.5818 
        1.39901         134.222         18.3845         18.3845 
        1.40515         132.837         18.1897         18.1897 
         1.4113         132.344         17.9977         17.9977 
        1.41742         131.167         17.8093         17.8093 
        1.42355         130.709         17.6232         17.6232 
         1.4297           129.7         17.4392         17.4392 
        1.43585         128.956         17.2579         17.2579 
        1.44198         128.405         17.0798         17.0798 
        1.44809         127.713         16.9046         16.9046 
        1.45423          127.15         16.7312         16.7312 
        1.46036         125.913         16.5606         16.5606 
        1.46649         125.066         16.3922         16.3922 
        1.47263         124.358         16.2261         16.2261 
        1.47877         123.501         16.0623         16.0623 
        1.48491         122.426         15.9005         15.9005 
        1.49104         122.342         15.7413         15.7413 
        1.49718         121.246         15.5842         15.5842 
        1.50333         120.546         15.4289         15.4289 
        1.50947         119.842         15.2761         15.2761 
         1.5156         119.252         15.1255         15.1255 
        1.52172         118.465          14.977          14.977 
        1.52787         117.536         14.8302         14.8302 
          1.534         117.149         14.6855         14.6855 
        1.54013         116.487         14.5429         14.5429 
        1.54627         115.717         14.4019         14.4019 
        1.55241         114.901         14.2627         14.2627 
        1.55855           114.3         14.1256         14.1256 
        1.56467         113.433         13.9907         13.9907 
         1.5708         112.606         13.8572         13.8572 
        1.57695         112.432         13.7252         13.7252 
        1.58308         111.771         13.5952         13.5952 
        1.58922         111.241         13.4668         13.4668 
        1.59535         110.404         13.3401         13.3401 
         1.6015         109.977         13.2148         13.2148 
        1.60764         109.247         13.0912         13.0912 
        1.61376          108.51         12.9696         12.9696 
        1.61989         107.737         12.8494         12.8494 
        1.62604         106.985         12.7304         12.7304 
        1.63218         106.875          12.613          12.613 
        1.63831         105.988         12.4974         12.4974 
        1.64444         105.322         12.3831         12.3831 
        1.65059         104.728           12.27           12.27 
        1.65673         104.015         12.1585         12.1585 
        1.66285         103.629         12.0486         12.0486 
        1.66898          102.92         11.9401         11.9401 
        1.67512         102.285         11.8326         11.8326 
        1.68127         101.725         11.7265         11.7265 
         1.6874         101.121         11.6218         11.6218 
        1.69353          100.68         11.5185         11.5185 
        1.69967         100.069         11.4162         11.4162 
        1.70581         99.2811         11.3151         11.3151 
        1.71193         98.7359         11.2157         11.2157 
        1.71806         98.3792         11.1173         11.1173 
        1.72421         97.8299         11.0198         11.0198 
        1.73035         97.4501         10.9236         10.9236 
        1.73649         96.7978         10.8286         10.8286 
        1.74262         96.1246         10.7348         10.7348 
        1.74876         95.6944          10.642          10.642 
        1.75489         94.9454         10.5505         10.5505 
        1.76101         94.3074         10.4602         10.4602 
        1.76715          93.948         10.3707         10.3707 
        1.77329         93.5299         10.2822         10.2822 
        1.77943         92.8429         10.1947         10.1947 
        1.78557         92.5103         10.1083         10.1083 
        1.79171         91.6594         10.0229         10.0229 
        1.79785         91.2352         9.93844         9.93844 
        1.80399         90.6902         9.85499         9.85499 
        1.81012         90.2085         9.77261         9.77261 
        1.81625         89.8223         9.69121         9.69121 
        1.82239         89.2835          9.6106          9.6106 
        1.82853         88.6024         9.53095         9.53095 
        1.83466         88.1587         9.45228         9.45228 
        1.84078         87.7475         9.37458         9.37458 
        1.84692         87.0397         9.29763         9.29763 
        1.85306         86.7619         9.22144         9.22144 
         1.8592         86.1976         9.14622         9.14622 
        1.86533         85.6635         9.07188         9.07188 
        1.87147         85.1033         8.99828         8.99828 
