# k  (h/Mpc)    Pcb(k)  (Mpc/h)^3    Pcb_linear(k) (Mpc/h)^3    Pcb_NL(k) (Mpc/h)^3   ShotnoiseSubtracted = false
     0.00783031         952.504         962.267         962.267 
       0.013688         1119.25         1121.02         1121.02 
       0.019231         1081.71         1081.34         1081.34 
      0.0249154         950.619         954.723         954.723 
      0.0312784         791.437         790.941         790.941 
      0.0375637         655.791         653.393         653.393 
      0.0433917         561.321         561.205         561.205 
      0.0492413         500.238           499.4           499.4 
      0.0555754         453.673         455.108         455.108 
      0.0619321         421.785         420.175         420.175 
       0.067871         385.653         386.639         386.639 
      0.0738098         347.632         348.667         348.667 
      0.0800417         304.479         305.812         305.812 
      0.0862327         264.832         265.027         265.027 
      0.0921407         232.598         232.073         232.073 
      0.0982031         206.434         206.506         206.506 
       0.104506         189.685         188.459         188.459 
       0.110769         177.565         176.796         176.796 
       0.116806         168.285         168.416         168.416 
       0.122832         160.524         160.126         160.126 
       0.129052         149.592         149.919         149.919 
       0.135211         137.656         137.922         137.922 
       0.141259         125.732         125.298         125.298 
       0.147318          114.18         113.266         113.266 
       0.153489         103.522         102.883         102.883 
       0.159709         95.6415         94.9112         94.9112 
       0.165845         90.5825          89.333          89.333 
       0.171974          85.845         85.3426         85.3426 
       0.178125         82.6106         82.0249         82.0249 
       0.184229         79.3302         78.6245         78.6245 
        0.19034         74.7089         74.6653         74.6653 
       0.196428         70.6823         70.1455         70.1455 
       0.202534         66.4417         65.3467         65.3467 
       0.208729         61.4945         60.6649         60.6649 
       0.214876         57.1867         56.5935         56.5935 
       0.220989         54.3468         53.2994         53.2994 
       0.227147         51.3201         50.7121         50.7121 
        0.23329         49.2537         48.6655         48.6655 
       0.239377         47.5561         46.8972         46.8972 
       0.245482         45.4931          45.139          45.139 
       0.251667         43.9081         43.2255         43.2255 
       0.257832         41.8051         41.1607         41.1607 
       0.263955         39.7105         39.0345         39.0345 
       0.270079         37.7083          36.965          36.965 
        0.27624         36.0475         35.0609         35.0609 
       0.282372         34.4023         33.4136         33.4136 
        0.28843         32.8543         32.0325         32.0325 
       0.294538         31.5998         30.8371         30.8371 
       0.300721         30.6842         29.7507         29.7507 
        0.30691         29.4363         28.7059         28.7059 
       0.313033         28.3816         27.6625         27.6625 
       0.319153         27.0287         26.5907         26.5907 
       0.325316         26.3406         25.5007         25.5007 
        0.33145         25.1869         24.4388         24.4388 
       0.337538         24.2395         23.4449         23.4449 
       0.343633         23.2442         22.5345         22.5345 
       0.349808         22.4781         21.7047         21.7047 
       0.355968         21.7554         20.9593         20.9593 
       0.362074         21.0187          20.278          20.278 
       0.368217         20.3441         19.6276         19.6276 
       0.374374         19.6339         18.9899         18.9899 
       0.380519          19.074         18.3589         18.3589 
       0.386598          18.476         17.7416         17.7416 
       0.392688         17.9483         17.1366         17.1366 
        0.39888         17.3044          16.547          16.547 
       0.405048         16.7837          15.994          15.994 
       0.411186         16.2809         15.4801         15.4801 
       0.417313         15.7269         15.0026         15.0026 
       0.423458         15.2908         14.5535         14.5535 
       0.429607         14.8152         14.1252         14.1252 
       0.435692          14.383         13.7166         13.7166 
       0.441815         14.0041         13.3165         13.3165 
       0.447964         13.6854         12.9235         12.9235 
       0.454126          13.177         12.5403         12.5403 
       0.460267         12.8459          12.172          12.172 
       0.466387         12.4235         11.8206         11.8206 
        0.47254          12.143         11.4836         11.4836 
       0.478662         11.8613         11.1651         11.1651 
       0.484765         11.4915         10.8632         10.8632 
       0.490885         11.2063         10.5735         10.5735 
       0.497035         11.0031         10.2929         10.2929 
       0.503198         10.6857         10.0206         10.0206 
       0.509342         10.4184         9.75749         9.75749 
       0.515458          10.127         9.50358         9.50358 
       0.521598         9.89678         9.25657         9.25657 
       0.527764         9.62791         9.01692         9.01692 
       0.533884         9.44485         8.78793         8.78793 
           0.54         9.20262         8.56826         8.56826 
       0.546137         9.00256         8.35657         8.35657 
       0.552299         8.80143         8.15185         8.15185 
       0.558452         8.53407         7.95447         7.95447 
       0.564573         8.38733         7.76432         7.76432 
       0.570708         8.19661         7.57964         7.57964 
       0.576825         7.97659         7.40126         7.40126 
       0.582926         7.82275          7.2289          7.2289 
       0.589034         7.58465          7.0617          7.0617 
       0.595184         7.44972         6.89865         6.89865 
       0.601379         7.27289         6.73971         6.73971 
       0.607522         7.14832         6.58718         6.58718 
       0.613639         7.02726         6.44024         6.44024 
       0.619772         6.82916         6.29765         6.29765 
       0.625918         6.73575         6.15926         6.15926 
       0.632068         6.61575         6.02502         6.02502 
       0.638161         6.43794         5.89595         5.89595 
         0.6443         6.30101         5.76966         5.76966 
       0.650464         6.15307         5.64648         5.64648 
       0.656582         6.08007         5.52771         5.52771 
       0.662703         5.95264          5.4123          5.4123 
       0.668861         5.84112         5.29953         5.29953 
       0.675024         5.70799         5.18995         5.18995 
       0.681124         5.59561         5.08465         5.08465 
       0.687237         5.49912         4.98213         4.98213 
       0.693381          5.3998         4.88201         4.88201 
       0.699536         5.25229         4.78452         4.78452 
       0.705665         5.17248         4.69012         4.69012 
       0.711789         5.08105         4.59837         4.59837 
       0.717957         4.97728         4.50843         4.50843 
        0.72409         4.88272         4.42139         4.42139 
       0.730186         4.80731         4.33716         4.33716 
       0.736317         4.74524         4.25466         4.25466 
       0.742472         4.65834           4.174           4.174 
       0.748622         4.56596         4.09552         4.09552 
        0.75476         4.46049         4.01922         4.01922 
       0.760888          4.3931         3.94499         3.94499 
       0.767043         4.33534         3.87235         3.87235 
       0.773185         4.23685         3.80171         3.80171 
       0.779291         4.18495         3.73323         3.73323 
       0.785407         4.10929         3.66636         3.66636 
       0.791564         4.04246         3.60071         3.60071 
       0.797719         3.97052          3.5367          3.5367 
       0.803834         3.92389         3.47467         3.47467 
       0.809972         3.86227          3.4139          3.4139 
       0.816124         3.77659         3.35446         3.35446 
       0.822261         3.70624          3.2966          3.2966 
       0.828378         3.65957         3.24028         3.24028 
       0.834502         3.61707         3.18523         3.18523 
       0.840667         3.53673         3.13111         3.13111 
       0.846816         3.47506          3.0784          3.0784 
       0.852925         3.44012         3.02725         3.02725 
       0.859047         3.38247         2.97715         2.97715 
       0.865192         3.33626         2.92803         2.92803 
       0.871341         3.28941         2.87998         2.87998 
       0.877463         3.23767         2.83323         2.83323 
       0.883569         3.17528         2.78765         2.78765 
       0.889708         3.12294         2.74283         2.74283 
       0.895864         3.07956         2.69889         2.69889 
       0.902008         3.03513         2.65601         2.65601 
       0.908149         2.99667         2.61408         2.61408 
       0.914301         2.93871           2.573           2.573 
       0.920448         2.89565         2.53284         2.53284 
       0.926574         2.85108         2.49368         2.49368 
       0.932687         2.81528         2.45543         2.45543 
       0.938823         2.77839         2.41785         2.41785 
       0.944975         2.73787         2.38097         2.38097 
       0.951105         2.70169         2.34499         2.34499 
       0.957225         2.68094         2.30982         2.30982 
       0.963368         2.63522         2.27525         2.27525 
       0.969511         2.59312         2.24139         2.24139 
       0.975621         2.55341          2.2084          2.2084 
       0.981748         2.52584         2.17599         2.17599 
       0.987916         2.48836         2.14403         2.14403 
        0.99406         2.44447         2.11283         2.11283 
        1.00019         2.41514         2.08232         2.08232 
        1.00632         2.38406         2.05243         2.05243 
        1.01246         2.35376         2.02309         2.02309 
        1.01859         2.32312         1.99437         1.99437 
        1.02471         2.29154         1.96624         1.96624 
        1.03085         2.26084         1.93856         1.93856 
        1.03698         2.22782         1.91147         1.91147 
        1.04314         2.20329         1.88478         1.88478 
        1.04929         2.17326         1.85867         1.85867 
        1.05541         2.14513         1.83315         1.83315 
        1.06154         2.11842         1.80805         1.80805 
        1.06769         2.09792         1.78339         1.78339 
        1.07382         2.06476         1.75926         1.75926 
        1.07993         2.03298         1.73564         1.73564 
        1.08607          2.0195         1.71235         1.71235 
        1.09222          1.9891         1.68947         1.68947 
        1.09836         1.96941         1.66703         1.66703 
        1.10449         1.94531         1.64503         1.64503 
        1.11063         1.91519          1.6234          1.6234 
        1.11677         1.89363         1.60217         1.60217 
         1.1229         1.87004         1.58136         1.58136 
        1.12903         1.84553         1.56089         1.56089 
        1.13518         1.82761         1.54078         1.54078 
        1.14131         1.79832         1.52102         1.52102 
        1.14745         1.76906         1.50163         1.50163 
        1.15359         1.75834         1.48257         1.48257 
        1.15973         1.72955         1.46384         1.46384 
        1.16584         1.71873         1.44551         1.44551 
        1.17197         1.69604         1.42747         1.42747 
        1.17811         1.67953         1.40968         1.40968 
        1.18424         1.66165         1.39225         1.39225 
        1.19038         1.64019         1.37506         1.37506 
        1.19652         1.62166         1.35817         1.35817 
        1.20267         1.60555         1.34156         1.34156 
        1.20881         1.58336         1.32523         1.32523 
        1.21495         1.56942         1.30921         1.30921 
        1.22108         1.55112         1.29344         1.29344 
         1.2272         1.53699         1.27798         1.27798 
        1.23334         1.51426         1.26273         1.26273 
        1.23949         1.49686         1.24769         1.24769 
        1.24562         1.48502         1.23294         1.23294 
        1.25174         1.46553         1.21845         1.21845 
        1.25789         1.45157         1.20415         1.20415 
        1.26402         1.43165          1.1901          1.1901 
        1.27014         1.41655         1.17631         1.17631 
        1.27628         1.40757          1.1627          1.1627 
        1.28244         1.38573         1.14928         1.14928 
        1.28858         1.37449         1.13608         1.13608 
        1.29471          1.3576         1.12313         1.12313 
        1.30084         1.34145         1.11038         1.11038 
        1.30697         1.33215         1.09782         1.09782 
        1.31312         1.30914         1.08543         1.08543 
        1.31925         1.30128         1.07327         1.07327 
        1.32537         1.28708         1.06131         1.06131 
        1.33151         1.27765         1.04949         1.04949 
        1.33765          1.2598         1.03786         1.03786 
        1.34378          1.2471         1.02643         1.02643 
        1.34992         1.23857         1.01516         1.01516 
        1.35606         1.21898         1.00403         1.00403 
         1.3622         1.21174        0.993093        0.993093 
        1.36833         1.19808        0.982343        0.982343 
        1.37445         1.18351        0.971757        0.971757 
        1.38059         1.17519        0.961295        0.961295 
        1.38675         1.16787        0.950962        0.950962 
        1.39288         1.15145        0.940822        0.940822 
        1.39901         1.13821        0.930834        0.930834 
        1.40515         1.12794        0.920969        0.920969 
         1.4113         1.11749         0.91125         0.91125 
        1.41742         1.10722        0.901709        0.901709 
        1.42355         1.09971        0.892286        0.892286 
         1.4297         1.08456        0.882969        0.882969 
        1.43585         1.07659        0.873789        0.873789 
        1.44198          1.0684        0.864775        0.864775 
        1.44809         1.05392        0.855904        0.855904 
        1.45423          1.0446        0.847125        0.847125 
        1.46036         1.03437        0.838484        0.838484 
        1.46649          1.0248        0.829961        0.829961 
        1.47263         1.01363        0.821549        0.821549 
        1.47877         1.00318        0.813257        0.813257 
        1.48491         0.99493        0.805066        0.805066 
        1.49104        0.986378        0.797005        0.797005 
        1.49718        0.978168        0.789048        0.789048 
        1.50333        0.967005        0.781187        0.781187 
        1.50947        0.960067        0.773448        0.773448 
         1.5156         0.95023        0.765826        0.765826 
        1.52172        0.941243        0.758306        0.758306 
        1.52787        0.932148        0.750871        0.750871 
          1.534        0.924708        0.743546        0.743546 
        1.54013        0.914783        0.736325        0.736325 
        1.54627        0.905354        0.729187        0.729187 
        1.55241         0.89766        0.722142        0.722142 
        1.55855        0.891014        0.715201        0.715201 
        1.56467        0.883504        0.708369        0.708369 
         1.5708        0.872703        0.701607        0.701607 
        1.57695        0.868089        0.694924        0.694924 
        1.58308         0.85946        0.688342        0.688342 
        1.58922        0.852033        0.681841        0.681841 
        1.59535        0.844364        0.675426        0.675426 
         1.6015        0.837023        0.669085        0.669085 
        1.60764        0.831182        0.662828        0.662828 
        1.61376        0.823179        0.656668        0.656668 
        1.61989        0.815488        0.650581        0.650581 
        1.62604        0.807628        0.644558        0.644558 
        1.63218        0.803246        0.638614        0.638614 
        1.63831        0.794499        0.632759        0.632759 
        1.64444        0.787299        0.626975        0.626975 
        1.65059        0.781778        0.621249        0.621249 
        1.65673        0.774042          0.6156          0.6156 
        1.66285        0.767169        0.610038        0.610038 
        1.66898        0.763023        0.604542        0.604542 
        1.67512        0.753349        0.599104        0.599104 
        1.68127        0.748142        0.593727        0.593727 
         1.6874        0.744201        0.588428        0.588428 
        1.69353        0.734935        0.583196        0.583196 
        1.69967        0.728563        0.578016        0.578016 
        1.70581        0.725264        0.572901        0.572901 
        1.71193        0.717869        0.567867        0.567867 
        1.71806        0.713396        0.562883        0.562883 
        1.72421        0.706857        0.557948        0.557948 
        1.73035         0.69956        0.553078        0.553078 
        1.73649        0.695774        0.548267        0.548267 
        1.74262        0.689713        0.543517        0.543517 
        1.74876        0.683532        0.538821        0.538821 
        1.75489        0.676585        0.534189        0.534189 
        1.76101        0.672084        0.529612        0.529612 
        1.76715        0.667117        0.525083        0.525083 
        1.77329        0.662247        0.520602        0.520602 
        1.77943        0.655278         0.51617         0.51617 
        1.78557        0.650413        0.511796        0.511796 
        1.79171        0.647089        0.507472        0.507472 
        1.79785        0.640368        0.503197        0.503197 
        1.80399         0.63601        0.498972        0.498972 
        1.81012        0.631375        0.494801        0.494801 
        1.81625        0.625541         0.49068         0.49068 
        1.82239        0.621427        0.486599        0.486599 
        1.82853        0.614198        0.482566        0.482566 
        1.83466        0.610963        0.478583        0.478583 
        1.84078        0.605765        0.474649        0.474649 
        1.84692        0.602723        0.470752        0.470752 
        1.85306        0.597399        0.466895        0.466895 
         1.8592        0.592933        0.463086        0.463086 
        1.86533        0.587862        0.459322        0.459322 
        1.87147        0.583801        0.455596        0.455596 
