# k  (h/Mpc)    Pcb(k)  (Mpc/h)^3    Pcb_linear(k) (Mpc/h)^3    Pcb_NL(k) (Mpc/h)^3   ShotnoiseSubtracted = false
     0.00783031         24214.1         24604.3         24604.3 
       0.013688         29002.4         28635.8         28635.8 
       0.019231         27708.4         27611.4         27611.4 
      0.0249154         23782.4           24373           24373 
      0.0312784         19949.3           20189           20189 
      0.0375637         16731.9         16676.6         16676.6 
      0.0433917         14082.4         14322.9         14322.9 
      0.0492413         12684.2         12745.1         12745.1 
      0.0555754         11234.1         11614.3         11614.3 
      0.0619321         10771.2         10722.6         10722.6 
       0.067871         9590.32         9866.62         9866.62 
      0.0738098         8683.67         8897.52         8897.52 
      0.0800417         7569.56          7803.8          7803.8 
      0.0862327         6709.05         6762.98         6762.98 
      0.0921407         6064.46         5922.01         5922.01 
      0.0982031         5385.44         5269.57         5269.57 
       0.104506         5092.09         4809.04         4809.04 
       0.110769          4743.3         4511.39         4511.39 
       0.116806         4508.01         4297.53         4297.53 
       0.122832         4277.48         4085.99         4085.99 
       0.129052         3924.08         3825.52         3825.52 
       0.135211         3660.35         3519.39         3519.39 
       0.141259         3463.21         3197.25         3197.25 
       0.147318         3230.04         2890.23         2890.23 
       0.153489         2942.53         2625.28         2625.28 
       0.159709         2782.61         2421.85         2421.85 
       0.165845         2692.71         2279.51         2279.51 
       0.171974         2566.53         2177.68         2177.68 
       0.178125         2445.64         2093.02         2093.02 
       0.184229         2325.47         2006.25         2006.25 
        0.19034          2208.9         1905.22         1905.22 
       0.196428          2141.9         1789.89         1789.89 
       0.202534         2043.09         1667.44         1667.44 
       0.208729         1942.03         1547.97         1547.97 
       0.214876         1870.62         1444.08         1444.08 
       0.220989         1800.07         1360.03         1360.03 
       0.227147         1734.21         1294.01         1294.01 
        0.23329         1666.79         1241.79         1241.79 
       0.239377         1641.11         1196.66         1196.66 
       0.245482         1542.55          1151.8          1151.8 
       0.251667         1531.02         1102.97         1102.97 
       0.257832         1465.85         1050.29         1050.29 
       0.263955         1413.12          996.03          996.03 
       0.270079          1363.8         943.223         943.223 
        0.27624         1343.36         894.637         894.637 
       0.282372         1289.23         852.604         852.604 
        0.28843         1284.18         817.361         817.361 
       0.294538         1220.43          786.86          786.86 
       0.300721         1209.07         759.139         759.139 
        0.30691         1166.58         732.477         732.477 
       0.313033         1140.53         705.853         705.853 
       0.319153          1123.5         678.505         678.505 
       0.325316         1086.79         650.692         650.692 
        0.33145         1062.67         623.595         623.595 
       0.337538         1038.02         598.234         598.234 
       0.343633          1019.6         575.004         575.004 
       0.349808         984.459          553.83          553.83 
       0.355968         975.669          534.81          534.81 
       0.362074         967.188         517.426         517.426 
       0.368217         934.334         500.829         500.829 
       0.374374         902.182         484.558         484.558 
       0.380519         903.659         468.455         468.455 
       0.386598          874.34         452.705         452.705 
       0.392688         869.861         437.268         437.268 
        0.39888         844.612         422.224         422.224 
       0.405048         836.317         408.113         408.113 
       0.411186         823.883         394.998         394.998 
       0.417313         806.689         382.816         382.816 
       0.423458         789.642         371.354         371.354 
       0.429607         782.742         360.427         360.427 
       0.435692          764.81         349.999         349.999 
       0.441815         755.954         339.791         339.791 
       0.447964         742.116         329.764         329.764 
       0.454126         736.902         319.986         319.986 
       0.460267         717.132         310.587         310.587 
       0.466387          707.23          301.62          301.62 
        0.47254         707.299         293.021         293.021 
       0.478662         695.126         284.895         284.895 
       0.484765         675.315         277.191         277.191 
       0.490885         670.444           269.8           269.8 
       0.497035         656.568         262.639         262.639 
       0.503198         651.894         255.691         255.691 
       0.509342         645.548         248.977         248.977 
       0.515458         641.322         242.498         242.498 
       0.521598         624.282         236.195         236.195 
       0.527764         615.842          230.08          230.08 
       0.533884         610.813         224.237         224.237 
           0.54         605.654         218.632         218.632 
       0.546137         597.938          213.23          213.23 
       0.552299         591.454         208.007         208.007 
       0.558452         585.034          202.97          202.97 
       0.564573         579.112         198.118         198.118 
       0.570708         571.363         193.406         193.406 
       0.576825         558.845         188.854         188.854 
       0.582926         559.432         184.456         184.456 
       0.589034         552.232          180.19          180.19 
       0.595184         547.585          176.03          176.03 
       0.601379         539.059         171.974         171.974 
       0.607522         531.926         168.082         168.082 
       0.613639         529.184         164.332         164.332 
       0.619772         521.786         160.694         160.694 
       0.625918         517.663         157.163         157.163 
       0.632068         510.157         153.737         153.737 
       0.638161         506.599         150.444         150.444 
         0.6443         500.314         147.221         147.221 
       0.650464         497.642         144.078         144.078 
       0.656582         490.737         141.048         141.048 
       0.662703         489.881         138.103         138.103 
       0.668861         482.847         135.226         135.226 
       0.675024         478.096         132.429         132.429 
       0.681124         473.963         129.742         129.742 
       0.687237         471.065         127.126         127.126 
       0.693381         463.632         124.572         124.572 
       0.699536         456.422         122.084         122.084 
       0.705665         455.588         119.676         119.676 
       0.711789         453.137         117.334         117.334 
       0.717957         448.853         115.039         115.039 
        0.72409          446.64         112.818         112.818 
       0.730186         440.197         110.669         110.669 
       0.736317         437.602         108.564         108.564 
       0.742472         433.242         106.506         106.506 
       0.748622          429.24         104.503         104.503 
        0.75476         422.917         102.556         102.556 
       0.760888           419.3         100.662         100.662 
       0.767043         418.871         98.8089         98.8089 
       0.773185         415.024         97.0062         97.0062 
       0.779291         410.458          95.259          95.259 
       0.785407          407.45         93.5526         93.5526 
       0.791564          403.59         91.8774         91.8774 
       0.797719          401.78         90.2442         90.2442 
       0.803834         395.522         88.6613         88.6613 
       0.809972         395.187         87.1107         87.1107 
       0.816124         393.388          85.594          85.594 
       0.822261         388.507         84.1176         84.1176 
       0.828378         386.189         82.6805         82.6805 
       0.834502         381.174         81.2759         81.2759 
       0.840667          378.53         79.8949         79.8949 
       0.846816         376.812           78.55           78.55 
       0.852925         374.522         77.2447         77.2447 
       0.859047         371.772         75.9664         75.9664 
       0.865192         366.985         74.7129         74.7129 
       0.871341         364.138         73.4869         73.4869 
       0.877463          363.84         72.2941         72.2941 
       0.883569         359.771         71.1309         71.1309 
       0.889708         357.795         69.9874         69.9874 
       0.895864         357.384         68.8662         68.8662 
       0.902008         353.538          67.772          67.772 
       0.908149         348.164         66.7022         66.7022 
       0.914301         346.848         65.6539         65.6539 
       0.920448         344.891         64.6291         64.6291 
       0.926574         340.543         63.6299         63.6299 
       0.932687         339.101         62.6539         62.6539 
       0.938823         335.671          61.695          61.695 
       0.944975         335.585         60.7539         60.7539 
       0.951105         332.301         59.8359         59.8359 
       0.957225         330.073         58.9384         58.9384 
       0.963368         325.748         58.0564         58.0564 
       0.969511         324.789         57.1923         57.1923 
       0.975621         323.156         56.3505         56.3505 
       0.981748         320.201         55.5236         55.5236 
       0.987916         318.664          54.708          54.708 
        0.99406          315.17          53.912          53.912 
        1.00019         312.907         53.1333         53.1333 
        1.00632         311.648         52.3708         52.3708 
        1.01246          308.88         51.6221         51.6221 
        1.01859         307.874         50.8892         50.8892 
        1.02471         304.331         50.1715         50.1715 
        1.03085         303.014         49.4652         49.4652 
        1.03698         300.688         48.7739         48.7739 
        1.04314         299.167          48.093          48.093 
        1.04929         296.585         47.4266         47.4266 
        1.05541          295.91         46.7755         46.7755 
        1.06154         291.633         46.1351         46.1351 
        1.06769         291.016         45.5057         45.5057 
        1.07382         288.324         44.8901         44.8901 
        1.07993         287.057         44.2873         44.2873 
        1.08607         285.859         43.6931         43.6931 
        1.09222         282.522         43.1093         43.1093 
        1.09836         280.086         42.5368         42.5368 
        1.10449          278.69         41.9754         41.9754 
        1.11063         275.495         41.4235         41.4235 
        1.11677         275.697         40.8817         40.8817 
         1.1229         272.758         40.3506         40.3506 
        1.12903         271.493         39.8285         39.8285 
        1.13518         269.229         39.3151         39.3151 
        1.14131          267.62         38.8112         38.8112 
        1.14745         266.103         38.3163         38.3163 
        1.15359         264.326           37.83           37.83 
        1.15973         262.753         37.3519         37.3519 
        1.16584         260.462         36.8842         36.8842 
        1.17197         259.927         36.4239         36.4239 
        1.17811         257.394           35.97           35.97 
        1.18424          255.34         35.5252         35.5252 
        1.19038         254.159         35.0866         35.0866 
        1.19652         252.131         34.6556         34.6556 
        1.20267         252.016         34.2319         34.2319 
        1.20881         249.043         33.8153         33.8153 
        1.21495         247.815         33.4063         33.4063 
        1.22108          245.79         33.0041         33.0041 
         1.2272          244.36         32.6094         32.6094 
        1.23334         243.892         32.2203         32.2203 
        1.23949         240.532         31.8367         31.8367 
        1.24562         239.389         31.4603         31.4603 
        1.25174         238.658         31.0905         31.0905 
        1.25789         236.666         30.7256         30.7256 
        1.26402         234.895         30.3671         30.3671 
        1.27014         233.562         30.0153         30.0153 
        1.27628         231.208          29.668          29.668 
        1.28244         231.308         29.3255         29.3255 
        1.28858         229.141         28.9888         28.9888 
        1.29471         228.438         28.6582         28.6582 
        1.30084         225.915         28.3331         28.3331 
        1.30697         225.194         28.0125         28.0125 
        1.31312         222.954         27.6964         27.6964 
        1.31925         221.599         27.3861         27.3861 
        1.32537         221.076          27.081          27.081 
        1.33151         218.977         26.7794         26.7794 
        1.33765         216.972         26.4825         26.4825 
        1.34378         216.575         26.1908         26.1908 
        1.34992         215.478         25.9032         25.9032 
        1.35606         214.072         25.6193         25.6193 
         1.3622         211.577         25.3402         25.3402 
        1.36833         211.128         25.0659         25.0659 
        1.37445         209.307         24.7958         24.7958 
        1.38059         208.205         24.5288         24.5288 
        1.38675         207.131         24.2652         24.2652 
        1.39288         205.856         24.0064         24.0064 
        1.39901         203.943         23.7516         23.7516 
        1.40515         203.444         23.4998         23.4998 
         1.4113         201.753         23.2519         23.2519 
        1.41742         200.479         23.0084         23.0084 
        1.42355         199.146          22.768          22.768 
         1.4297         197.847         22.5302         22.5302 
        1.43585         196.558          22.296          22.296 
        1.44198          196.54          22.066          22.066 
        1.44809          194.35         21.8396         21.8396 
        1.45423         193.298         21.6156         21.6156 
        1.46036         191.826         21.3951         21.3951 
        1.46649         191.154         21.1776         21.1776 
        1.47263         189.993          20.963          20.963 
        1.47877         188.703         20.7514         20.7514 
        1.48491         186.829         20.5424         20.5424 
        1.49104         186.279         20.3367         20.3367 
        1.49718         184.341         20.1337         20.1337 
        1.50333         183.847         19.9331         19.9331 
        1.50947          182.33         19.7356         19.7356 
         1.5156         181.323         19.5411         19.5411 
        1.52172         180.585         19.3492         19.3492 
        1.52787         178.855         19.1595         19.1595 
          1.534         178.397         18.9726         18.9726 
        1.54013         176.795         18.7884         18.7884 
        1.54627         175.998         18.6062         18.6062 
        1.55241         174.778         18.4265         18.4265 
        1.55855         173.174         18.2494         18.2494 
        1.56467         172.798          18.075          18.075 
         1.5708         171.295         17.9025         17.9025 
        1.57695         170.743          17.732          17.732 
        1.58308         169.305          17.564          17.564 
        1.58922         168.273         17.3981         17.3981 
        1.59535         167.217         17.2345         17.2345 
         1.6015         165.814         17.0727         17.0727 
        1.60764         165.552          16.913          16.913 
        1.61376         164.237         16.7558         16.7558 
        1.61989         163.297         16.6005         16.6005 
        1.62604           162.2         16.4468         16.4468 
        1.63218         161.485         16.2951         16.2951 
        1.63831         159.874         16.1457         16.1457 
        1.64444           159.3         15.9981         15.9981 
        1.65059         158.288          15.852          15.852 
        1.65673         157.569         15.7079         15.7079 
        1.66285         156.235          15.566          15.566 
        1.66898          155.55         15.4257         15.4257 
        1.67512         154.318          15.287          15.287 
        1.68127         153.382         15.1498         15.1498 
         1.6874         152.967         15.0146         15.0146 
        1.69353         151.599         14.8811         14.8811 
        1.69967          150.61         14.7489         14.7489 
        1.70581         149.656         14.6184         14.6184 
        1.71193         148.406         14.4899         14.4899 
        1.71806         148.043         14.3627         14.3627 
        1.72421         147.001         14.2368         14.2368 
        1.73035         146.464         14.1126         14.1126 
        1.73649         145.332         13.9898         13.9898 
        1.74262         144.584         13.8686         13.8686 
        1.74876         143.136         13.7488         13.7488 
        1.75489         142.629         13.6306         13.6306 
        1.76101          141.63         13.5138         13.5138 
        1.76715         140.972         13.3982         13.3982 
        1.77329         139.861         13.2839         13.2839 
        1.77943         139.267         13.1708         13.1708 
        1.78557           138.5         13.0592         13.0592 
        1.79171         137.479         12.9489         12.9489 
        1.79785         136.596         12.8398         12.8398 
        1.80399         135.759          12.732          12.732 
        1.81012         135.274         12.6255         12.6255 
        1.81625         134.336         12.5204         12.5204 
        1.82239         133.411         12.4162         12.4162 
        1.82853           132.5         12.3133         12.3133 
        1.83466         132.083         12.2117         12.2117 
        1.84078         130.991         12.1113         12.1113 
        1.84692         130.019         12.0119         12.0119 
        1.85306         129.953         11.9135         11.9135 
         1.8592         128.831         11.8163         11.8163 
        1.86533         128.382         11.7202         11.7202 
        1.87147         127.296         11.6252         11.6252 
