# k  (h/Mpc)    Pcb(k)  (Mpc/h)^3    Pcb_linear(k) (Mpc/h)^3    Pcb_NL(k) (Mpc/h)^3   ShotnoiseSubtracted = false
     0.00783031         5113.71          5148.3          5148.3 
       0.013688         5896.56         5995.06         5995.06 
       0.019231         5736.15         5781.91         5781.91 
      0.0249154         5123.52         5104.43         5104.43 
      0.0312784            4224         4228.54         4228.54 
      0.0375637         3475.68         3493.06         3493.06 
      0.0433917         3007.82         3000.16         3000.16 
      0.0492413         2664.42         2669.72         2669.72 
      0.0555754         2442.01         2432.91         2432.91 
      0.0619321         2213.58         2246.15         2246.15 
       0.067871         2058.63         2066.86         2066.86 
      0.0738098         1864.89         1863.87         1863.87 
      0.0800417         1644.52         1634.77         1634.77 
      0.0862327         1422.93         1416.74         1416.74 
      0.0921407         1249.89         1240.58         1240.58 
      0.0982031         1123.39          1103.9          1103.9 
       0.104506         1013.06         1007.43         1007.43 
       0.110769         952.672         945.081         945.081 
       0.116806         916.684         900.283         900.283 
       0.122832         863.099         855.968         855.968 
       0.129052         811.802         801.406         801.406 
       0.135211         756.669         737.275         737.275 
       0.141259         684.849         669.792         669.792 
       0.147318          617.08         605.475         605.475 
       0.153489         566.592          549.97          549.97 
       0.159709         530.689         507.355         507.355 
       0.165845         490.395         477.536         477.536 
       0.171974         479.329         456.205         456.205 
       0.178125         460.138          438.47          438.47 
       0.184229         434.049         420.292         420.292 
        0.19034         418.285         399.128         399.128 
       0.196428         396.159         374.967         374.967 
       0.202534         363.952         349.315         349.315 
       0.208729         347.919         324.288         324.288 
       0.214876         328.986         302.524         302.524 
       0.220989         305.259         284.915         284.915 
       0.227147         296.889         271.084         271.084 
        0.23329         285.658         260.144         260.144 
       0.239377         278.299         250.692         250.692 
       0.245482         265.066         241.293         241.293 
       0.251667         252.896         231.064         231.064 
       0.257832         247.168         220.027         220.027 
       0.263955         231.639         208.661         208.661 
       0.270079         220.634         197.598         197.598 
        0.27624          209.78          187.42          187.42 
       0.282372         202.327         178.614         178.614 
        0.28843         199.329         171.231         171.231 
       0.294538          189.96         164.841         164.841 
       0.300721         182.292         159.034         159.034 
        0.30691         178.853         153.449         153.449 
       0.313033         170.851         147.871         147.871 
       0.319153         167.225         142.142         142.142 
       0.325316         160.622         136.315         136.315 
        0.33145         154.941         130.639         130.639 
       0.337538         149.202         125.326         125.326 
       0.343633         144.178         120.459         120.459 
       0.349808         139.416         116.023         116.023 
       0.355968         135.562         112.039         112.039 
       0.362074         132.387         108.397         108.397 
       0.368217         129.186          104.92          104.92 
       0.374374          125.76         101.511         101.511 
       0.380519          120.34         98.1381         98.1381 
       0.386598         117.358         94.8385         94.8385 
       0.392688         113.525         91.6045         91.6045 
        0.39888         111.257          88.453          88.453 
       0.405048         108.359         85.4968         85.4968 
       0.411186         106.007         82.7493         82.7493 
       0.417313         103.074         80.1973         80.1973 
       0.423458         100.326         77.7962         77.7962 
       0.429607         98.0715         75.5071         75.5071 
       0.435692         96.3584         73.3224         73.3224 
       0.441815         93.1872         71.1839         71.1839 
       0.447964         90.0583         69.0834         69.0834 
       0.454126         88.3555         67.0348         67.0348 
       0.460267         87.4178         65.0659         65.0659 
       0.466387         85.0386         63.1873         63.1873 
        0.47254         83.8558          61.386          61.386 
       0.478662         80.8078         59.6835         59.6835 
       0.484765         79.3909         58.0697         58.0697 
       0.490885          77.361         56.5213         56.5213 
       0.497035         76.5072         55.0211         55.0211 
       0.503198         74.7114         53.5655         53.5655 
       0.509342         72.6645         52.1591         52.1591 
       0.515458         71.4932         50.8018         50.8018 
       0.521598         69.6702         49.4814         49.4814 
       0.527764          68.803         48.2003         48.2003 
       0.533884         67.9267         46.9762         46.9762 
           0.54         66.0408          45.802          45.802 
       0.546137          64.257         44.6703         44.6703 
       0.552299         63.1023          43.576          43.576 
       0.558452          61.823         42.5209         42.5209 
       0.564573         61.3815         41.5045         41.5045 
       0.570708         59.5413         40.5173         40.5173 
       0.576825         58.8841         39.5637         39.5637 
       0.582926         58.0518         38.6424         38.6424 
       0.589034         56.8418         37.7486         37.7486 
       0.595184         55.9926          36.877          36.877 
       0.601379         54.5863         36.0274         36.0274 
       0.607522         53.5505          35.212          35.212 
       0.613639         52.9853         34.4265         34.4265 
       0.619772         51.8807         33.6643         33.6643 
       0.625918         51.1781         32.9245         32.9245 
       0.632068         50.4175          32.207          32.207 
       0.638161         49.4001          31.517          31.517 
         0.6443         48.9262         30.8419         30.8419 
       0.650464         47.7076         30.1835         30.1835 
       0.656582         47.4498         29.5486         29.5486 
       0.662703         46.6897         28.9316         28.9316 
       0.668861         45.5791         28.3289         28.3289 
       0.675024         45.2584         27.7431         27.7431 
       0.681124          44.666         27.1802         27.1802 
       0.687237         43.7381         26.6322         26.6322 
       0.693381         43.1778          26.097          26.097 
       0.699536          42.709         25.5758         25.5758 
       0.705665         41.9708         25.0712         25.0712 
       0.711789         41.2753         24.5807         24.5807 
       0.717957         40.5881            24.1            24.1 
        0.72409         40.1424         23.6347         23.6347 
       0.730186         39.8614         23.1844         23.1844 
       0.736317         39.0895         22.7434         22.7434 
       0.742472         38.5763         22.3123         22.3123 
       0.748622         37.9337         21.8927         21.8927 
        0.75476         37.3073         21.4849         21.4849 
       0.760888         37.2097         21.0881         21.0881 
       0.767043         36.4077         20.6998         20.6998 
       0.773185         35.9344         20.3222         20.3222 
       0.779291         35.4712         19.9561         19.9561 
       0.785407         34.9835         19.5987         19.5987 
       0.791564          34.895         19.2477         19.2477 
       0.797719         34.1369         18.9056         18.9056 
       0.803834         33.9124          18.574          18.574 
       0.809972         33.4055         18.2491         18.2491 
       0.816124         33.0191         17.9314         17.9314 
       0.822261         32.5453         17.6221         17.6221 
       0.828378         32.3522          17.321          17.321 
       0.834502          31.911         17.0268         17.0268 
       0.840667         31.5976         16.7375         16.7375 
       0.846816         31.0699         16.4557         16.4557 
       0.852925         30.8169         16.1823         16.1823 
       0.859047         30.6162         15.9145         15.9145 
       0.865192         30.0805         15.6519         15.6519 
       0.871341         29.7305          15.395          15.395 
       0.877463         29.4094         15.1452         15.1452 
       0.883569         29.2525         14.9015         14.9015 
       0.889708         28.8565         14.6619         14.6619 
       0.895864         28.5151          14.427          14.427 
       0.902008         28.2066         14.1978         14.1978 
       0.908149         27.8772         13.9737         13.9737 
       0.914301         27.6287         13.7541         13.7541 
       0.920448          27.379         13.5394         13.5394 
       0.926574         26.9697         13.3301         13.3301 
       0.932687         26.6993         13.1256         13.1256 
       0.938823         26.3423         12.9247         12.9247 
       0.944975         26.1051         12.7276         12.7276 
       0.951105         25.8984         12.5352         12.5352 
       0.957225         25.6824         12.3472         12.3472 
       0.963368           25.35         12.1624         12.1624 
       0.969511         25.1216         11.9814         11.9814 
       0.975621         24.9154         11.8051         11.8051 
       0.981748         24.6031         11.6318         11.6318 
       0.987916          24.416          11.461          11.461 
        0.99406         24.1178         11.2942         11.2942 
        1.00019         23.9455         11.1311         11.1311 
        1.00632         23.7342         10.9713         10.9713 
        1.01246         23.4881         10.8145         10.8145 
        1.01859         23.2541          10.661          10.661 
        1.02471         23.0161         10.5106         10.5106 
        1.03085         22.8811         10.3626         10.3626 
        1.03698         22.7054         10.2178         10.2178 
        1.04314         22.4542         10.0752         10.0752 
        1.04929         22.1475         9.93556         9.93556 
        1.05541         22.0833         9.79917         9.79917 
        1.06154         21.8998           9.665           9.665 
        1.06769         21.5562         9.53315         9.53315 
        1.07382         21.4403         9.40419         9.40419 
        1.07993         21.2536         9.27791         9.27791 
        1.08607         21.0659         9.15343         9.15343 
        1.09222         20.8953         9.03112         9.03112 
        1.09836         20.6699         8.91119         8.91119 
        1.10449         20.5817         8.79357         8.79357 
        1.11063         20.3676         8.67796         8.67796 
        1.11677         20.2917         8.56446         8.56446 
         1.1229          20.061          8.4532          8.4532 
        1.12903         19.8612         8.34381         8.34381 
        1.13518         19.7939         8.23627         8.23627 
        1.14131         19.5963         8.13069         8.13069 
        1.14745         19.3654         8.02702         8.02702 
        1.15359         19.1576         7.92514         7.92514 
        1.15973         19.0701         7.82498         7.82498 
        1.16584         18.9077         7.72701         7.72701 
        1.17197         18.6839         7.63058         7.63058 
        1.17811         18.5922         7.53549         7.53549 
        1.18424         18.3674         7.44231         7.44231 
        1.19038         18.3068         7.35043         7.35043 
        1.19652          18.104         7.26014         7.26014 
        1.20267         18.0352         7.17136         7.17136 
        1.20881         17.8496         7.08409         7.08409 
        1.21495         17.7629          6.9984          6.9984 
        1.22108          17.668         6.91415         6.91415 
         1.2272         17.4992         6.83147         6.83147 
        1.23334         17.3917         6.74996         6.74996 
        1.23949         17.2294         6.66958         6.66958 
        1.24562         17.0457         6.59073         6.59073 
        1.25174         16.9796         6.51327         6.51327 
        1.25789         16.8811         6.43681         6.43681 
        1.26402         16.7486         6.36172         6.36172 
        1.27014         16.6352         6.28801         6.28801 
        1.27628         16.4642         6.21525         6.21525 
        1.28244         16.4496          6.1435          6.1435 
        1.28858         16.2553         6.07297         6.07297 
        1.29471          16.104         6.00371         6.00371 
        1.30084         15.9916          5.9356          5.9356 
        1.30697         15.9096         5.86843         5.86843 
        1.31312         15.7792         5.80221         5.80221 
        1.31925         15.6766         5.73722         5.73722 
        1.32537         15.5414         5.67329         5.67329 
        1.33151         15.4246         5.61011         5.61011 
        1.33765         15.3926         5.54792         5.54792 
        1.34378         15.2818          5.4868          5.4868 
        1.34992         15.1432         5.42655         5.42655 
        1.35606         15.0181         5.36708         5.36708 
         1.3622         14.9294         5.30861         5.30861 
        1.36833         14.8745         5.25115         5.25115 
        1.37445         14.7515         5.19456         5.19456 
        1.38059         14.6436         5.13864         5.13864 
        1.38675         14.5599          5.0834          5.0834 
        1.39288         14.4345         5.02919         5.02919 
        1.39901         14.3367          4.9758          4.9758 
        1.40515         14.2714         4.92307         4.92307 
         1.4113         14.1847         4.87112         4.87112 
        1.41742         14.1057         4.82011         4.82011 
        1.42355         13.9755         4.76974         4.76974 
         1.4297         13.8869         4.71994         4.71994 
        1.43585         13.7999         4.67087         4.67087 
        1.44198         13.7579         4.62268         4.62268 
        1.44809         13.6515         4.57526         4.57526 
        1.45423         13.5583         4.52833         4.52833 
        1.46036         13.4767         4.48214         4.48214 
        1.46649         13.3865         4.43658         4.43658 
        1.47263         13.2983         4.39162         4.39162 
        1.47877         13.2174         4.34729         4.34729 
        1.48491          13.145         4.30351         4.30351 
        1.49104          13.058         4.26042         4.26042 
        1.49718         13.0158         4.21788         4.21788 
        1.50333         12.9425         4.17586         4.17586 
        1.50947         12.8384         4.13449         4.13449 
         1.5156         12.7779         4.09374         4.09374 
        1.52172          12.681         4.05355         4.05355 
        1.52787         12.6471         4.01381         4.01381 
          1.534         12.5602         3.97465         3.97465 
        1.54013         12.5013         3.93605         3.93605 
        1.54627         12.3809         3.89789         3.89789 
        1.55241         12.2969         3.86023         3.86023 
        1.55855         12.2543         3.82313         3.82313 
        1.56467         12.1959         3.78661         3.78661 
         1.5708         12.1268         3.75046         3.75046 
        1.57695         12.0672         3.71473         3.71473 
        1.58308         11.9647         3.67955         3.67955 
        1.58922         11.9062          3.6448          3.6448 
        1.59535         11.8431         3.61051         3.61051 
         1.6015         11.7531         3.57661         3.57661 
        1.60764         11.7027         3.54317         3.54317 
        1.61376         11.6502         3.51024         3.51024 
        1.61989         11.5434          3.4777          3.4777 
        1.62604         11.5084          3.4455          3.4455 
        1.63218          11.454         3.41373         3.41373 
        1.63831         11.3691         3.38243         3.38243 
        1.64444         11.3049         3.35151         3.35151 
        1.65059         11.2493          3.3209          3.3209 
        1.65673         11.1966         3.29071         3.29071 
        1.66285         11.1066         3.26098         3.26098 
        1.66898         11.0765          3.2316          3.2316 
        1.67512         11.0502         3.20253         3.20253 
        1.68127         10.9648         3.17378         3.17378 
         1.6874         10.9252         3.14546         3.14546 
        1.69353         10.8066         3.11749         3.11749 
        1.69967         10.7684          3.0898          3.0898 
        1.70581         10.7245         3.06246         3.06246 
        1.71193         10.6561         3.03555         3.03555 
        1.71806         10.6077         3.00891         3.00891 
        1.72421         10.5504         2.98253         2.98253 
        1.73035          10.499          2.9565          2.9565 
        1.73649          10.455         2.93078         2.93078 
        1.74262         10.3845         2.90539         2.90539 
        1.74876         10.3401         2.88028         2.88028 
        1.75489         10.2905         2.85552         2.85552 
        1.76101         10.2085         2.83106         2.83106 
        1.76715         10.1924         2.80685         2.80685 
        1.77329         10.1203         2.78289         2.78289 
        1.77943         10.0686          2.7592          2.7592 
        1.78557         10.0519         2.73582         2.73582 
        1.79171         9.96689         2.71271         2.71271 
        1.79785         9.91388         2.68986         2.68986 
        1.80399         9.86533         2.66727         2.66727 
        1.81012         9.82691         2.64497         2.64497 
        1.81625         9.77331         2.62294         2.62294 
        1.82239         9.72104         2.60113         2.60113 
        1.82853         9.67251         2.57957         2.57957 
        1.83466         9.60799         2.55828         2.55828 
        1.84078         9.57039         2.53725         2.53725 
        1.84692         9.55998         2.51642         2.51642 
        1.85306         9.49663          2.4958          2.4958 
         1.8592         9.45987         2.47544         2.47544 
        1.86533          9.3805         2.45532         2.45532 
        1.87147         9.34377          2.4354          2.4354 
