# k  (h/Mpc)    P(k)  (Mpc/h)^3    P_linear(k)  (Mpc/h)^3     P_NL(k)  ShotnoiseSubtracted = false
     0.00783031         4096.37         4124.92         4124.92 
       0.013688          4730.2         4803.66         4803.66 
       0.019231         4599.78         4632.98         4632.98 
      0.0249154          4104.2         4090.18         4090.18 
      0.0312784         3386.32         3388.36         3388.36 
      0.0375637         2787.54         2799.03         2799.03 
      0.0433917         2410.71         2404.07         2404.07 
      0.0492413         2136.15         2139.29         2139.29 
      0.0555754            1957         1949.53         1949.53 
      0.0619321         1776.77         1799.88         1799.88 
       0.067871         1650.94         1656.22         1656.22 
      0.0738098         1494.56         1493.56         1493.56 
      0.0800417         1317.37         1309.97         1309.97 
      0.0862327         1139.79         1135.26         1135.26 
      0.0921407         1000.34           994.1           994.1 
      0.0982031         898.152         884.582         884.582 
       0.104506         810.571         807.277         807.277 
       0.110769          762.02         757.314         757.314 
       0.116806         732.634         721.417         721.417 
       0.122832         690.248         685.906         685.906 
       0.129052         649.246         642.184         642.184 
       0.135211         603.938         590.795         590.795 
       0.141259         546.666          536.72          536.72 
       0.147318         492.423          485.18          485.18 
       0.153489         451.545         440.704         440.704 
       0.159709         421.927         406.555         406.555 
       0.165845         390.469          382.66          382.66 
       0.171974         380.988         365.567         365.567 
       0.178125         365.561         351.356         351.356 
       0.184229         345.635          336.79          336.79 
        0.19034         332.583         319.831         319.831 
       0.196428         314.405          300.47          300.47 
       0.202534         288.999         279.914         279.914 
       0.208729         275.305          259.86          259.86 
       0.214876           260.1          242.42          242.42 
       0.220989          241.32         228.309         228.309 
       0.227147         234.375         217.226         217.226 
        0.23329         225.453          208.46          208.46 
       0.239377           219.2         200.885         200.885 
       0.245482          209.05         193.353         193.353 
       0.251667         199.318         185.157         185.157 
       0.257832         194.369         176.313         176.313 
       0.263955         182.224         167.205         167.205 
       0.270079         173.387          158.34          158.34 
        0.27624          164.67         150.184         150.184 
       0.282372           158.5         143.128         143.128 
        0.28843         155.778         137.212         137.212 
       0.294538         148.694         132.091         132.091 
       0.300721         142.508         127.438         127.438 
        0.30691         139.683         122.962         122.962 
       0.313033         133.584         118.492         118.492 
       0.319153          130.66         113.901         113.901 
       0.325316         125.012         109.233         109.233 
        0.33145         120.388         104.684         104.684 
       0.337538         115.978         100.426         100.426 
       0.343633         112.101          96.527          96.527 
       0.349808         108.251         92.9722         92.9722 
       0.355968         105.056         89.7794         89.7794 
       0.362074         102.738         86.8612         86.8612 
       0.368217          99.977         84.0748         84.0748 
       0.374374         97.3615         81.3437         81.3437 
       0.380519          93.146         78.6404         78.6404 
       0.386598          90.601         75.9962         75.9962 
       0.392688         87.5809         73.4049         73.4049 
        0.39888         85.8199         70.8792         70.8792 
       0.405048         83.5336         68.5107         68.5107 
       0.411186         81.4447         66.3088         66.3088 
       0.417313         79.0946          64.264          64.264 
       0.423458         76.9188         62.3399         62.3399 
       0.429607          75.293         60.5056         60.5056 
       0.435692         73.9586          58.755          58.755 
       0.441815         71.2963         57.0413         57.0413 
       0.447964         68.8739         55.3581         55.3581 
       0.454126         67.5849         53.7166         53.7166 
       0.460267         66.8159         52.1388         52.1388 
       0.466387         64.9224         50.6334         50.6334 
        0.47254         63.9527         49.1901         49.1901 
       0.478662          61.633         47.8257         47.8257 
       0.484765          60.445         46.5327         46.5327 
       0.490885         58.7725         45.2918         45.2918 
       0.497035         58.0298         44.0897         44.0897 
       0.503198         56.6413         42.9233         42.9233 
       0.509342         55.0468         41.7963         41.7963 
       0.515458         54.1632         40.7087         40.7087 
       0.521598         52.7918         39.6506         39.6506 
       0.527764         52.0596         38.6241         38.6241 
       0.533884         51.2113         37.6431         37.6431 
           0.54         49.8781         36.7022         36.7022 
       0.546137         48.4273         35.7954         35.7954 
       0.552299           47.54         34.9185         34.9185 
       0.558452         46.5171          34.073          34.073 
       0.564573         46.1243         33.2585         33.2585 
       0.570708         44.7577         32.4674         32.4674 
       0.576825         44.2363         31.7033         31.7033 
       0.582926         43.5297          30.965          30.965 
       0.589034         42.5892         30.2488         30.2488 
       0.595184         41.9465         29.5504         29.5504 
       0.601379         40.8386         28.8696         28.8696 
       0.607522         40.0795         28.2162         28.2162 
       0.613639         39.5829         27.5868         27.5868 
       0.619772         38.7493          26.976          26.976 
       0.625918         38.1096         26.3832         26.3832 
       0.632068         37.6503         25.8082         25.8082 
       0.638161         36.8294         25.2554         25.2554 
         0.6443          36.379         24.7143         24.7143 
       0.650464         35.4454         24.1867         24.1867 
       0.656582          35.215          23.678          23.678 
       0.662703         34.6653         23.1836         23.1836 
       0.668861         33.7989         22.7006         22.7006 
       0.675024         33.4552         22.2312         22.2312 
       0.681124         33.1054         21.7801         21.7801 
       0.687237         32.3993          21.341          21.341 
       0.693381         31.8723         20.9121         20.9121 
       0.699536         31.5788         20.4945         20.4945 
       0.705665         30.9777         20.0902         20.0902 
       0.711789         30.4507         19.6971         19.6971 
       0.717957         29.8691         19.3119         19.3119 
        0.72409         29.5447          18.939          18.939 
       0.730186         29.3471         18.5782         18.5782 
       0.736317         28.7442         18.2249         18.2249 
       0.742472         28.3817         17.8794         17.8794 
       0.748622         27.8838         17.5432         17.5432 
        0.75476         27.2884         17.2163         17.2163 
       0.760888         27.2232         16.8984         16.8984 
       0.767043         26.6643         16.5873         16.5873 
       0.773185         26.3295         16.2846         16.2846 
       0.779291         25.9769         15.9913         15.9913 
       0.785407         25.6017         15.7049         15.7049 
       0.791564         25.4869         15.4236         15.4236 
       0.797719         24.8825         15.1495         15.1495 
       0.803834         24.7523         14.8838         14.8838 
       0.809972         24.3069         14.6235         14.6235 
       0.816124         24.0303         14.3688         14.3688 
       0.822261         23.7111          14.121          14.121 
       0.828378         23.5094         13.8797         13.8797 
       0.834502         23.2076         13.6439         13.6439 
       0.840667         22.9578         13.4121         13.4121 
       0.846816         22.4978         13.1864         13.1864 
       0.852925         22.3692         12.9672         12.9672 
       0.859047         22.1509         12.7526         12.7526 
       0.865192         21.7864         12.5422         12.5422 
       0.871341         21.5212         12.3364         12.3364 
       0.877463          21.261         12.1362         12.1362 
       0.883569         21.1211         11.9409         11.9409 
       0.889708         20.8028         11.7489         11.7489 
       0.895864         20.5299         11.5607         11.5607 
       0.902008         20.3029          11.377          11.377 
       0.908149         20.0432         11.1974         11.1974 
       0.914301         19.8875         11.0215         11.0215 
       0.920448         19.6314         10.8494         10.8494 
       0.926574         19.3995         10.6817         10.6817 
       0.932687         19.1637         10.5179         10.5179 
       0.938823          18.891         10.3569         10.3569 
       0.944975         18.7441         10.1989         10.1989 
       0.951105         18.5648         10.0448         10.0448 
       0.957225         18.4103         9.89412         9.89412 
       0.963368         18.1224         9.74604         9.74604 
       0.969511         17.9552           9.601           9.601 
       0.975621          17.799         9.45969         9.45969 
       0.981748         17.5566         9.32086         9.32086 
       0.987916         17.4411         9.18396         9.18396 
        0.99406         17.1899         9.05032         9.05032 
        1.00019         17.0767          8.9196          8.9196 
        1.00632         16.9212          8.7916          8.7916 
        1.01246         16.7284         8.66591         8.66591 
        1.01859         16.5381         8.54289         8.54289 
        1.02471           16.37          8.4224          8.4224 
        1.03085         16.2748         8.30383         8.30383 
        1.03698         16.1317         8.18779         8.18779 
        1.04314         15.9216         8.07347         8.07347 
        1.04929         15.7114          7.9616          7.9616 
        1.05541         15.6389         7.85231         7.85231 
        1.06154         15.5085          7.7448          7.7448 
        1.06769         15.2873         7.63914         7.63914 
        1.07382         15.1465          7.5358          7.5358 
        1.07993         15.0152         7.43461         7.43461 
        1.08607         14.8972         7.33486         7.33486 
        1.09222         14.7406         7.23685         7.23685 
        1.09836         14.5942         7.14075         7.14075 
        1.10449         14.5035          7.0465          7.0465 
        1.11063         14.3799         6.95385         6.95385 
        1.11677         14.2914         6.86291         6.86291 
         1.1229         14.1284         6.77375         6.77375 
        1.12903          13.979          6.6861          6.6861 
        1.13518         13.8887         6.59992         6.59992 
        1.14131         13.7736         6.51532         6.51532 
        1.14745          13.581         6.43224         6.43224 
        1.15359         13.4403          6.3506          6.3506 
        1.15973         13.3606         6.27035         6.27035 
        1.16584         13.2358         6.19184         6.19184 
        1.17197         13.0868         6.11456         6.11456 
        1.17811         13.0133         6.03837         6.03837 
        1.18424         12.8851          5.9637          5.9637 
        1.19038         12.8259         5.89007         5.89007 
        1.19652         12.6627         5.81772         5.81772 
        1.20267         12.6099         5.74658         5.74658 
        1.20881          12.449         5.67665         5.67665 
        1.21495         12.3819         5.60799         5.60799 
        1.22108         12.3095         5.54047         5.54047 
         1.2272          12.193         5.47422         5.47422 
        1.23334         12.1163          5.4089          5.4089 
        1.23949         11.9988         5.34449         5.34449 
        1.24562          11.859         5.28131         5.28131 
        1.25174         11.8219         5.21924         5.21924 
        1.25789         11.7243         5.15797         5.15797 
        1.26402         11.6309          5.0978          5.0978 
        1.27014         11.5627         5.03873         5.03873 
        1.27628         11.4267         4.98043         4.98043 
        1.28244         11.4039         4.92293         4.92293 
        1.28858         11.2683         4.86642         4.86642 
        1.29471         11.1463         4.81092         4.81092 
        1.30084         11.0649         4.75633         4.75633 
        1.30697         11.0193         4.70252         4.70252 
        1.31312         10.9242         4.64945         4.64945 
        1.31925         10.8559         4.59737         4.59737 
        1.32537         10.7501         4.54614         4.54614 
        1.33151         10.6741         4.49551         4.49551 
        1.33765          10.623         4.44568         4.44568 
        1.34378         10.5563          4.3967          4.3967 
        1.34992         10.4503         4.34843         4.34843 
        1.35606         10.3535         4.30077         4.30077 
         1.3622         10.2819         4.25391         4.25391 
        1.36833         10.2504         4.20787         4.20787 
        1.37445         10.1699         4.16252         4.16252 
        1.38059         10.0854         4.11771         4.11771 
        1.38675         10.0284         4.07345         4.07345 
        1.39288         9.92951         4.03001         4.03001 
        1.39901         9.86102         3.98723         3.98723 
        1.40515         9.80148         3.94497         3.94497 
         1.4113         9.73108         3.90334         3.90334 
        1.41742         9.68141         3.86247         3.86247 
        1.42355         9.58744         3.82211         3.82211 
         1.4297         9.52808          3.7822          3.7822 
        1.43585         9.46836         3.74288         3.74288 
        1.44198         9.42858         3.70426         3.70426 
        1.44809         9.34871         3.66627         3.66627 
        1.45423           9.281         3.62866         3.62866 
        1.46036          9.2154         3.59165         3.59165 
        1.46649         9.15658         3.55514         3.55514 
        1.47263         9.10043         3.51911         3.51911 
        1.47877         9.03243         3.48359         3.48359 
        1.48491         8.98266          3.4485          3.4485 
        1.49104         8.91839         3.41397         3.41397 
        1.49718         8.87718         3.37989         3.37989 
        1.50333         8.82642         3.34621         3.34621 
        1.50947         8.75932         3.31307         3.31307 
         1.5156         8.71649         3.28041         3.28041 
        1.52172          8.6344          3.2482          3.2482 
        1.52787         8.61666         3.21636         3.21636 
          1.534         8.55043         3.18498         3.18498 
        1.54013         8.50273         3.15405         3.15405 
        1.54627         8.42764         3.12347         3.12347 
        1.55241         8.35704          3.0933          3.0933 
        1.55855         8.33426         3.06356         3.06356 
        1.56467         8.29272          3.0343          3.0343 
         1.5708         8.23801         3.00534         3.00534 
        1.57695         8.18577         2.97671         2.97671 
        1.58308         8.12498         2.94851         2.94851 
        1.58922         8.08668         2.92067         2.92067 
        1.59535         8.04183         2.89319         2.89319 
         1.6015         7.95432         2.86603         2.86603 
        1.60764         7.92005         2.83922         2.83922 
        1.61376         7.88917         2.81284         2.81284 
        1.61989         7.82379         2.78677         2.78677 
        1.62604         7.80132         2.76096         2.76096 
        1.63218          7.7566          2.7355          2.7355 
        1.63831          7.6943         2.71042         2.71042 
        1.64444         7.63947         2.68565         2.68565 
        1.65059         7.59385         2.66112         2.66112 
        1.65673          7.5721         2.63692         2.63692 
        1.66285         7.50477          2.6131          2.6131 
        1.66898         7.48857         2.58956         2.58956 
        1.67512          7.4565         2.56626         2.56626 
        1.68127         7.38141         2.54323         2.54323 
         1.6874         7.36773         2.52053         2.52053 
        1.69353         7.28295         2.49812         2.49812 
        1.69967         7.26349         2.47593         2.47593 
        1.70581         7.22295         2.45402         2.45402 
        1.71193         7.18276         2.43246         2.43246 
        1.71806         7.14438         2.41111         2.41111 
        1.72421         7.10058         2.38997         2.38997 
        1.73035         7.07089         2.36911         2.36911 
        1.73649          7.0422          2.3485          2.3485 
        1.74262         6.96957         2.32816         2.32816 
        1.74876          6.9581         2.30804         2.30804 
        1.75489         6.92182          2.2882          2.2882 
        1.76101         6.85761         2.26859         2.26859 
        1.76715         6.85339         2.24919         2.24919 
        1.77329         6.79832            2.23            2.23 
        1.77943         6.74863         2.21101         2.21101 
        1.78557         6.74993         2.19228         2.19228 
        1.79171         6.69388         2.17376         2.17376 
        1.79785         6.66395         2.15545         2.15545 
        1.80399         6.62454         2.13735         2.13735 
        1.81012          6.5876         2.11948         2.11948 
        1.81625         6.54982         2.10183         2.10183 
        1.82239         6.51752         2.08435         2.08435 
        1.82853         6.47013         2.06707         2.06707 
        1.83466         6.43011         2.05001         2.05001 
        1.84078         6.40363         2.03316         2.03316 
        1.84692         6.39104         2.01647         2.01647 
        1.85306         6.35092         1.99994         1.99994 
         1.8592         6.32606         1.98363         1.98363 
        1.86533         6.27645         1.96751         1.96751 
        1.87147         6.25157         1.95154         1.95154 
        1.87761         6.22735         1.93575         1.93575 
