# k  (h/Mpc)    Pcb(k)  (Mpc/h)^3    Pcb_linear(k) (Mpc/h)^3    Pcb_NL(k) (Mpc/h)^3   ShotnoiseSubtracted = false
     0.00783031         2966.89         2988.43         2988.43 
       0.013688         3432.57         3480.49         3480.49 
       0.019231         3336.15         3356.95         3356.95 
      0.0249154         2972.39          2963.7          2963.7 
      0.0312784         2455.07          2455.2          2455.2 
      0.0375637         2022.11         2028.19         2028.19 
      0.0433917         1747.12         1742.01         1742.01 
      0.0492413         1548.83         1550.15         1550.15 
      0.0555754         1417.98         1412.65         1412.65 
      0.0619321         1290.26         1304.22         1304.22 
       0.067871         1197.34         1200.12         1200.12 
      0.0738098            1083         1082.25         1082.25 
      0.0800417         953.999         949.226         949.226 
      0.0862327         825.409          822.63          822.63 
      0.0921407         723.727         720.342         720.342 
      0.0982031         648.866         640.983         640.983 
       0.104506         586.287         584.966         584.966 
       0.110769         550.932         548.763         548.763 
       0.116806         529.007         522.751         522.751 
       0.122832         498.916          497.02          497.02 
       0.129052         469.196         465.338         465.338 
       0.135211         435.348         428.101         428.101 
       0.141259         394.143         388.917         388.917 
       0.147318         354.993         351.571         351.571 
       0.153489         324.963         319.342         319.342 
       0.159709         302.712         294.597         294.597 
       0.165845         280.775         277.283         277.283 
       0.171974         273.188         264.897         264.897 
       0.178125         262.017         254.599         254.599 
       0.184229         248.462         244.044         244.044 
        0.19034         238.606         231.755         231.755 
       0.196428         225.035         217.726         217.726 
       0.202534         207.091         202.831         202.831 
       0.208729         196.328         188.299         188.299 
       0.214876         185.205         175.662         175.662 
       0.220989         171.942         165.437         165.437 
       0.227147         166.594         157.406         157.406 
        0.23329         160.178         151.054         151.054 
       0.239377         155.345         145.565         145.565 
       0.245482         148.438         140.108         140.108 
       0.251667         141.444         134.169         134.169 
       0.257832         137.427         127.759         127.759 
       0.263955         128.988          121.16          121.16 
       0.270079         122.574         114.736         114.736 
        0.27624         116.238         108.826         108.826 
       0.282372         111.599         103.713         103.713 
        0.28843         109.254         99.4261         99.4261 
       0.294538         104.509         95.7159         95.7159 
       0.300721         100.064         92.3438         92.3438 
        0.30691         97.9032         89.1006         89.1006 
       0.313033         93.7799         85.8619         85.8619 
       0.319153         91.6087         82.5353         82.5353 
       0.325316         87.2533         79.1521         79.1521 
        0.33145         83.8658          75.856          75.856 
       0.337538         80.8229         72.7709         72.7709 
       0.343633         78.1412         69.9452         69.9452 
       0.349808         75.3291         67.3695         67.3695 
       0.355968         72.9225         65.0559         65.0559 
       0.362074         71.3616         62.9413         62.9413 
       0.368217         69.2317         60.9224         60.9224 
       0.374374         67.4664         58.9431         58.9431 
       0.380519         64.5548         56.9843         56.9843 
       0.386598         62.5807         55.0684         55.0684 
       0.392688         60.4477         53.1906         53.1906 
        0.39888         59.1617         51.3606         51.3606 
       0.405048         57.5366         49.6441         49.6441 
       0.411186         55.8805         48.0487         48.0487 
       0.417313         54.2056         46.5669         46.5669 
       0.423458         52.6187         45.1727         45.1727 
       0.429607         51.5726         43.8435         43.8435 
       0.435692         50.6017          42.575          42.575 
       0.441815          48.654         41.3332         41.3332 
       0.447964         46.9755         40.1136         40.1136 
       0.454126         46.1109         38.9241         38.9241 
       0.460267         45.4927         37.7808         37.7808 
       0.466387         44.1346           36.69           36.69 
        0.47254         43.3903         35.6441         35.6441 
       0.478662          41.864         34.6555         34.6555 
       0.484765         40.9505         33.7185         33.7185 
       0.490885          39.738         32.8194         32.8194 
       0.497035         39.0841         31.9482         31.9482 
       0.503198         38.1822         31.1031         31.1031 
       0.509342         37.0529         30.2864         30.2864 
       0.515458         36.4561         29.4983         29.4983 
       0.521598         35.5468         28.7316         28.7316 
       0.527764         34.9898         27.9877         27.9877 
       0.533884         34.2082          27.277          27.277 
           0.54         33.4168         26.5951         26.5951 
       0.546137         32.3723          25.938          25.938 
       0.552299         31.7725         25.3026         25.3026 
       0.558452          31.039           24.69           24.69 
       0.564573         30.6895         24.0998         24.0998 
       0.570708          29.834         23.5265         23.5265 
       0.576825         29.4193         22.9729         22.9729 
       0.582926         28.8653         22.4379         22.4379 
       0.589034         28.2287         21.9189         21.9189 
       0.595184         27.8103         21.4128         21.4128 
       0.601379         27.0363         20.9195         20.9195 
       0.607522          26.534          20.446          20.446 
       0.613639         26.1098         19.9899         19.9899 
       0.619772         25.5811         19.5473         19.5473 
       0.625918         25.0691         19.1178         19.1178 
       0.632068         24.8038         18.7011         18.7011 
       0.638161         24.2365         18.3005         18.3005 
         0.6443         23.8529         17.9085         17.9085 
       0.650464          23.226         17.5262         17.5262 
       0.656582         23.0395         17.1575         17.1575 
       0.662703         22.6919         16.7993         16.7993 
       0.668861         22.0856         16.4493         16.4493 
       0.675024         21.7719         16.1091         16.1091 
       0.681124         21.6151         15.7823         15.7823 
       0.687237         21.1381         15.4641         15.4641 
       0.693381         20.6907         15.1533         15.1533 
       0.699536          20.531         14.8507         14.8507 
       0.705665         20.1013         14.5577         14.5577 
       0.711789         19.7373         14.2729         14.2729 
       0.717957         19.3056         13.9938         13.9938 
        0.72409         19.1103         13.7236         13.7236 
       0.730186         18.9803         13.4622         13.4622 
       0.736317         18.5535         13.2061         13.2061 
       0.742472          18.316         12.9557         12.9557 
       0.748622         17.9789         12.7121         12.7121 
        0.75476         17.5188         12.4753         12.4753 
       0.760888           17.45         12.2449         12.2449 
       0.767043          17.108         12.0194         12.0194 
       0.773185         16.8845         11.8002         11.8002 
       0.779291         16.6828         11.5876         11.5876 
       0.785407         16.4067         11.3801         11.3801 
       0.791564         16.2636         11.1763         11.1763 
       0.797719         15.8653         10.9776         10.9776 
       0.803834         15.7939         10.7851         10.7851 
       0.809972          15.467         10.5964         10.5964 
       0.816124         15.2785         10.4119         10.4119 
       0.822261         15.0847         10.2323         10.2323 
       0.828378          14.908         10.0575         10.0575 
       0.834502         14.7202         9.88667         9.88667 
       0.840667         14.5487         9.71869         9.71869 
       0.846816         14.2159          9.5551          9.5551 
       0.852925         14.1461         9.39631         9.39631 
       0.859047         13.9511         9.24081         9.24081 
       0.865192         13.7349         9.08833         9.08833 
       0.871341          13.552          8.9392          8.9392 
       0.877463         13.3687         8.79411         8.79411 
       0.883569         13.2655         8.65261         8.65261 
       0.889708         13.0342         8.51351         8.51351 
       0.895864         12.8561         8.37712         8.37712 
       0.902008         12.6999         8.24401         8.24401 
       0.908149         12.5083         8.11389         8.11389 
       0.914301         12.4213         7.98637         7.98637 
       0.920448         12.2303         7.86171         7.86171 
       0.926574         12.1195         7.74016         7.74016 
       0.932687         11.9314         7.62144         7.62144 
       0.938823         11.7596         7.50479         7.50479 
       0.944975         11.6732         7.39032         7.39032 
       0.951105         11.5216         7.27865         7.27865 
       0.957225         11.4308         7.16948         7.16948 
       0.963368         11.2299         7.06218         7.06218 
       0.969511         11.1099         6.95707         6.95707 
       0.975621         10.9972         6.85468         6.85468 
       0.981748         10.8393         6.75408         6.75408 
       0.987916          10.759         6.65488         6.65488 
        0.99406          10.609         6.55804         6.55804 
        1.00019         10.5223         6.46332         6.46332 
        1.00632         10.4233         6.37056         6.37056 
        1.01246         10.2895         6.27949         6.27949 
        1.01859         10.1612         6.19034         6.19034 
        1.02471          10.035         6.10304         6.10304 
        1.03085          9.9797         6.01712         6.01712 
        1.03698         9.87411         5.93303         5.93303 
        1.04314         9.73243         5.85019         5.85019 
        1.04929          9.5979         5.76913         5.76913 
        1.05541         9.53537         5.68994         5.68994 
        1.06154          9.4416         5.61203         5.61203 
        1.06769          9.3465         5.53547         5.53547 
        1.07382         9.20212         5.46059         5.46059 
        1.07993         9.12363         5.38726         5.38726 
        1.08607         9.05889         5.31499         5.31499 
        1.09222         8.93524         5.24396         5.24396 
        1.09836         8.87654         5.17432         5.17432 
        1.10449         8.75821         5.10603         5.10603 
        1.11063         8.71124          5.0389          5.0389 
        1.11677         8.62977           4.973           4.973 
         1.1229         8.53808         4.90839         4.90839 
        1.12903         8.44871         4.84488         4.84488 
        1.13518         8.34693         4.78243         4.78243 
        1.14131         8.28025         4.72113         4.72113 
        1.14745         8.15142         4.66093         4.66093 
        1.15359         8.07277         4.60177         4.60177 
        1.15973         8.00918         4.54362         4.54362 
        1.16584         7.93396         4.48673         4.48673 
        1.17197         7.84512         4.43073         4.43073 
        1.17811         7.77977         4.37552         4.37552 
        1.18424         7.71846         4.32141         4.32141 
        1.19038         7.66543         4.26806         4.26806 
        1.19652         7.57811         4.21564         4.21564 
        1.20267         7.52452         4.16409         4.16409 
        1.20881         7.41446         4.11341         4.11341 
        1.21495         7.36775         4.06366         4.06366 
        1.22108         7.30696         4.01473         4.01473 
         1.2272         7.23571         3.96673         3.96673 
        1.23334         7.19682          3.9194          3.9194 
        1.23949         7.11491         3.87272         3.87272 
        1.24562          7.0426         3.82694         3.82694 
        1.25174         7.00461         3.78196         3.78196 
        1.25789         6.90884         3.73757         3.73757 
        1.26402         6.86927         3.69397         3.69397 
        1.27014         6.83014         3.65117         3.65117 
        1.27628         6.73517         3.60892         3.60892 
        1.28244         6.71067         3.56725         3.56725 
        1.28858         6.64101          3.5263          3.5263 
        1.29471         6.55565         3.48609         3.48609 
        1.30084         6.50234         3.44653         3.44653 
        1.30697         6.48199         3.40754         3.40754 
        1.31312         6.41023         3.36908         3.36908 
        1.31925         6.36249         3.33135         3.33135 
        1.32537         6.30473         3.29423         3.29423 
        1.33151         6.25322         3.25754         3.25754 
        1.33765         6.19844         3.22143         3.22143 
        1.34378         6.17979         3.18594         3.18594 
        1.34992         6.10512         3.15096         3.15096 
        1.35606         6.05109         3.11642         3.11642 
         1.3622          5.9971         3.08247         3.08247 
        1.36833         5.96672          3.0491          3.0491 
        1.37445         5.91651         3.01625         3.01625 
        1.38059         5.85848         2.98377         2.98377 
        1.38675         5.82195          2.9517          2.9517 
        1.39288         5.76546         2.92023         2.92023 
        1.39901         5.71531         2.88923         2.88923 
        1.40515         5.67328          2.8586          2.8586 
         1.4113         5.62806         2.82844         2.82844 
        1.41742         5.59952         2.79882         2.79882 
        1.42355         5.53834         2.76958         2.76958 
         1.4297         5.50256         2.74066         2.74066 
        1.43585         5.46952         2.71216         2.71216 
        1.44198         5.42603         2.68418         2.68418 
        1.44809         5.38152         2.65665         2.65665 
        1.45423         5.33584          2.6294          2.6294 
        1.46036         5.30336         2.60258         2.60258 
        1.46649         5.26392         2.57612         2.57612 
        1.47263         5.22802         2.55001         2.55001 
        1.47877         5.18486         2.52428         2.52428 
        1.48491         5.15764         2.49885         2.49885 
        1.49104         5.10828         2.47383         2.47383 
        1.49718         5.08444         2.44913         2.44913 
        1.50333         5.04176         2.42473         2.42473 
        1.50947         4.99874         2.40071         2.40071 
         1.5156         4.97641         2.37705         2.37705 
        1.52172         4.92959         2.35371         2.35371 
        1.52787         4.90689         2.33064         2.33064 
          1.534         4.86427          2.3079          2.3079 
        1.54013         4.84228         2.28549         2.28549 
        1.54627         4.79922         2.26333         2.26333 
        1.55241         4.75327         2.24146         2.24146 
        1.55855         4.73929         2.21992         2.21992 
        1.56467          4.7112         2.19871         2.19871 
         1.5708         4.66593         2.17773         2.17773 
        1.57695         4.63095         2.15698         2.15698 
        1.58308          4.5924         2.13655         2.13655 
        1.58922         4.57841         2.11637         2.11637 
        1.59535          4.5473         2.09646         2.09646 
         1.6015         4.49356         2.07678         2.07678 
        1.60764          4.4731         2.05736         2.05736 
        1.61376          4.4524         2.03824         2.03824 
        1.61989         4.40831         2.01935         2.01935 
        1.62604         4.39305         2.00065         2.00065 
        1.63218         4.36456          1.9822          1.9822 
        1.63831           4.332         1.96403         1.96403 
        1.64444         4.29617         1.94607         1.94607 
        1.65059         4.26881          1.9283          1.9283 
        1.65673          4.2543         1.91077         1.91077 
        1.66285         4.22071          1.8935          1.8935 
        1.66898         4.19756         1.87644         1.87644 
        1.67512          4.1691         1.85956         1.85956 
        1.68127         4.12908         1.84287         1.84287 
         1.6874         4.11288         1.82643         1.82643 
        1.69353         4.07648         1.81019         1.81019 
        1.69967         4.06118         1.79411         1.79411 
        1.70581         4.02804         1.77823         1.77823 
        1.71193         4.01122         1.76261         1.76261 
        1.71806         3.97982         1.74714         1.74714 
        1.72421         3.95441         1.73182         1.73182 
        1.73035         3.93427          1.7167          1.7167 
        1.73649         3.91139         1.70177         1.70177 
        1.74262         3.87479         1.68703         1.68703 
        1.74876         3.86737         1.67245         1.67245 
        1.75489         3.83963         1.65807         1.65807 
        1.76101         3.80484         1.64387         1.64387 
        1.76715         3.80029         1.62981         1.62981 
        1.77329         3.77066          1.6159          1.6159 
        1.77943         3.73371         1.60214         1.60214 
        1.78557         3.73422         1.58857         1.58857 
        1.79171         3.70376         1.57515         1.57515 
        1.79785         3.68817         1.56188         1.56188 
        1.80399         3.65295         1.54876         1.54876 
        1.81012         3.63866         1.53582         1.53582 
        1.81625         3.61211         1.52302         1.52302 
        1.82239         3.59531         1.51036         1.51036 
        1.82853         3.56671         1.49784         1.49784 
        1.83466         3.53765         1.48548         1.48548 
        1.84078         3.52381         1.47327         1.47327 
        1.84692         3.50426         1.46117         1.46117 
        1.85306         3.48235          1.4492          1.4492 
         1.8592         3.47086         1.43738         1.43738 
        1.86533         3.44963         1.42569         1.42569 
        1.87147          3.4326         1.41413         1.41413 
