# k  (h/Mpc)    P(k)  (Mpc/h)^3    P_linear(k)  (Mpc/h)^3     P_NL(k)  ShotnoiseSubtracted = false
     0.00783031         8128.79         8179.62         8179.62 
       0.013688         9337.81         9523.56         9523.56 
       0.019231         9092.42         9184.41         9184.41 
      0.0249154         8143.36         8107.99         8107.99 
      0.0312784         6699.06         6716.56         6716.56 
      0.0375637          5506.6         5548.26         5548.26 
      0.0433917          4773.2         4765.32         4765.32 
      0.0492413         4225.06         4240.44         4240.44 
      0.0555754         3875.71         3864.28         3864.28 
      0.0619321         3499.04         3567.63         3567.63 
       0.067871         3260.62         3282.85         3282.85 
      0.0738098         2959.73         2960.43         2960.43 
      0.0800417         2612.67         2596.54         2596.54 
      0.0862327         2261.71         2250.24         2250.24 
      0.0921407         1991.93         1970.43         1970.43 
      0.0982031         1795.36         1753.35         1753.35 
       0.104506         1616.36         1600.12         1600.12 
       0.110769         1521.12         1501.09         1501.09 
       0.116806         1465.98         1429.93         1429.93 
       0.122832         1378.77         1359.55         1359.55 
       0.129052         1295.79         1272.88         1272.88 
       0.135211         1214.83         1171.02         1171.02 
       0.141259         1099.45         1063.84         1063.84 
       0.147318         992.384         961.681         961.681 
       0.153489         914.407         873.524         873.524 
       0.159709         862.033         805.838         805.838 
       0.165845         794.191         758.475         758.475 
       0.171974         778.733         724.595         724.595 
       0.178125         749.005         696.426         696.426 
       0.184229         701.898         667.554         667.554 
        0.19034         679.249         633.939         633.939 
       0.196428         646.644         595.564         595.564 
       0.202534         594.098         554.819         554.819 
       0.208729         572.762          515.07          515.07 
       0.214876          542.27         480.502         480.502 
       0.220989          504.45         452.533         452.533 
       0.227147         491.656         430.565         430.565 
        0.23329         473.161         413.189         413.189 
       0.239377         463.691         398.175         398.175 
       0.245482          440.46         383.247         383.247 
       0.251667         421.267             367             367 
       0.257832         413.294          349.47          349.47 
       0.263955         387.797         331.417         331.417 
       0.270079         370.556         313.847         313.847 
        0.27624         353.261          297.68          297.68 
       0.282372         342.709         283.694         283.694 
        0.28843         338.879         271.968         271.968 
       0.294538         321.784         261.818         261.818 
       0.300721         310.431         252.595         252.595 
        0.30691         304.861         243.723         243.723 
       0.313033         290.575         234.864         234.864 
       0.319153         284.817         225.764         225.764 
       0.325316         276.522         216.511         216.511 
        0.33145         268.027         207.494         207.494 
       0.337538         257.802         199.055         199.055 
       0.343633         249.175         191.327         191.327 
       0.349808         241.829         184.281         184.281 
       0.355968         236.215         177.952         177.952 
       0.362074         229.254         172.168         172.168 
       0.368217         225.606         166.645         166.645 
       0.374374         219.841         161.232         161.232 
       0.380519         210.579         155.873         155.873 
       0.386598         206.662         150.632         150.632 
       0.392688         200.447         145.496         145.496 
        0.39888         195.983          140.49          140.49 
       0.405048         191.241         135.795         135.795 
       0.411186         188.856         131.431         131.431 
       0.417313         184.446         127.378         127.378 
       0.423458         179.582         123.564         123.564 
       0.429607         174.825         119.928         119.928 
       0.435692          171.74         116.458         116.458 
       0.441815         167.691         113.062         113.062 
       0.447964         162.383         109.725         109.725 
       0.454126         159.597         106.472         106.472 
       0.460267         157.688         103.344         103.344 
       0.466387         153.798         100.361         100.361 
        0.47254         151.811         97.4998         97.4998 
       0.478662         146.826         94.7954         94.7954 
       0.484765          144.65         92.2325         92.2325 
       0.490885         141.952         89.7731         89.7731 
       0.497035          140.19         87.3903         87.3903 
       0.503198         137.818         85.0783         85.0783 
       0.509342         134.122         82.8445         82.8445 
       0.515458         132.004         80.6888         80.6888 
       0.521598         128.694         78.5915         78.5915 
       0.527764         127.458         76.5568         76.5568 
       0.533884         126.419         74.6125         74.6125 
           0.54         123.018         72.7476         72.7476 
       0.546137         120.108         70.9501         70.9501 
       0.552299         118.389          69.212          69.212 
       0.558452         116.254         67.5362         67.5362 
       0.564573         115.539         65.9217         65.9217 
       0.570708         112.358         64.3538         64.3538 
       0.576825         110.943         62.8393         62.8393 
       0.582926         109.681         61.3759         61.3759 
       0.589034         107.698         59.9563         59.9563 
       0.595184         106.376         58.5719         58.5719 
       0.601379         104.128         57.2224         57.2224 
       0.607522         101.963         55.9274         55.9274 
       0.613639         101.111         54.6798         54.6798 
       0.619772         99.4862         53.4692         53.4692 
       0.625918         98.6194         52.2942         52.2942 
       0.632068         96.3469         51.1545         51.1545 
       0.638161         95.1147         50.0587         50.0587 
         0.6443         94.4904         48.9864         48.9864 
       0.650464         92.3383         47.9406         47.9406 
       0.656582         91.8982         46.9322         46.9322 
       0.662703         90.6116         45.9523         45.9523 
       0.668861         88.6467         44.9949         44.9949 
       0.675024         88.5181         44.0644         44.0644 
       0.681124         86.9725         43.1704         43.1704 
       0.687237         85.5665            42.3            42.3 
       0.693381         84.6819           41.45           41.45 
       0.699536         83.6587         40.6222         40.6222 
       0.705665         82.5152         39.8208         39.8208 
       0.711789         81.2642         39.0417         39.0417 
       0.717957         80.2323         38.2781         38.2781 
        0.72409         79.4048         37.5391         37.5391 
       0.730186         79.0373         36.8239         36.8239 
       0.736317         77.7315         36.1235         36.1235 
       0.742472          76.426         35.4387         35.4387 
       0.748622         75.2509         34.7723         34.7723 
        0.75476         75.1378         34.1246         34.1246 
       0.760888         74.4636         33.4943         33.4943 
       0.767043         72.9161         32.8776         32.8776 
       0.773185         71.9279         32.2778         32.2778 
       0.779291         71.1626         31.6964         31.6964 
       0.785407         70.3983         31.1286         31.1286 
       0.791564         70.0294         30.5712         30.5712 
       0.797719          68.888         30.0278         30.0278 
       0.803834         68.5193         29.5011         29.5011 
       0.809972         67.8723         28.9852         28.9852 
       0.816124         66.8566         28.4805         28.4805 
       0.822261         66.0105         27.9892         27.9892 
       0.828378         65.8381         27.5111         27.5111 
       0.834502         64.9196         27.0437         27.0437 
       0.840667         64.3858         26.5842         26.5842 
       0.846816         63.6924         26.1367         26.1367 
       0.852925         62.9067         25.7024         25.7024 
       0.859047         62.5882          25.277          25.277 
       0.865192         61.7096         24.8599         24.8599 
       0.871341         61.0646          24.452          24.452 
       0.877463         60.5161         24.0551         24.0551 
       0.883569         60.3658         23.6681         23.6681 
       0.889708         59.6903         23.2876         23.2876 
       0.895864         59.1893         22.9145         22.9145 
       0.902008         58.4583         22.5504         22.5504 
       0.908149         57.7197         22.1945         22.1945 
       0.914301         57.4476         21.8457         21.8457 
       0.920448         57.3161         21.5047         21.5047 
       0.926574         56.0551         21.1722         21.1722 
       0.932687         55.8171         20.8474         20.8474 
       0.938823         55.3396         20.5284         20.5284 
       0.944975         54.6382         20.2152         20.2152 
       0.951105         54.1961         19.9098         19.9098 
       0.957225         53.9707         19.6112         19.6112 
       0.963368         53.3906         19.3176         19.3176 
       0.969511         52.9741         19.0302         19.0302 
       0.975621         52.4237         18.7501         18.7501 
       0.981748         51.9655         18.4749         18.4749 
       0.987916          51.518         18.2035         18.2035 
        0.99406         51.2922         17.9386         17.9386 
        1.00019         50.6154         17.6796         17.6796 
        1.00632         50.2135         17.4258         17.4258 
        1.01246         49.8841         17.1767         17.1767 
        1.01859         49.6106         16.9329         16.9329 
        1.02471          49.083         16.6941         16.6941 
        1.03085         48.6577          16.459          16.459 
        1.03698         48.3437          16.229          16.229 
        1.04314          47.931         16.0024         16.0024 
        1.04929         47.4763         15.7807         15.7807 
        1.05541         47.2312         15.5641         15.5641 
        1.06154         46.8541          15.351          15.351 
        1.06769          46.382         15.1415         15.1415 
        1.07382         45.9547         14.9367         14.9367 
        1.07993         45.7863         14.7361         14.7361 
        1.08607         45.3888         14.5384         14.5384 
        1.09222         45.1574         14.3442         14.3442 
        1.09836         44.7664         14.1537         14.1537 
        1.10449         44.4786         13.9669         13.9669 
        1.11063         44.0583         13.7832         13.7832 
        1.11677         43.9003          13.603          13.603 
         1.1229          43.419         13.4263         13.4263 
        1.12903         43.2166         13.2525         13.2525 
        1.13518         43.0149         13.0817         13.0817 
        1.14131          42.587          12.914          12.914 
        1.14745          42.288         12.7494         12.7494 
        1.15359         41.7653         12.5875         12.5875 
        1.15973         41.7667         12.4285         12.4285 
        1.16584         41.4087         12.2728         12.2728 
        1.17197         40.9986         12.1197         12.1197 
        1.17811         40.7774         11.9687         11.9687 
        1.18424           40.21         11.8207         11.8207 
        1.19038         40.1115         11.6747         11.6747 
        1.19652         39.9181         11.5313         11.5313 
        1.20267         39.5802         11.3903         11.3903 
        1.20881         39.3219         11.2517         11.2517 
        1.21495         39.1448         11.1156         11.1156 
        1.22108         39.0258         10.9818         10.9818 
         1.2272         38.5497         10.8505         10.8505 
        1.23334         38.3783          10.721          10.721 
        1.23949         38.1222         10.5933         10.5933 
        1.24562         37.8347         10.4681         10.4681 
        1.25174         37.5888         10.3451         10.3451 
        1.25789         37.4546         10.2236         10.2236 
        1.26402         37.1721         10.1044         10.1044 
        1.27014         37.0362         9.98728         9.98728 
        1.27628         36.6207         9.87171         9.87171 
        1.28244         36.6129         9.75774         9.75774 
        1.28858          36.231         9.64573         9.64573 
        1.29471         35.9277         9.53572         9.53572 
        1.30084         35.6248         9.42753         9.42753 
        1.30697         35.6664         9.32086         9.32086 
        1.31312         35.3398         9.21568         9.21568 
        1.31925         35.0388         9.11246         9.11246 
        1.32537         34.8401         9.01092         9.01092 
        1.33151         34.5965         8.91056         8.91056 
        1.33765         34.4801         8.81179         8.81179 
        1.34378         34.2997         8.71471         8.71471 
        1.34992         34.0208         8.61902         8.61902 
        1.35606         33.7344         8.52456         8.52456 
         1.3622         33.6327         8.43169         8.43169 
        1.36833         33.5127         8.34042         8.34042 
        1.37445         33.1432         8.25054         8.25054 
        1.38059         33.0263         8.16172         8.16172 
        1.38675          32.753         8.07399         8.07399 
        1.39288         32.6659         7.98789         7.98789 
        1.39901         32.3803         7.90309         7.90309 
        1.40515         32.2668         7.81933         7.81933 
         1.4113         32.1767         7.73682         7.73682 
        1.41742         31.9152         7.65581         7.65581 
        1.42355         31.6658          7.5758          7.5758 
         1.4297         31.5897          7.4967          7.4967 
        1.43585         31.3593         7.41876         7.41876 
        1.44198         31.1302         7.34222         7.34222 
        1.44809          30.901         7.26691         7.26691 
        1.45423         30.8094         7.19237         7.19237 
        1.46036         30.6955         7.11901         7.11901 
        1.46649         30.4438         7.04664         7.04664 
        1.47263         30.2822         6.97522         6.97522 
        1.47877          30.127         6.90482         6.90482 
        1.48491         29.9559         6.83528         6.83528 
        1.49104         29.7322         6.76684         6.76684 
        1.49718         29.6678         6.69928         6.69928 
        1.50333          29.526         6.63253         6.63253 
        1.50947         29.2642         6.56683         6.56683 
         1.5156         29.1867         6.50211         6.50211 
        1.52172         28.9532         6.43826         6.43826 
        1.52787         28.8894         6.37515         6.37515 
          1.534         28.6289         6.31295         6.31295 
        1.54013         28.6611         6.25164         6.25164 
        1.54627         28.3659         6.19104         6.19104 
        1.55241         28.2171         6.13123         6.13123 
        1.55855         28.1002         6.07229         6.07229 
        1.56467         27.8892         6.01429         6.01429 
         1.5708         27.8377         5.95688         5.95688 
        1.57695         27.6957         5.90013         5.90013 
        1.58308         27.4537         5.84425         5.84425 
        1.58922         27.3179         5.78906         5.78906 
        1.59535         27.2354         5.73459         5.73459 
         1.6015         27.1752         5.68075         5.68075 
        1.60764          26.906         5.62763         5.62763 
        1.61376         26.7665         5.57533         5.57533 
        1.61989         26.5891         5.52365         5.52365 
        1.62604         26.4705         5.47251         5.47251 
        1.63218         26.2869         5.42204         5.42204 
        1.63831         26.2312         5.37233         5.37233 
        1.64444         26.0994         5.32322         5.32322 
        1.65059         25.9283          5.2746          5.2746 
        1.65673         25.8311         5.22665         5.22665 
        1.66285         25.7355         5.17942         5.17942 
        1.66898         25.5508         5.13276         5.13276 
        1.67512         25.4553         5.08659         5.08659 
        1.68127         25.3083         5.04093         5.04093 
         1.6874         25.2033         4.99594         4.99594 
        1.69353         25.0856         4.95153         4.95153 
        1.69967         24.9757         4.90755         4.90755 
        1.70581         24.8069         4.86412         4.86412 
        1.71193         24.6897         4.82138         4.82138 
        1.71806         24.6108         4.77906         4.77906 
        1.72421         24.4503         4.73716         4.73716 
        1.73035         24.3269         4.69581         4.69581 
        1.73649         24.1689         4.65497         4.65497 
        1.74262         24.0174         4.61464         4.61464 
        1.74876         24.0458         4.57476         4.57476 
        1.75489         23.8286         4.53543         4.53543 
        1.76101         23.7633         4.49658         4.49658 
        1.76715         23.6087         4.45813         4.45813 
        1.77329          23.432         4.42008         4.42008 
        1.77943         23.4254         4.38245         4.38245 
        1.78557         23.3405         4.34532         4.34532 
        1.79171         23.1913          4.3086          4.3086 
        1.79785         23.0869         4.27231         4.27231 
        1.80399         22.9386         4.23644         4.23644 
        1.81012         22.8837         4.20102         4.20102 
        1.81625         22.6654         4.16603         4.16603 
        1.82239         22.5992         4.13138         4.13138 
        1.82853         22.5107         4.09714         4.09714 
        1.83466         22.3932         4.06332         4.06332 
        1.84078         22.2725         4.02992         4.02992 
        1.84692         22.1709         3.99684         3.99684 
        1.85306         22.0479         3.96409         3.96409 
         1.8592         22.0061         3.93175         3.93175 
        1.86533         21.8775         3.89979         3.89979 
        1.87147         21.7588         3.86816         3.86816 
        1.87761         21.6315         3.83685         3.83685 
