# k  (h/Mpc)    Pcb(k)  (Mpc/h)^3    Pcb_linear(k) (Mpc/h)^3    Pcb_NL(k) (Mpc/h)^3   ShotnoiseSubtracted = false
     0.00783031         4134.41         4163.22         4163.22 
       0.013688         4774.12         4848.26         4848.26 
       0.019231         4642.49            4676            4676 
      0.0249154         4142.31         4128.16         4128.16 
      0.0312784         3417.76         3419.82         3419.82 
      0.0375637         2813.42         2825.02         2825.02 
      0.0433917         2433.09         2426.39         2426.39 
      0.0492413         2155.99         2159.15         2159.15 
      0.0555754         1975.17         1967.64         1967.64 
      0.0619321         1793.26         1816.59         1816.59 
       0.067871         1666.27         1671.59         1671.59 
      0.0738098         1508.44         1507.42         1507.42 
      0.0800417          1329.6         1322.14         1322.14 
      0.0862327         1150.37         1145.81         1145.81 
      0.0921407         1009.63         1003.33         1003.33 
      0.0982031         906.492         892.796         892.796 
       0.104506         818.097         814.772         814.772 
       0.110769         769.096         764.345         764.345 
       0.116806         739.436         728.115         728.115 
       0.122832         696.657         692.275         692.275 
       0.129052         655.274         648.147         648.147 
       0.135211         609.546         596.281         596.281 
       0.141259         551.742         541.703         541.703 
       0.147318         496.995         489.686         489.686 
       0.153489         455.738         444.796         444.796 
       0.159709         425.845          410.33          410.33 
       0.165845         394.095         386.214         386.214 
       0.171974         384.525         368.962         368.962 
       0.178125         368.956         354.618         354.618 
       0.184229         348.844         339.917         339.917 
        0.19034         335.671           322.8           322.8 
       0.196428         317.324          303.26          303.26 
       0.202534         291.682         282.513         282.513 
       0.208729         277.861         262.272         262.272 
       0.214876         262.515          244.67          244.67 
       0.220989         243.561         230.429         230.429 
       0.227147         236.551         219.243         219.243 
        0.23329         227.547         210.395         210.395 
       0.239377         221.236          202.75          202.75 
       0.245482         210.991         195.149         195.149 
       0.251667         201.169         186.877         186.877 
       0.257832         196.174          177.95          177.95 
       0.263955         183.916         168.757         168.757 
       0.270079         174.997          159.81          159.81 
        0.27624         166.199         151.578         151.578 
       0.282372         159.972         144.457         144.457 
        0.28843         157.224         138.486         138.486 
       0.294538         150.075         133.318         133.318 
       0.300721         143.831         128.621         128.621 
        0.30691          140.98         124.104         124.104 
       0.313033         134.825         119.593         119.593 
       0.319153         131.873         114.959         114.959 
       0.325316         126.173         110.247         110.247 
        0.33145         121.506         105.656         105.656 
       0.337538         117.055         101.359         101.359 
       0.343633         113.141          97.423          97.423 
       0.349808         109.256         93.8355         93.8355 
       0.355968         106.032         90.6131         90.6131 
       0.362074         103.692         87.6677         87.6677 
       0.368217         100.905         84.8556         84.8556 
       0.374374         98.2655         82.0988         82.0988 
       0.380519         94.0108         79.3705         79.3705 
       0.386598         91.4423          76.702          76.702 
       0.392688         88.3941         74.0864         74.0864 
        0.39888         86.6167         71.5376         71.5376 
       0.405048         84.3092         69.1467         69.1467 
       0.411186         82.2009         66.9246         66.9246 
       0.417313          79.829         64.8607         64.8607 
       0.423458          77.633         62.9188         62.9188 
       0.429607         75.9921         61.0674         61.0674 
       0.435692         74.6453         59.3005         59.3005 
       0.441815         71.9583         57.5709         57.5709 
       0.447964         69.5134         55.8721         55.8721 
       0.454126         68.2125         54.2153         54.2153 
       0.460267         67.4363          52.623          52.623 
       0.466387         65.5253         51.1036         51.1036 
        0.47254         64.5465         49.6468         49.6468 
       0.478662         62.2053         48.2699         48.2699 
       0.484765         61.0063         46.9647         46.9647 
       0.490885         59.3182         45.7124         45.7124 
       0.497035         58.5686         44.4991         44.4991 
       0.503198         57.1672         43.3218         43.3218 
       0.509342         55.5579         42.1844         42.1844 
       0.515458         54.6661         41.0867         41.0867 
       0.521598          53.282         40.0187         40.0187 
       0.527764          52.543         38.9827         38.9827 
       0.533884         51.6868         37.9927         37.9927 
           0.54         50.3413          37.043          37.043 
       0.546137          48.877         36.1278         36.1278 
       0.552299         47.9814         35.2427         35.2427 
       0.558452          46.949         34.3894         34.3894 
       0.564573         46.5526         33.5673         33.5673 
       0.570708         45.1733         32.7689         32.7689 
       0.576825         44.6471         31.9977         31.9977 
       0.582926         43.9339         31.2526         31.2526 
       0.589034         42.9847         30.5297         30.5297 
       0.595184          42.336         29.8248         29.8248 
       0.601379         41.2178         29.1376         29.1376 
       0.607522         40.4516         28.4782         28.4782 
       0.613639         39.9505         27.8429         27.8429 
       0.619772         39.1091         27.2265         27.2265 
       0.625918         38.4634         26.6282         26.6282 
       0.632068         37.9999         26.0478         26.0478 
       0.638161         37.1714         25.4899         25.4899 
         0.6443         36.7167         24.9438         24.9438 
       0.650464         35.7745         24.4113         24.4113 
       0.656582          35.542         23.8978         23.8978 
       0.662703         34.9871         23.3989         23.3989 
       0.668861         34.1127         22.9114         22.9114 
       0.675024         33.7659         22.4376         22.4376 
       0.681124         33.4128         21.9823         21.9823 
       0.687237         32.7002         21.5391         21.5391 
       0.693381         32.1682         21.1063         21.1063 
       0.699536          31.872         20.6848         20.6848 
       0.705665         31.2653         20.2767         20.2767 
       0.711789         30.7334           19.88           19.88 
       0.717957         30.1464         19.4912         19.4912 
        0.72409         29.8191         19.1149         19.1149 
       0.730186         29.6196         18.7507         18.7507 
       0.736317         29.0111         18.3941         18.3941 
       0.742472         28.6452         18.0454         18.0454 
       0.748622         28.1427         17.7061         17.7061 
        0.75476         27.5418         17.3762         17.3762 
       0.760888          27.476         17.0553         17.0553 
       0.767043         26.9119         16.7413         16.7413 
       0.773185          26.574         16.4358         16.4358 
       0.779291         26.2181         16.1398         16.1398 
       0.785407         25.8394         15.8507         15.8507 
       0.791564         25.7235         15.5669         15.5669 
       0.797719         25.1135         15.2902         15.2902 
       0.803834         24.9821          15.022          15.022 
       0.809972         24.5326         14.7592         14.7592 
       0.816124         24.2534         14.5023         14.5023 
       0.822261         23.9313         14.2521         14.2521 
       0.828378         23.7276         14.0086         14.0086 
       0.834502         23.4231         13.7706         13.7706 
       0.840667         23.1709         13.5367         13.5367 
       0.846816         22.7067         13.3088         13.3088 
       0.852925         22.5769         13.0876         13.0876 
       0.859047         22.3566          12.871          12.871 
       0.865192         21.9887         12.6587         12.6587 
       0.871341          21.721          12.451          12.451 
       0.877463         21.4584         12.2489         12.2489 
       0.883569         21.3172         12.0518         12.0518 
       0.889708          20.996          11.858          11.858 
       0.895864         20.7205         11.6681         11.6681 
       0.902008         20.4914         11.4827         11.4827 
       0.908149         20.2293         11.3014         11.3014 
       0.914301         20.0722         11.1238         11.1238 
       0.920448         19.8137         10.9502         10.9502 
       0.926574         19.5797         10.7809         10.7809 
       0.932687         19.3416         10.6155         10.6155 
       0.938823         19.0664          10.453          10.453 
       0.944975         18.9182         10.2936         10.2936 
       0.951105         18.7372         10.1381         10.1381 
       0.957225         18.5812         9.98599         9.98599 
       0.963368         18.2907         9.83654         9.83654 
       0.969511         18.1219         9.69015         9.69015 
       0.975621         17.9642         9.54752         9.54752 
       0.981748         17.7196         9.40741         9.40741 
       0.987916          17.603         9.26923         9.26923 
        0.99406         17.3495         9.13435         9.13435 
        1.00019         17.2353         9.00243         9.00243 
        1.00632         17.0783         8.87323         8.87323 
        1.01246         16.8837         8.74638         8.74638 
        1.01859         16.6916         8.62221         8.62221 
        1.02471          16.522         8.50061         8.50061 
        1.03085          16.426         8.38093         8.38093 
        1.03698         16.2815         8.26381         8.26381 
        1.04314         16.0694         8.14843         8.14843 
        1.04929         15.8573         8.03553         8.03553 
        1.05541         15.7841         7.92522         7.92522 
        1.06154         15.6525         7.81671         7.81671 
        1.06769         15.4292         7.71007         7.71007 
        1.07382         15.2871         7.60577         7.60577 
        1.07993         15.1546         7.50364         7.50364 
        1.08607         15.0356         7.40297         7.40297 
        1.09222         14.8775         7.30405         7.30405 
        1.09836         14.7297         7.20705         7.20705 
        1.10449         14.6382         7.11193         7.11193 
        1.11063         14.5135         7.01842         7.01842 
        1.11677         14.4241         6.92663         6.92663 
         1.1229         14.2596         6.83664         6.83664 
        1.12903         14.1087         6.74818         6.74818 
        1.13518         14.0177          6.6612          6.6612 
        1.14131         13.9015         6.57581         6.57581 
        1.14745         13.7071         6.49197         6.49197 
        1.15359         13.5651         6.40957         6.40957 
        1.15973         13.4847         6.32857         6.32857 
        1.16584         13.3587         6.24933         6.24933 
        1.17197         13.2084         6.17134         6.17134 
        1.17811         13.1341         6.09444         6.09444 
        1.18424         13.0047         6.01907         6.01907 
        1.19038          12.945         5.94476         5.94476 
        1.19652         12.7802         5.87174         5.87174 
        1.20267          12.727         5.79994         5.79994 
        1.20881         12.5646         5.72936         5.72936 
        1.21495         12.4968         5.66006         5.66006 
        1.22108         12.4238         5.59191         5.59191 
         1.2272         12.3062         5.52505         5.52505 
        1.23334         12.2288         5.45912         5.45912 
        1.23949         12.1102         5.39412         5.39412 
        1.24562         11.9691         5.33034         5.33034 
        1.25174         11.9317          5.2677          5.2677 
        1.25789         11.8332         5.20586         5.20586 
        1.26402         11.7389         5.14513         5.14513 
        1.27014           11.67         5.08552         5.08552 
        1.27628         11.5328         5.02667         5.02667 
        1.28244         11.5098         4.96864         4.96864 
        1.28858         11.3729          4.9116          4.9116 
        1.29471         11.2498         4.85559         4.85559 
        1.30084         11.1677          4.8005          4.8005 
        1.30697         11.1216         4.74618         4.74618 
        1.31312         11.0257         4.69262         4.69262 
        1.31925         10.9567         4.64006         4.64006 
        1.32537         10.8499         4.58836         4.58836 
        1.33151         10.7733         4.53725         4.53725 
        1.33765         10.7216         4.48696         4.48696 
        1.34378         10.6543         4.43753         4.43753 
        1.34992         10.5473          4.3888          4.3888 
        1.35606         10.4497         4.34071         4.34071 
         1.3622         10.3773         4.29341         4.29341 
        1.36833         10.3456         4.24694         4.24694 
        1.37445         10.2643         4.20117         4.20117 
        1.38059         10.1791         4.15594         4.15594 
        1.38675         10.1215         4.11127         4.11127 
        1.39288         10.0217         4.06743         4.06743 
        1.39901         9.95258         4.02425         4.02425 
        1.40515         9.89249          3.9816          3.9816 
         1.4113         9.82144         3.93959         3.93959 
        1.41742          9.7713         3.89834         3.89834 
        1.42355         9.67646          3.8576          3.8576 
         1.4297         9.61655         3.81732         3.81732 
        1.43585         9.55627         3.77763         3.77763 
        1.44198         9.51613         3.73866         3.73866 
        1.44809         9.43551         3.70031         3.70031 
        1.45423         9.36718         3.66235         3.66235 
        1.46036         9.30097           3.625           3.625 
        1.46649          9.2416         3.58815         3.58815 
        1.47263         9.18493         3.55178         3.55178 
        1.47877          9.1163         3.51593         3.51593 
        1.48491         9.06606         3.48052         3.48052 
        1.49104          9.0012         3.44567         3.44567 
        1.49718         8.95961         3.41127         3.41127 
        1.50333         8.90838         3.37728         3.37728 
        1.50947         8.84065         3.34383         3.34383 
         1.5156         8.79742         3.31087         3.31087 
        1.52172         8.71457         3.27836         3.27836 
        1.52787         8.69667         3.24622         3.24622 
          1.534         8.62982         3.21455         3.21455 
        1.54013         8.58168         3.18333         3.18333 
        1.54627          8.5059         3.15248         3.15248 
        1.55241         8.43464         3.12202         3.12202 
        1.55855         8.41164         3.09201         3.09201 
        1.56467         8.36972         3.06247         3.06247 
         1.5708          8.3145         3.03324         3.03324 
        1.57695         8.26177         3.00434         3.00434 
        1.58308         8.20042         2.97589         2.97589 
        1.58922         8.16176         2.94779         2.94779 
        1.59535          8.1165         2.92005         2.92005 
         1.6015         8.02818         2.89264         2.89264 
        1.60764         7.99359         2.86559         2.86559 
        1.61376         7.96243         2.83896         2.83896 
        1.61989         7.89644         2.81264         2.81264 
        1.62604         7.87375          2.7866          2.7866 
        1.63218         7.82862          2.7609          2.7609 
        1.63831         7.76574         2.73559         2.73559 
        1.64444         7.71041         2.71058         2.71058 
        1.65059         7.66436         2.68583         2.68583 
        1.65673         7.64241         2.66141         2.66141 
        1.66285         7.57445         2.63736         2.63736 
        1.66898          7.5581          2.6136          2.6136 
        1.67512         7.52574         2.59009         2.59009 
        1.68127         7.44995         2.56684         2.56684 
         1.6874         7.43614         2.54393         2.54393 
        1.69353         7.35057         2.52132         2.52132 
        1.69967         7.33093         2.49892         2.49892 
        1.70581         7.29001         2.47681         2.47681 
        1.71193         7.24946         2.45504         2.45504 
        1.71806         7.21072          2.4335          2.4335 
        1.72421         7.16651         2.41216         2.41216 
        1.73035         7.13654         2.39111         2.39111 
        1.73649         7.10759         2.37031         2.37031 
        1.74262         7.03428         2.34977         2.34977 
        1.74876          7.0227         2.32947         2.32947 
        1.75489         6.98609         2.30944         2.30944 
        1.76101         6.92129         2.28966         2.28966 
        1.76715         6.91702         2.27008         2.27008 
        1.77329         6.86144          2.2507          2.2507 
        1.77943         6.81129         2.23154         2.23154 
        1.78557          6.8126         2.21263         2.21263 
        1.79171         6.75603         2.19394         2.19394 
        1.79785         6.72583         2.17546         2.17546 
        1.80399         6.68605         2.15719         2.15719 
        1.81012         6.64877         2.13916         2.13916 
        1.81625         6.61064         2.12134         2.12134 
        1.82239         6.57804          2.1037          2.1037 
        1.82853         6.53021         2.08626         2.08626 
        1.83466         6.48981         2.06904         2.06904 
        1.84078         6.46309         2.05203         2.05203 
        1.84692         6.45039         2.03519         2.03519 
        1.85306         6.40989         2.01851         2.01851 
         1.8592          6.3848         2.00205         2.00205 
        1.86533         6.33473         1.98578         1.98578 
        1.87147         6.30962         1.96966         1.96966 
