# k  (h/Mpc)    Pcb(k)  (Mpc/h)^3    Pcb_linear(k) (Mpc/h)^3    Pcb_NL(k) (Mpc/h)^3   ShotnoiseSubtracted = false
     0.00783031         954.623         962.267         962.267 
       0.013688         1109.57         1121.02         1121.02 
       0.019231         1076.96         1081.34         1081.34 
      0.0249154         956.097         954.723         954.723 
      0.0312784         791.613         790.941         790.941 
      0.0375637         652.967         653.393         653.393 
      0.0433917         562.827         561.205         561.205 
      0.0492413         499.553           499.4           499.4 
      0.0555754         456.443         455.108         455.108 
      0.0619321         417.655         420.175         420.175 
       0.067871         386.217         386.639         386.639 
      0.0738098         348.759         348.667         348.667 
      0.0800417         306.717         305.812         305.812 
      0.0862327         265.519         265.027         265.027 
      0.0921407         232.478         232.073         232.073 
      0.0982031         207.746         206.506         206.506 
       0.104506         188.368         188.459         188.459 
       0.110769         176.819         176.796         176.796 
       0.116806         169.169         168.416         168.416 
       0.122832         160.034         160.126         160.126 
       0.129052         150.299         149.919         149.919 
       0.135211         138.776         137.922         137.922 
       0.141259         125.763         125.298         125.298 
       0.147318         113.379         113.266         113.266 
       0.153489           103.4         102.883         102.883 
       0.159709         95.7363         94.9112         94.9112 
       0.165845         89.3438          89.333          89.333 
       0.171974         86.2328         85.3426         85.3426 
       0.178125         82.7086         82.0249         82.0249 
       0.184229         78.8818         78.6245         78.6245 
        0.19034          75.403         74.6653         74.6653 
       0.196428         70.8311         70.1455         70.1455 
       0.202534         65.4719         65.3467         65.3467 
       0.208729         61.3998         60.6649         60.6649 
       0.214876         57.6474         56.5935         56.5935 
       0.220989         53.7661         53.2994         53.2994 
       0.227147         51.7028         50.7121         50.7121 
        0.23329         49.6464         48.6655         48.6655 
       0.239377         47.9322         46.8972         46.8972 
       0.245482         46.0104          45.139          45.139 
       0.251667         43.8603         43.2255         43.2255 
       0.257832         42.1813         41.1607         41.1607 
       0.263955         39.7801         39.0345         39.0345 
       0.270079         37.7058          36.965          36.965 
        0.27624         35.6796         35.0609         35.0609 
       0.282372         34.0907         33.4136         33.4136 
        0.28843         33.0242         32.0325         32.0325 
       0.294538         31.7191         30.8371         30.8371 
       0.300721         30.4116         29.7507         29.7507 
        0.30691         29.5794         28.7059         28.7059 
       0.313033         28.4337         27.6625         27.6625 
       0.319153         27.6256         26.5907         26.5907 
       0.325316         26.2036         25.5007         25.5007 
        0.33145           25.13         24.4388         24.4388 
       0.337538         24.1943         23.4449         23.4449 
       0.343633          23.365         22.5345         22.5345 
       0.349808         22.4656         21.7047         21.7047 
       0.355968         21.6693         20.9593         20.9593 
       0.362074         21.1249          20.278          20.278 
       0.368217         20.4285         19.6276         19.6276 
       0.374374         19.9002         18.9899         18.9899 
       0.380519          19.096         18.3589         18.3589 
       0.386598         18.4258         17.7416         17.7416 
       0.392688          17.774         17.1366         17.1366 
        0.39888         17.2903          16.547          16.547 
       0.405048          16.766          15.994          15.994 
       0.411186         16.2121         15.4801         15.4801 
       0.417313         15.7188         15.0026         15.0026 
       0.423458         15.1944         14.5535         14.5535 
       0.429607         14.8733         14.1252         14.1252 
       0.435692         14.5087         13.7166         13.7166 
       0.441815         13.9949         13.3165         13.3165 
       0.447964         13.5076         12.9235         12.9235 
       0.454126         13.2237         12.5403         12.5403 
       0.460267         12.9433          12.172          12.172 
       0.466387         12.5382         11.8206         11.8206 
        0.47254          12.251         11.4836         11.4836 
       0.478662         11.8716         11.1651         11.1651 
       0.484765         11.5681         10.8632         10.8632 
       0.490885         11.2177         10.5735         10.5735 
       0.497035         10.9175         10.2929         10.2929 
       0.503198         10.6935         10.0206         10.0206 
       0.509342         10.3557         9.75749         9.75749 
       0.515458         10.1567         9.50358         9.50358 
       0.521598         9.90924         9.25657         9.25657 
       0.527764         9.71538         9.01692         9.01692 
       0.533884         9.39726         8.78793         8.78793 
           0.54          9.2042         8.56826         8.56826 
       0.546137         8.92636         8.35657         8.35657 
       0.552299         8.74528         8.15185         8.15185 
       0.558452         8.53072         7.95447         7.95447 
       0.564573         8.36282         7.76432         7.76432 
       0.570708         8.16741         7.57964         7.57964 
       0.576825         7.99561         7.40126         7.40126 
       0.582926          7.7999          7.2289          7.2289 
       0.589034         7.64423          7.0617          7.0617 
       0.595184         7.51336         6.89865         6.89865 
       0.601379         7.30045         6.73971         6.73971 
       0.607522         7.14417         6.58718         6.58718 
       0.613639         6.97488         6.44024         6.44024 
       0.619772         6.85147         6.29765         6.29765 
       0.625918         6.69834         6.15926         6.15926 
       0.632068         6.58628         6.02502         6.02502 
       0.638161         6.43481         5.89595         5.89595 
         0.6443          6.2999         5.76966         5.76966 
       0.650464         6.15525         5.64648         5.64648 
       0.656582         6.07313         5.52771         5.52771 
       0.662703         5.95681          5.4123          5.4123 
       0.668861         5.79338         5.29953         5.29953 
       0.675024         5.68673         5.18995         5.18995 
       0.681124         5.65087         5.08465         5.08465 
       0.687237         5.50806         4.98213         4.98213 
       0.693381         5.36228         4.88201         4.88201 
       0.699536         5.30374         4.78452         4.78452 
       0.705665         5.19625         4.69012         4.69012 
       0.711789         5.07498         4.59837         4.59837 
       0.717957         4.97097         4.50843         4.50843 
        0.72409         4.90234         4.42139         4.42139 
       0.730186         4.84787         4.33716         4.33716 
       0.736317         4.72582         4.25466         4.25466 
       0.742472         4.66206           4.174           4.174 
       0.748622          4.5791         4.09552         4.09552 
        0.75476         4.46051         4.01922         4.01922 
       0.760888          4.4118         3.94499         3.94499 
       0.767043          4.2979         3.87235         3.87235 
       0.773185         4.23826         3.80171         3.80171 
       0.779291         4.20578         3.73323         3.73323 
       0.785407         4.11248         3.66636         3.66636 
       0.791564         4.04205         3.60071         3.60071 
       0.797719         3.96725          3.5367          3.5367 
       0.803834         3.91333         3.47467         3.47467 
       0.809972         3.83801          3.4139          3.4139 
       0.816124         3.77811         3.35446         3.35446 
       0.822261         3.72219          3.2966          3.2966 
       0.828378         3.65923         3.24028         3.24028 
       0.834502         3.60072         3.18523         3.18523 
       0.840667         3.55615         3.13111         3.13111 
       0.846816         3.48265          3.0784          3.0784 
       0.852925         3.43181         3.02725         3.02725 
       0.859047         3.37734         2.97715         2.97715 
       0.865192         3.32347         2.92803         2.92803 
       0.871341          3.2747         2.87998         2.87998 
       0.877463         3.21815         2.83323         2.83323 
       0.883569          3.1763         2.78765         2.78765 
       0.889708         3.12942         2.74283         2.74283 
       0.895864         3.08254         2.69889         2.69889 
       0.902008         3.02596         2.65601         2.65601 
       0.908149         2.98584         2.61408         2.61408 
       0.914301         2.94717           2.573           2.573 
       0.920448         2.90872         2.53284         2.53284 
       0.926574         2.87713         2.49368         2.49368 
       0.932687         2.82528         2.45543         2.45543 
       0.938823         2.77092         2.41785         2.41785 
       0.944975         2.74828         2.38097         2.38097 
       0.951105         2.68944         2.34499         2.34499 
       0.957225          2.6671         2.30982         2.30982 
       0.963368         2.63135         2.27525         2.27525 
       0.969511         2.59584         2.24139         2.24139 
       0.975621         2.55156          2.2084          2.2084 
       0.981748         2.50447         2.17599         2.17599 
       0.987916         2.47804         2.14403         2.14403 
        0.99406          2.4536         2.11283         2.11283 
        1.00019         2.42053         2.08232         2.08232 
        1.00632         2.39386         2.05243         2.05243 
        1.01246         2.35595         2.02309         2.02309 
        1.01859         2.32434         1.99437         1.99437 
        1.02471         2.28408         1.96624         1.96624 
        1.03085         2.26089         1.93856         1.93856 
        1.03698         2.23291         1.91147         1.91147 
        1.04314         2.20364         1.88478         1.88478 
        1.04929         2.17536         1.85867         1.85867 
        1.05541         2.14114         1.83315         1.83315 
        1.06154         2.12166         1.80805         1.80805 
        1.06769         2.10151         1.78339         1.78339 
        1.07382         2.06458         1.75926         1.75926 
        1.07993         2.03629         1.73564         1.73564 
        1.08607          2.0193         1.71235         1.71235 
        1.09222         1.98676         1.68947         1.68947 
        1.09836         1.97651         1.66703         1.66703 
        1.10449         1.93325         1.64503         1.64503 
        1.11063         1.91518          1.6234          1.6234 
        1.11677          1.8949         1.60217         1.60217 
         1.1229          1.8678         1.58136         1.58136 
        1.12903         1.85231         1.56089         1.56089 
        1.13518         1.82295         1.54078         1.54078 
        1.14131         1.80174         1.52102         1.52102 
        1.14745         1.78045         1.50163         1.50163 
        1.15359         1.75898         1.48257         1.48257 
        1.15973         1.73742         1.46384         1.46384 
        1.16584         1.71986         1.44551         1.44551 
        1.17197         1.69524         1.42747         1.42747 
        1.17811         1.67529         1.40968         1.40968 
        1.18424         1.65601         1.39225         1.39225 
        1.19038         1.63808         1.37506         1.37506 
        1.19652         1.62205         1.35817         1.35817 
        1.20267         1.60708         1.34156         1.34156 
        1.20881         1.58351         1.32523         1.32523 
        1.21495         1.56731         1.30921         1.30921 
        1.22108         1.55054         1.29344         1.29344 
         1.2272         1.52682         1.27798         1.27798 
        1.23334         1.51679         1.26273         1.26273 
        1.23949         1.49715         1.24769         1.24769 
        1.24562         1.48196         1.23294         1.23294 
        1.25174         1.46963         1.21845         1.21845 
        1.25789         1.44618         1.20415         1.20415 
        1.26402         1.43152          1.1901          1.1901 
        1.27014         1.41393         1.17631         1.17631 
        1.27628         1.40112          1.1627          1.1627 
        1.28244         1.38604         1.14928         1.14928 
        1.28858         1.37151         1.13608         1.13608 
        1.29471         1.35322         1.12313         1.12313 
        1.30084         1.34092         1.11038         1.11038 
        1.30697         1.33048         1.09782         1.09782 
        1.31312         1.31469         1.08543         1.08543 
        1.31925         1.30119         1.07327         1.07327 
        1.32537         1.28847         1.06131         1.06131 
        1.33151         1.27267         1.04949         1.04949 
        1.33765         1.26068         1.03786         1.03786 
        1.34378          1.2488         1.02643         1.02643 
        1.34992         1.23721         1.01516         1.01516 
        1.35606         1.22326         1.00403         1.00403 
         1.3622         1.21217        0.993093        0.993093 
        1.36833         1.19706        0.982343        0.982343 
        1.37445         1.18416        0.971757        0.971757 
        1.38059         1.17322        0.961295        0.961295 
        1.38675         1.16184        0.950962        0.950962 
        1.39288         1.15337        0.940822        0.940822 
        1.39901         1.13823        0.930834        0.930834 
        1.40515         1.12701        0.920969        0.920969 
         1.4113         1.12011         0.91125         0.91125 
        1.41742         1.10479        0.901709        0.901709 
        1.42355         1.09348        0.892286        0.892286 
         1.4297         1.08543        0.882969        0.882969 
        1.43585         1.07409        0.873789        0.873789 
        1.44198         1.06397        0.864775        0.864775 
        1.44809         1.05453        0.855904        0.855904 
        1.45423         1.04368        0.847125        0.847125 
        1.46036         1.03498        0.838484        0.838484 
        1.46649         1.02146        0.829961        0.829961 
        1.47263         1.01529        0.821549        0.821549 
        1.47877         1.00917        0.813257        0.813257 
        1.48491        0.992594        0.805066        0.805066 
        1.49104        0.987074        0.797005        0.797005 
        1.49718        0.975975        0.789048        0.789048 
        1.50333        0.967679        0.781187        0.781187 
        1.50947         0.95922        0.773448        0.773448 
         1.5156        0.950197        0.765826        0.765826 
        1.52172        0.942223        0.758306        0.758306 
        1.52787        0.933322        0.750871        0.750871 
          1.534        0.926205        0.743546        0.743546 
        1.54013        0.916477        0.736325        0.736325 
        1.54627         0.90807        0.729187        0.729187 
        1.55241        0.898866        0.722142        0.722142 
        1.55855        0.891696        0.715201        0.715201 
        1.56467        0.884294        0.708369        0.708369 
         1.5708         0.87613        0.701607        0.701607 
        1.57695        0.866826        0.694924        0.694924 
        1.58308        0.858341        0.688342        0.688342 
        1.58922        0.853706        0.681841        0.681841 
        1.59535        0.843371        0.675426        0.675426 
         1.6015        0.836394        0.669085        0.669085 
        1.60764        0.830379        0.662828        0.662828 
        1.61376        0.821357        0.656668        0.656668 
        1.61989        0.815173        0.650581        0.650581 
        1.62604        0.806317        0.644558        0.644558 
        1.63218        0.802254        0.638614        0.638614 
        1.63831         0.79475        0.632759        0.632759 
        1.64444        0.787504        0.626975        0.626975 
        1.65059        0.782109        0.621249        0.621249 
        1.65673        0.772963          0.6156          0.6156 
        1.66285        0.767017        0.610038        0.610038 
        1.66898         0.76178        0.604542        0.604542 
        1.67512        0.752612        0.599104        0.599104 
        1.68127        0.746891        0.593727        0.593727 
         1.6874        0.743361        0.588428        0.588428 
        1.69353        0.735011        0.583196        0.583196 
        1.69967        0.729663        0.578016        0.578016 
        1.70581        0.725382        0.572901        0.572901 
        1.71193        0.716026        0.567867        0.567867 
        1.71806        0.712015        0.562883        0.562883 
        1.72421        0.706596        0.557948        0.557948 
        1.73035        0.697859        0.553078        0.553078 
        1.73649         0.69574        0.548267        0.548267 
        1.74262        0.688072        0.543517        0.543517 
        1.74876        0.683119        0.538821        0.538821 
        1.75489        0.677891        0.534189        0.534189 
        1.76101        0.670574        0.529612        0.529612 
        1.76715        0.666683        0.525083        0.525083 
        1.77329        0.661383        0.520602        0.520602 
        1.77943        0.656349         0.51617         0.51617 
        1.78557        0.652294        0.511796        0.511796 
        1.79171        0.646982        0.507472        0.507472 
        1.79785        0.641569        0.503197        0.503197 
        1.80399        0.635199        0.498972        0.498972 
        1.81012        0.630589        0.494801        0.494801 
        1.81625        0.625189         0.49068         0.49068 
        1.82239        0.620977        0.486599        0.486599 
        1.82853        0.616096        0.482566        0.482566 
        1.83466        0.610811        0.478583        0.478583 
        1.84078        0.606151        0.474649        0.474649 
        1.84692        0.601699        0.470752        0.470752 
        1.85306        0.598362        0.466895        0.466895 
         1.8592        0.591998        0.463086        0.463086 
        1.86533        0.588529        0.459322        0.459322 
        1.87147        0.582485        0.455596        0.455596 
