# k  (h/Mpc)    P(k)  (Mpc/h)^3    P_linear(k)  (Mpc/h)^3     P_NL(k)  ShotnoiseSubtracted = false
     0.00783031         15645.8         15730.8         15730.8 
       0.013688         17845.8         18311.4         18311.4 
       0.019231           17404         17657.6         17657.6 
      0.0249154         15661.3         15587.3         15587.3 
      0.0312784         12828.5         12911.9         12911.9 
      0.0375637         10527.2         10665.7         10665.7 
      0.0433917         9149.18         9160.49         9160.49 
      0.0492413         8089.54         8151.41         8151.41 
      0.0555754         7424.76         7428.27         7428.27 
      0.0619321         6658.76         6857.97         6857.97 
       0.067871         6220.17         6310.52         6310.52 
      0.0738098          5672.3         5690.72         5690.72 
      0.0800417         5013.78         4991.21         4991.21 
      0.0862327         4348.78         4325.52         4325.52 
      0.0921407         3854.13         3787.66         3787.66 
      0.0982031         3491.84         3370.37         3370.37 
       0.104506         3138.52         3075.82         3075.82 
       0.110769         2956.87         2885.44         2885.44 
       0.116806         2851.01         2748.67         2748.67 
       0.122832         2682.86         2613.37         2613.37 
       0.129052         2511.21         2446.78         2446.78 
       0.135211         2382.24         2250.98         2250.98 
       0.141259         2157.06         2044.94         2044.94 
       0.147318         1960.66         1848.57         1848.57 
       0.153489          1818.2         1679.11         1679.11 
       0.159709         1733.72            1549            1549 
       0.165845         1594.95         1457.96         1457.96 
       0.171974         1563.78         1392.84         1392.84 
       0.178125         1512.48         1338.69         1338.69 
       0.184229         1400.98         1283.19         1283.19 
        0.19034         1367.34         1218.57         1218.57 
       0.196428         1313.13         1144.81         1144.81 
       0.202534         1214.28         1066.49         1066.49 
       0.208729         1181.92         990.079         990.079 
       0.214876         1118.88         923.632         923.632 
       0.220989         1053.82         869.869         869.869 
       0.227147         1025.64         827.641         827.641 
        0.23329         986.171         794.241         794.241 
       0.239377         977.125         765.381         765.381 
       0.245482         927.503         736.686         736.686 
       0.251667         891.413         705.456         705.456 
       0.257832         874.526         671.759         671.759 
       0.263955         827.629         637.057         637.057 
       0.270079         797.682         603.283         603.283 
        0.27624         762.744         572.206         572.206 
       0.282372         748.196         545.322         545.322 
        0.28843         737.108         522.782         522.782 
       0.294538         699.939         503.272         503.272 
       0.300721         683.116         485.543         485.543 
        0.30691           667.8          468.49          468.49 
       0.313033         637.873         451.461         451.461 
       0.319153         628.367         433.969         433.969 
       0.325316         617.927         416.181         416.181 
        0.33145         601.948          398.85          398.85 
       0.337538         579.474         382.628         382.628 
       0.343633         563.653         367.772         367.772 
       0.349808         550.342         354.228         354.228 
       0.355968          539.39         342.063         342.063 
       0.362074         519.298         330.945         330.945 
       0.368217         516.601         320.328         320.328 
       0.374374         507.743         309.922         309.922 
       0.380519         487.066         299.623         299.623 
       0.386598         482.013         289.548         289.548 
       0.392688         469.337         279.676         279.676 
        0.39888         457.604         270.052         270.052 
       0.405048         447.255         261.028         261.028 
       0.411186         446.335         252.639         252.639 
       0.417313         440.084         244.848         244.848 
       0.423458         427.921         237.517         237.517 
       0.429607         414.835         230.529         230.529 
       0.435692         408.911         223.858         223.858 
       0.441815         401.545         217.329         217.329 
       0.447964         392.813         210.916         210.916 
       0.454126         388.339         204.662         204.662 
       0.460267         381.652         198.651         198.651 
       0.466387           373.6         192.915         192.915 
        0.47254         368.701         187.416         187.416 
       0.478662         360.845         182.218         182.218 
       0.484765         355.594         177.291         177.291 
       0.490885         352.195         172.563         172.563 
       0.497035         344.079         167.983         167.983 
       0.503198         343.231         163.539         163.539 
       0.509342         335.585         159.245         159.245 
       0.515458          329.09         155.101         155.101 
       0.521598         324.662          151.07          151.07 
       0.527764         319.384         147.159         147.159 
       0.533884          316.53         143.421         143.421 
           0.54          312.32         139.837         139.837 
       0.546137         305.539         136.382         136.382 
       0.552299         304.161         133.041         133.041 
       0.558452         298.848         129.819         129.819 
       0.564573         296.734         126.716         126.716 
       0.570708         291.579         123.702         123.702 
       0.576825         286.235         120.791         120.791 
       0.582926         284.776         117.978         117.978 
       0.589034         279.408         115.249         115.249 
       0.595184         277.436         112.588         112.588 
       0.601379         272.894         109.994         109.994 
       0.607522         266.929         107.505         107.505 
       0.613639         265.981         105.107         105.107 
       0.619772         264.805          102.78          102.78 
       0.625918         259.389         100.521         100.521 
       0.632068         257.107         98.3301         98.3301 
       0.638161         254.993         96.2238         96.2238 
         0.6443         251.185         94.1625         94.1625 
       0.650464         248.006         92.1522         92.1522 
       0.656582         245.357         90.2139         90.2139 
       0.662703         243.995         88.3303         88.3303 
       0.668861          238.99         86.4899         86.4899 
       0.675024         238.126         84.7015         84.7015 
       0.681124         234.508         82.9829         82.9829 
       0.687237          233.13         81.3098         81.3098 
       0.693381         229.158         79.6759         79.6759 
       0.699536         228.397         78.0847         78.0847 
       0.705665         225.454         76.5442         76.5442 
       0.711789         222.776         75.0467         75.0467 
       0.717957         221.026         73.5789         73.5789 
        0.72409         217.821         72.1583         72.1583 
       0.730186         218.899         70.7837         70.7837 
       0.736317         215.097         69.4373         69.4373 
       0.742472         212.857         68.1209         68.1209 
       0.748622         210.453           66.84           66.84 
        0.75476         209.988         65.5948         65.5948 
       0.760888         207.222         64.3834         64.3834 
       0.767043          204.31         63.1979         63.1979 
       0.773185         202.613          62.045          62.045 
       0.779291         200.636         60.9275         60.9275 
       0.785407         199.241          59.836          59.836 
       0.791564         197.689         58.7646         58.7646 
       0.797719         194.327           57.72           57.72 
       0.803834           195.1         56.7075         56.7075 
       0.809972         192.265         55.7158         55.7158 
       0.816124         189.351         54.7457         54.7457 
       0.822261         188.172         53.8014         53.8014 
       0.828378         187.427         52.8823         52.8823 
       0.834502         185.031         51.9839         51.9839 
       0.840667         184.969         51.1006         51.1006 
       0.846816         181.285         50.2404         50.2404 
       0.852925         181.165         49.4055         49.4055 
       0.859047         179.262         48.5879         48.5879 
       0.865192         178.548         47.7862         47.7862 
       0.871341         176.421         47.0021         47.0021 
       0.877463         174.916         46.2392         46.2392 
       0.883569         174.397         45.4952         45.4952 
       0.889708          172.72         44.7638         44.7638 
       0.895864         170.587         44.0467         44.0467 
       0.902008         169.192         43.3468         43.3468 
       0.908149         167.709         42.6626         42.6626 
       0.914301         166.475         41.9921         41.9921 
       0.920448         166.062         41.3367         41.3367 
       0.926574          163.98         40.6975         40.6975 
       0.932687         163.664         40.0733         40.0733 
       0.938823         161.998           39.46           39.46 
       0.944975         161.412         38.8581         38.8581 
       0.951105         159.431         38.2709         38.2709 
       0.957225          158.26         37.6969         37.6969 
       0.963368         157.841         37.1327         37.1327 
       0.969511         155.515         36.5801         36.5801 
       0.975621         153.789         36.0417         36.0417 
       0.981748         153.561         35.5128         35.5128 
       0.987916         152.706         34.9911         34.9911 
        0.99406         151.296          34.482          34.482 
        1.00019         150.487          33.984          33.984 
        1.00632         149.385         33.4962         33.4962 
        1.01246         148.212         33.0174         33.0174 
        1.01859         146.799         32.5486         32.5486 
        1.02471         145.717         32.0896         32.0896 
        1.03085         144.724         31.6378         31.6378 
        1.03698         144.005         31.1957         31.1957 
        1.04314         143.441         30.7602         30.7602 
        1.04929         142.373         30.3339         30.3339 
        1.05541          141.65         29.9175         29.9175 
        1.06154         140.048         29.5079         29.5079 
        1.06769         139.356         29.1053         29.1053 
        1.07382         138.351         28.7116         28.7116 
        1.07993         137.165         28.3261         28.3261 
        1.08607         136.898          27.946          27.946 
        1.09222         135.359         27.5726         27.5726 
        1.09836          134.73         27.2064         27.2064 
        1.10449         133.888         26.8474         26.8474 
        1.11063         132.593         26.4944         26.4944 
        1.11677         131.992         26.1479         26.1479 
         1.1229         131.147         25.8082         25.8082 
        1.12903         129.923         25.4742         25.4742 
        1.13518         129.087         25.1459         25.1459 
        1.14131         128.671         24.8235         24.8235 
        1.14745          127.33          24.507          24.507 
        1.15359         126.554          24.196          24.196 
        1.15973         126.059         23.8902         23.8902 
        1.16584          125.13         23.5911         23.5911 
        1.17197         124.572         23.2967         23.2967 
        1.17811         123.415         23.0064         23.0064 
        1.18424         122.639         22.7219         22.7219 
        1.19038         122.028         22.4413         22.4413 
        1.19652         120.944         22.1657         22.1657 
        1.20267         120.197         21.8946         21.8946 
        1.20881         119.301         21.6282         21.6282 
        1.21495         119.125         21.3666         21.3666 
        1.22108         118.036         21.1093         21.1093 
         1.2272         117.462         20.8569         20.8569 
        1.23334         116.633         20.6081         20.6081 
        1.23949          116.04         20.3627         20.3627 
        1.24562         115.057         20.1219         20.1219 
        1.25174         114.874         19.8854         19.8854 
        1.25789         113.741          19.652          19.652 
        1.26402         113.261         19.4228         19.4228 
        1.27014         112.444         19.1977         19.1977 
        1.27628         111.937         18.9756         18.9756 
        1.28244         111.133         18.7565         18.7565 
        1.28858         110.475         18.5412         18.5412 
        1.29471         109.651         18.3297         18.3297 
        1.30084          108.93         18.1218         18.1218 
        1.30697         108.201         17.9167         17.9167 
        1.31312         107.674         17.7145         17.7145 
        1.31925         106.707         17.5161         17.5161 
        1.32537         106.291         17.3209         17.3209 
        1.33151         105.819          17.128          17.128 
        1.33765         105.024         16.9382         16.9382 
        1.34378         104.734         16.7516         16.7516 
        1.34992         103.902         16.5676         16.5676 
        1.35606         103.421         16.3861         16.3861 
         1.3622          102.85         16.2075         16.2075 
        1.36833         101.965         16.0321         16.0321 
        1.37445         101.672         15.8593         15.8593 
        1.38059         100.895         15.6886         15.6886 
        1.38675         100.294         15.5199         15.5199 
        1.39288         99.6153         15.3545         15.3545 
        1.39901         99.0165         15.1915         15.1915 
        1.40515         98.5713         15.0304         15.0304 
         1.4113         97.8964         14.8718         14.8718 
        1.41742         97.5487         14.7161         14.7161 
        1.42355         97.0254         14.5623         14.5623 
         1.4297         96.3107         14.4103         14.4103 
        1.43585         95.8067         14.2605         14.2605 
        1.44198         95.0073         14.1133         14.1133 
        1.44809          94.592         13.9686         13.9686 
        1.45423         94.3262         13.8253         13.8253 
        1.46036         93.4064         13.6843         13.6843 
        1.46649         92.9539         13.5452         13.5452 
        1.47263          92.287         13.4079         13.4079 
        1.47877         91.8903         13.2726         13.2726 
        1.48491         91.3897         13.1389         13.1389 
        1.49104         90.6133         13.0073         13.0073 
        1.49718            90.2         12.8775         12.8775 
        1.50333          89.694         12.7492         12.7492 
        1.50947         89.4186         12.6229         12.6229 
         1.5156         88.7481         12.4985         12.4985 
        1.52172         88.0525         12.3757         12.3757 
        1.52787         87.8446         12.2544         12.2544 
          1.534         87.3004         12.1348         12.1348 
        1.54013          86.688          12.017          12.017 
        1.54627         86.1797         11.9005         11.9005 
        1.55241         85.9555         11.7855         11.7855 
        1.55855         85.1894         11.6723         11.6723 
        1.56467          84.763         11.5608         11.5608 
         1.5708         83.9292         11.4504         11.4504 
        1.57695         83.8526         11.3413         11.3413 
        1.58308         83.2854         11.2339         11.2339 
        1.58922         82.9745         11.1278         11.1278 
        1.59535         82.6984         11.0231         11.0231 
         1.6015         81.8837         10.9196         10.9196 
        1.60764         81.4455         10.8175         10.8175 
        1.61376         81.2148          10.717          10.717 
        1.61989          80.706         10.6176         10.6176 
        1.62604         80.1956         10.5193         10.5193 
        1.63218         79.6892         10.4223         10.4223 
        1.63831          79.223         10.3268         10.3268 
        1.64444         78.7316         10.2324         10.2324 
        1.65059         78.3416         10.1389         10.1389 
        1.65673         78.2013         10.0467         10.0467 
        1.66285          77.715         9.95597         9.95597 
        1.66898         77.0307         9.86628         9.86628 
        1.67512         76.5008         9.77752         9.77752 
        1.68127          76.305         9.68976         9.68976 
         1.6874         75.7887         9.60328         9.60328 
        1.69353         75.3604         9.51791         9.51791 
        1.69967         74.8695         9.43336         9.43336 
        1.70581         74.6018         9.34988         9.34988 
        1.71193         74.1039         9.26773         9.26773 
        1.71806         73.6849         9.18638         9.18638 
        1.72421         73.2216         9.10585         9.10585 
        1.73035         72.8155         9.02637         9.02637 
        1.73649         72.4434         8.94785         8.94785 
        1.74262          72.132         8.87033         8.87033 
        1.74876         71.5363         8.79368         8.79368 
        1.75489         71.3551         8.71809         8.71809 
        1.76101         71.0739          8.6434          8.6434 
        1.76715         70.4947         8.56949         8.56949 
        1.77329         70.0598         8.49634         8.49634 
        1.77943         69.7895         8.42402         8.42402 
        1.78557         69.4782         8.35264         8.35264 
        1.79171         68.9391         8.28207         8.28207 
        1.79785         68.5622          8.2123          8.2123 
        1.80399         68.3439         8.14335         8.14335 
        1.81012         67.7407         8.07527         8.07527 
        1.81625         67.4541         8.00801         8.00801 
        1.82239         67.0228          7.9414          7.9414 
        1.82853         66.7359         7.87559         7.87559 
        1.83466         66.2627         7.81058         7.81058 
        1.84078         66.0301         7.74638         7.74638 
        1.84692         65.7779         7.68278         7.68278 
        1.85306         65.5044         7.61983         7.61983 
         1.8592         65.0845         7.55767         7.55767 
        1.86533          64.627         7.49625         7.49625 
        1.87147         64.2826         7.43543         7.43543 
        1.87761         63.7094         7.37526         7.37526 
