# k  (h/Mpc)    P(k)  (Mpc/h)^3    P_linear(k)  (Mpc/h)^3     P_NL(k)  ShotnoiseSubtracted = false
     0.00783031         3306.67         3330.34         3330.34 
       0.013688          3823.2         3878.57         3878.57 
       0.019231         3716.48         3740.85         3740.85 
      0.0249154         3312.87         3302.62         3302.62 
      0.0312784         2735.33         2735.95         2735.95 
      0.0375637         2252.51          2260.1          2260.1 
      0.0433917         1946.81          1941.2          1941.2 
      0.0492413         1725.59          1727.4          1727.4 
      0.0555754         1580.18         1574.18         1574.18 
      0.0619321         1436.77         1453.34         1453.34 
       0.067871         1333.89         1337.34         1337.34 
      0.0738098         1206.85            1206            1206 
      0.0800417         1063.32         1057.76         1057.76 
      0.0862327          919.98          916.69          916.69 
      0.0921407         806.892         802.705         802.705 
      0.0982031         723.774         714.273         714.273 
       0.104506           653.7         651.852         651.852 
       0.110769          614.37         611.508         611.508 
       0.116806         590.186         582.523         582.523 
       0.122832         556.411         553.849         553.849 
       0.129052         523.312         518.545         518.545 
       0.135211          485.96         477.049         477.049 
       0.141259          439.93         433.385         433.385 
       0.147318         396.233         391.769         391.769 
       0.153489         362.921         355.855         355.855 
       0.159709         338.413         328.282         328.282 
       0.165845         313.643         308.987         308.987 
       0.171974         305.471         295.185         295.185 
       0.178125         293.012          283.71          283.71 
       0.184229         277.589         271.948         271.948 
        0.19034         266.754         258.254         258.254 
       0.196428         251.772         242.621         242.621 
       0.202534         231.594         226.022         226.022 
       0.208729         219.914         209.829         209.829 
       0.214876         207.568         195.747         195.747 
       0.220989         192.644         184.353         184.353 
       0.227147         186.814         175.404         175.404 
        0.23329         179.649         168.325         168.325 
       0.239377          174.37         162.209         162.209 
       0.245482         166.506         156.127         156.127 
       0.251667         158.686         149.509         149.509 
       0.257832          154.38         142.367         142.367 
       0.263955         144.833         135.013         135.013 
       0.270079         137.688         127.855         127.855 
        0.27624         130.634         121.269         121.269 
       0.282372         125.525         115.571         115.571 
        0.28843         123.057         110.794         110.794 
       0.294538         117.629          106.66          106.66 
       0.300721         112.651         102.902         102.902 
        0.30691         110.292         99.2881         99.2881 
       0.313033         105.589         95.6792         95.6792 
       0.319153         103.195         91.9721         91.9721 
       0.325316          98.425         88.2024         88.2024 
        0.33145         94.6587         84.5292         84.5292 
       0.337538         91.2165         81.0914         81.0914 
       0.343633         88.1846         77.9428         77.9428 
       0.349808         85.0578         75.0724         75.0724 
       0.355968         82.4072         72.4943         72.4943 
       0.362074         80.6383         70.1379         70.1379 
       0.368217         78.3034          67.888          67.888 
       0.374374         76.2899         65.6827         65.6827 
       0.380519         72.9891         63.4998         63.4998 
       0.386598         70.8332         61.3648         61.3648 
       0.392688         68.4356         59.2724         59.2724 
        0.39888         67.0147         57.2329         57.2329 
       0.405048         65.1933         55.3204         55.3204 
       0.411186          63.392         53.5424         53.5424 
       0.417313         61.5115         51.8914         51.8914 
       0.423458          59.751         50.3377         50.3377 
       0.429607         58.5432         48.8566         48.8566 
       0.435692         57.4692         47.4429         47.4429 
       0.441815         55.2902         46.0592         46.0592 
       0.447964         53.3925         44.7001         44.7001 
       0.454126         52.4061         43.3746         43.3746 
       0.460267         51.7451         42.1006         42.1006 
       0.466387         50.2256          40.885          40.885 
        0.47254         49.4141         39.7196         39.7196 
       0.478662         47.6528         38.6179         38.6179 
       0.484765         46.6529         37.5738         37.5738 
       0.490885          45.296         36.5719         36.5719 
       0.497035         44.6162         35.6012         35.6012 
       0.503198         43.5677         34.6593         34.6593 
       0.509342         42.3011         33.7493         33.7493 
       0.515458         41.6227         32.8711         32.8711 
       0.521598         40.5788         32.0167         32.0167 
       0.527764         39.9664         31.1878         31.1878 
       0.533884         39.1579         30.3957         30.3957 
           0.54         38.2145          29.636          29.636 
       0.546137         37.0422         28.9038         28.9038 
       0.552299         36.3585         28.1957         28.1957 
       0.558452         35.5366          27.513          27.513 
       0.564573         35.1743         26.8553         26.8553 
       0.570708         34.1687         26.2165         26.2165 
       0.576825         33.7249         25.5995         25.5995 
       0.582926         33.1227         25.0034         25.0034 
       0.589034         32.3942         24.4251         24.4251 
       0.595184         31.9107         23.8611         23.8611 
       0.601379         31.0361         23.3114         23.3114 
       0.607522         30.4618         22.7838         22.7838 
       0.613639         30.0147         22.2755         22.2755 
       0.619772         29.3958         21.7824         21.7824 
       0.625918          28.838         21.3037         21.3037 
       0.632068         28.5285         20.8394         20.8394 
       0.638161         27.8828          20.393          20.393 
         0.6443         27.4735         19.9561         19.9561 
       0.650464         26.7546         19.5301         19.5301 
       0.656582         26.5535         19.1193         19.1193 
       0.662703         26.1505         18.7201         18.7201 
       0.668861         25.4662         18.3301         18.3301 
       0.675024         25.1368          17.951          17.951 
       0.681124         24.9304         17.5868         17.5868 
       0.687237         24.3879         17.2322         17.2322 
       0.693381           23.91          16.886          16.886 
       0.699536         23.7178         16.5487         16.5487 
       0.705665         23.2335         16.2222         16.2222 
       0.711789         22.8236         15.9049         15.9049 
       0.717957         22.3419         15.5938         15.5938 
        0.72409           22.11         15.2927         15.2927 
       0.730186         21.9635         15.0014         15.0014 
       0.736317         21.4847         14.7161         14.7161 
       0.742472         21.2124         14.4371         14.4371 
       0.748622         20.8263         14.1656         14.1656 
        0.75476         20.3164         13.9017         13.9017 
       0.760888         20.2506          13.645          13.645 
       0.767043         19.8514         13.3937         13.3937 
       0.773185         19.5981         13.1494         13.1494 
       0.779291         19.3489         12.9125         12.9125 
       0.785407         19.0459         12.6812         12.6812 
       0.791564         18.9085         12.4542         12.4542 
       0.797719         18.4445         12.2328         12.2328 
       0.803834         18.3625         12.0182         12.0182 
       0.809972         17.9942          11.808          11.808 
       0.816124         17.7816         11.6024         11.6024 
       0.822261         17.5557         11.4023         11.4023 
       0.828378         17.3676         11.2075         11.2075 
       0.834502         17.1502         11.0171         11.0171 
       0.840667         16.9541         10.8299         10.8299 
       0.846816         16.5774         10.6476         10.6476 
       0.852925         16.4985         10.4707         10.4707 
       0.859047         16.2901         10.2974         10.2974 
       0.865192         16.0348         10.1275         10.1275 
       0.871341         15.8282          9.9613          9.9613 
       0.877463         15.6206         9.79961         9.79961 
       0.883569         15.5056         9.64193         9.64193 
       0.889708         15.2466         9.48693         9.48693 
       0.895864         15.0394         9.33495         9.33495 
       0.902008         14.8634         9.18662         9.18662 
       0.908149         14.6497         9.04162         9.04162 
       0.914301         14.5483         8.89951         8.89951 
       0.920448         14.3302         8.76061         8.76061 
       0.926574         14.1908         8.62516         8.62516 
       0.932687         13.9869         8.49287         8.49287 
       0.938823         13.7865         8.36288         8.36288 
       0.944975         13.6842         8.23532         8.23532 
       0.951105         13.5242         8.11088         8.11088 
       0.957225         13.4151         7.98922         7.98922 
       0.963368         13.1837         7.86965         7.86965 
       0.969511         13.0506         7.75253         7.75253 
       0.975621         12.9262         7.63843         7.63843 
       0.981748         12.7436         7.52633         7.52633 
       0.987916         12.6565         7.41578         7.41578 
        0.99406         12.4725         7.30787         7.30787 
        1.00019         12.3797         7.20233         7.20233 
        1.00632         12.2654         7.09896         7.09896 
        1.01246         12.1143         6.99748         6.99748 
        1.01859         11.9668         6.89814         6.89814 
        1.02471         11.8299         6.80085         6.80085 
        1.03085          11.763         6.70511         6.70511 
        1.03698          11.646          6.6114          6.6114 
        1.04314         11.4807          6.5191          6.5191 
        1.04929         11.3273         6.42877         6.42877 
        1.05541         11.2602         6.34051         6.34051 
        1.06154         11.1559          6.2537          6.2537 
        1.06769         11.0273         6.16839         6.16839 
        1.07382         10.8778         6.08494         6.08494 
        1.07993         10.7862         6.00324         6.00324 
        1.08607         10.7086         5.92269         5.92269 
        1.09222          10.572         5.84355         5.84355 
        1.09836         10.4899         5.76595         5.76595 
        1.10449         10.3786         5.68985         5.68985 
        1.11063          10.313         5.61504         5.61504 
        1.11677         10.2263          5.5416          5.5416 
         1.1229         10.1142         5.46961         5.46961 
        1.12903          10.008         5.39883         5.39883 
        1.13518         9.90495         5.32925         5.32925 
        1.14131         9.82906         5.26093         5.26093 
        1.14745         9.67751         5.19385         5.19385 
        1.15359         9.58288         5.12793         5.12793 
        1.15973         9.51403         5.06313         5.06313 
        1.16584         9.42281         4.99973         4.99973 
        1.17197         9.31868         4.93734         4.93734 
        1.17811         9.25052         4.87581         4.87581 
        1.18424         9.17505         4.81552         4.81552 
        1.19038         9.11827         4.75607         4.75607 
        1.19652         9.00756         4.69764         4.69764 
        1.20267         8.95445          4.6402          4.6402 
        1.20881         8.82548         4.58373         4.58373 
        1.21495         8.77369         4.52829         4.52829 
        1.22108         8.71033         4.47377         4.47377 
         1.2272         8.62671         4.42028         4.42028 
        1.23334         8.57582         4.36753         4.36753 
        1.23949         8.48616         4.31552         4.31552 
        1.24562         8.39349          4.2645          4.2645 
        1.25174         8.35569         4.21438         4.21438 
        1.25789           8.258         4.16492         4.16492 
        1.26402         8.20338         4.11633         4.11633 
        1.27014         8.15883         4.06864         4.06864 
        1.27628         8.04897         4.02155         4.02155 
        1.28244         8.02427         3.97513         3.97513 
        1.28858         7.93503         3.92949         3.92949 
        1.29471         7.83856         3.88468         3.88468 
        1.30084         7.77818          3.8406          3.8406 
        1.30697         7.75319         3.79715         3.79715 
        1.31312          7.6739          3.7543          3.7543 
        1.31925         7.62157         3.71225         3.71225 
        1.32537         7.54876         3.67088         3.67088 
        1.33151         7.49189            3.63            3.63 
        1.33765         7.43407         3.58976         3.58976 
        1.34378         7.40473         3.55021         3.55021 
        1.34992         7.31891         3.51123         3.51123 
        1.35606         7.25162         3.47275         3.47275 
         1.3622         7.19258         3.43492         3.43492 
        1.36833         7.16389         3.39773         3.39773 
        1.37445          7.1069         3.36112         3.36112 
        1.38059         7.03991         3.32493         3.32493 
        1.38675         6.99868         3.28919         3.28919 
        1.39288         6.92697         3.25412         3.25412 
        1.39901         6.87335         3.21958         3.21958 
        1.40515         6.82327         3.18545         3.18545 
         1.4113         6.77137         3.15184         3.15184 
        1.41742         6.73795         3.11884         3.11884 
        1.42355         6.66606         3.08624         3.08624 
         1.4297         6.62557         3.05402         3.05402 
        1.43585         6.58466         3.02227         3.02227 
        1.44198         6.54221         2.99109         2.99109 
        1.44809         6.48558         2.96041         2.96041 
        1.45423         6.43424         2.93004         2.93004 
        1.46036         6.39198         2.90015         2.90015 
        1.46649         6.34764         2.87067         2.87067 
        1.47263         6.30613         2.84158         2.84158 
        1.47877         6.25509          2.8129          2.8129 
        1.48491         6.22294         2.78457         2.78457 
        1.49104          6.1674         2.75669         2.75669 
        1.49718         6.13932         2.72916         2.72916 
        1.50333         6.09353         2.70197         2.70197 
        1.50947         6.04485         2.67521         2.67521 
         1.5156          6.0172         2.64884         2.64884 
        1.52172         5.95826         2.62283         2.62283 
        1.52787          5.9374         2.59712         2.59712 
          1.534         5.88796         2.57178         2.57178 
        1.54013         5.85912          2.5468          2.5468 
        1.54627         5.80901         2.52212         2.52212 
        1.55241           5.754         2.49775         2.49775 
        1.55855         5.73895         2.47374         2.47374 
        1.56467         5.70689         2.45011         2.45011 
         1.5708         5.65719         2.42672         2.42672 
        1.57695         5.61806         2.40361         2.40361 
        1.58308         5.57312         2.38084         2.38084 
        1.58922         5.55314         2.35836         2.35836 
        1.59535         5.51841         2.33617         2.33617 
         1.6015         5.45213         2.31424         2.31424 
        1.60764         5.42731         2.29259         2.29259 
        1.61376         5.40593         2.27129         2.27129 
        1.61989         5.35655         2.25023         2.25023 
        1.62604         5.34013          2.2294          2.2294 
        1.63218         5.30588         2.20884         2.20884 
        1.63831         5.26413         2.18859         2.18859 
        1.64444         5.22217         2.16858         2.16858 
        1.65059         5.18799         2.14878         2.14878 
        1.65673         5.17533         2.12924         2.12924 
        1.66285         5.13273            2.11            2.11 
        1.66898         5.11151         2.09099         2.09099 
        1.67512          5.0795         2.07218         2.07218 
        1.68127         5.02713         2.05359         2.05359 
         1.6874         5.01385         2.03526         2.03526 
        1.69353         4.96512         2.01716         2.01716 
        1.69967         4.94954         1.99925         1.99925 
        1.70581         4.91258         1.98155         1.98155 
        1.71193          4.8914         1.96414         1.96414 
        1.71806         4.85537          1.9469          1.9469 
        1.72421         4.82471         1.92983         1.92983 
        1.73035         4.80379         1.91299         1.91299 
        1.73649         4.77909         1.89635         1.89635 
        1.74262         4.72819         1.87992         1.87992 
        1.74876         4.72313         1.86368         1.86368 
        1.75489         4.69352         1.84765         1.84765 
        1.76101          4.6491         1.83183         1.83183 
        1.76715         4.64532         1.81616         1.81616 
        1.77329         4.60855         1.80066         1.80066 
        1.77943         4.56619         1.78533         1.78533 
        1.78557         4.56963          1.7702          1.7702 
        1.79171          4.5317         1.75525         1.75525 
        1.79785         4.51332         1.74046         1.74046 
        1.80399         4.47564         1.72585         1.72585 
        1.81012         4.45403         1.71142         1.71142 
        1.81625         4.42424         1.69716         1.69716 
        1.82239         4.40345         1.68305         1.68305 
        1.82853         4.36756          1.6691          1.6691 
        1.83466          4.3363         1.65532         1.65532 
        1.84078         4.32067         1.64172         1.64172 
        1.84692         4.30049         1.62824         1.62824 
        1.85306         4.27441          1.6149          1.6149 
         1.8592         4.25982         1.60172         1.60172 
        1.86533         4.23266         1.58871         1.58871 
        1.87147         4.21233         1.57582         1.57582 
        1.87761         4.18951         1.56306         1.56306 
