# k  (h/Mpc)    Pcb(k)  (Mpc/h)^3    Pcb_linear(k) (Mpc/h)^3    Pcb_NL(k) (Mpc/h)^3   ShotnoiseSubtracted = false
     0.00783031         579.301         584.072         584.072 
       0.013688         674.239         680.508         680.508 
       0.019231         654.167         656.448         656.448 
      0.0249154         580.137         579.593         579.593 
      0.0312784         480.658          480.17          480.17 
      0.0375637         396.655         396.669         396.669 
      0.0433917         341.653         340.705         340.705 
      0.0492413         303.362         303.184         303.184 
      0.0555754         276.998         276.295         276.295 
      0.0619321         253.887         255.087         255.087 
       0.067871         234.516         234.728         234.728 
      0.0738098         211.692         211.676         211.676 
      0.0800417         186.085         185.658         185.658 
      0.0862327         161.139         160.898         160.898 
      0.0921407         141.066         140.892         140.892 
      0.0982031         125.946          125.37          125.37 
       0.104506         114.335         114.414         114.414 
       0.110769         107.293         107.333         107.333 
       0.116806         102.535         102.245         102.245 
       0.122832         97.0946         97.2127         97.2127 
       0.129052         91.1342         91.0161         91.0161 
       0.135211         84.0586         83.7328         83.7328 
       0.141259          76.212         76.0689         76.0689 
       0.147318         68.7447         68.7643         68.7643 
       0.153489         62.6355         62.4607         62.4607 
       0.159709         57.9191         57.6209         57.6209 
       0.165845         54.1524         54.2343         54.2343 
       0.171974         52.1379         51.8117         51.8117 
       0.178125         50.0198         49.7975         49.7975 
       0.184229         47.7682         47.7331         47.7331 
        0.19034         45.5993         45.3295         45.3295 
       0.196428         42.8114         42.5855         42.5855 
       0.202534         39.6365         39.6722         39.6722 
       0.208729         37.0711         36.8298         36.8298 
       0.214876         34.7536         34.3581         34.3581 
       0.220989          32.477         32.3582         32.3582 
       0.227147         31.1546         30.7875         30.7875 
        0.23329         29.9062          29.545          29.545 
       0.239377         28.8491         28.4714         28.4714 
       0.245482         27.7221          27.404          27.404 
       0.251667         26.4431         26.2423         26.2423 
       0.257832         25.3595         24.9888         24.9888 
       0.263955         23.9526         23.6979         23.6979 
       0.270079         22.6925         22.4415         22.4415 
        0.27624         21.4728         21.2856         21.2856 
       0.282372         20.4967         20.2855         20.2855 
        0.28843          19.799          19.447          19.447 
       0.294538         19.0318         18.7213         18.7213 
       0.300721         18.2682         18.0618         18.0618 
        0.30691         17.7346         17.4274         17.4274 
       0.313033         17.0614          16.794          16.794 
       0.319153         16.5412         16.1433         16.1433 
       0.325316         15.7054         15.4816         15.4816 
        0.33145         15.0595         14.8369         14.8369 
       0.337538         14.4875         14.2335         14.2335 
       0.343633         13.9787         13.6808         13.6808 
       0.349808         13.4387          13.177          13.177 
       0.355968         12.9602         12.7245         12.7245 
       0.362074         12.6102         12.3109         12.3109 
       0.368217         12.1941          11.916          11.916 
       0.374374         11.8664         11.5288         11.5288 
       0.380519         11.4034         11.1457         11.1457 
       0.386598         11.0009          10.771          10.771 
       0.392688         10.6104         10.4037         10.4037 
        0.39888         10.3011         10.0458         10.0458 
       0.405048         9.97837         9.71003         9.71003 
       0.411186         9.64776         9.39799         9.39799 
       0.417313         9.35578         9.10815         9.10815 
       0.423458         9.04228         8.83546         8.83546 
       0.429607         8.83723         8.57548         8.57548 
       0.435692         8.60551         8.32736         8.32736 
       0.441815         8.31867         8.08448         8.08448 
       0.447964         8.03396         7.84593         7.84593 
       0.454126         7.85071         7.61327         7.61327 
       0.460267          7.6649         7.38966         7.38966 
       0.466387         7.42882         7.17629         7.17629 
        0.47254         7.24532         6.97172         6.97172 
       0.478662         7.02826         6.77837         6.77837 
       0.484765         6.84634         6.59509         6.59509 
       0.490885         6.64268         6.41923         6.41923 
       0.497035         6.45448         6.24885         6.24885 
       0.503198          6.3187         6.08353         6.08353 
       0.509342         6.12241          5.9238          5.9238 
       0.515458          5.9954         5.76966         5.76966 
       0.521598         5.84783         5.61969         5.61969 
       0.527764         5.72619          5.4742          5.4742 
       0.533884          5.5382         5.33518         5.33518 
           0.54         5.42039         5.20182         5.20182 
       0.546137          5.2645          5.0733          5.0733 
       0.552299         5.15264         4.94901         4.94901 
       0.558452         5.02698         4.82918         4.82918 
       0.564573         4.91867         4.71374         4.71374 
       0.570708         4.80512         4.60162         4.60162 
       0.576825         4.69835         4.49333         4.49333 
       0.582926         4.57998         4.38869         4.38869 
       0.589034         4.49165         4.28718         4.28718 
       0.595184         4.40636         4.18819         4.18819 
       0.601379         4.28575          4.0917          4.0917 
       0.607522         4.18939          3.9991          3.9991 
       0.613639         4.08728         3.90989         3.90989 
       0.619772          4.0152         3.82332         3.82332 
       0.625918         3.92618         3.73931         3.73931 
       0.632068         3.85145         3.65781         3.65781 
       0.638161          3.7639         3.57945         3.57945 
         0.6443         3.68282         3.50278         3.50278 
       0.650464         3.60432           3.428           3.428 
       0.656582          3.5475         3.35589         3.35589 
       0.662703         3.47421         3.28582         3.28582 
       0.668861         3.38229         3.21736         3.21736 
       0.675024         3.31979         3.15084         3.15084 
       0.681124         3.29061          3.0869          3.0869 
       0.687237         3.20745         3.02467         3.02467 
       0.693381           3.125         2.96389         2.96389 
       0.699536         3.08549          2.9047          2.9047 
       0.705665         3.02458         2.84739         2.84739 
       0.711789         2.95193         2.79168         2.79168 
       0.717957         2.89582         2.73708         2.73708 
        0.72409         2.84803         2.68424         2.68424 
       0.730186         2.81224          2.6331          2.6331 
       0.736317         2.74294         2.58302         2.58302 
       0.742472         2.70423         2.53405         2.53405 
       0.748622         2.65632          2.4864          2.4864 
        0.75476         2.59209         2.44008         2.44008 
       0.760888          2.5588         2.39502         2.39502 
       0.767043         2.48916         2.35092         2.35092 
       0.773185         2.45558         2.30803         2.30803 
       0.779291         2.43233         2.26646         2.26646 
       0.785407         2.37955         2.22586         2.22586 
       0.791564         2.33647           2.186           2.186 
       0.797719         2.29532         2.14714         2.14714 
       0.803834         2.25836         2.10948         2.10948 
       0.809972         2.21772         2.07259         2.07259 
       0.816124         2.18067          2.0365          2.0365 
       0.822261         2.14775         2.00137         2.00137 
       0.828378         2.10956         1.96718         1.96718 
       0.834502         2.07421         1.93376         1.93376 
       0.840667         2.04691         1.90091         1.90091 
       0.846816         2.00774         1.86891         1.86891 
       0.852925         1.97358         1.83785         1.83785 
       0.859047         1.94229         1.80744         1.80744 
       0.865192         1.91135         1.77761         1.77761 
       0.871341         1.88426         1.74845         1.74845 
       0.877463         1.84868         1.72007         1.72007 
       0.883569          1.8225         1.69239         1.69239 
       0.889708         1.79765         1.66518         1.66518 
       0.895864         1.76968         1.63851         1.63851 
       0.902008         1.73583         1.61247         1.61247 
       0.908149         1.71361         1.58702         1.58702 
       0.914301         1.69053         1.56208         1.56208 
       0.920448         1.66733          1.5377          1.5377 
       0.926574         1.64721         1.51392         1.51392 
       0.932687         1.61933          1.4907          1.4907 
       0.938823         1.58714         1.46788         1.46788 
       0.944975         1.57147         1.44549         1.44549 
       0.951105         1.53834         1.42365         1.42365 
       0.957225         1.52211          1.4023          1.4023 
       0.963368         1.50316         1.38131         1.38131 
       0.969511         1.48316         1.36075         1.36075 
       0.975621         1.45613         1.34073         1.34073 
       0.981748         1.42919         1.32105         1.32105 
       0.987916         1.41316         1.30165         1.30165 
        0.99406         1.39821         1.28271         1.28271 
        1.00019         1.37793         1.26418         1.26418 
        1.00632         1.36317         1.24604         1.24604 
        1.01246          1.3418         1.22822         1.22822 
        1.01859          1.3237         1.21079         1.21079 
        1.02471         1.30026         1.19371         1.19371 
        1.03085         1.28353         1.17691         1.17691 
        1.03698         1.26898         1.16046         1.16046 
        1.04314         1.25136         1.14426         1.14426 
        1.04929         1.23777          1.1284          1.1284 
        1.05541         1.21556         1.11291         1.11291 
        1.06154          1.2039         1.09767         1.09767 
        1.06769         1.19028          1.0827          1.0827 
        1.07382         1.17144         1.06805         1.06805 
        1.07993         1.15569         1.05371         1.05371 
        1.08607         1.14374         1.03957         1.03957 
        1.09222         1.12562         1.02568         1.02568 
        1.09836         1.11659         1.01206         1.01206 
        1.10449         1.09551        0.998704        0.998704 
        1.11063         1.08258        0.985573        0.985573 
        1.11677         1.07139        0.972684        0.972684 
         1.1229         1.05425        0.960047        0.960047 
        1.12903          1.0454        0.947624        0.947624 
        1.13518         1.02961         0.93541         0.93541 
        1.14131         1.01803        0.923419        0.923419 
        1.14745         1.00733        0.911645        0.911645 
        1.15359        0.993272        0.900074        0.900074 
        1.15973        0.981783        0.888699        0.888699 
        1.16584        0.969461        0.877572        0.877572 
        1.17197        0.955936         0.86662         0.86662 
        1.17811        0.944367        0.855822        0.855822 
        1.18424        0.933495        0.845238        0.845238 
        1.19038        0.921563        0.834803        0.834803 
        1.19652        0.913394        0.824549        0.824549 
        1.20267        0.904537        0.814466        0.814466 
        1.20881        0.889508        0.804554        0.804554 
        1.21495        0.881001        0.794823        0.794823 
        1.22108        0.871407        0.785254        0.785254 
         1.2272         0.85809        0.775864        0.775864 
        1.23334        0.850445        0.766607        0.766607 
        1.23949        0.841248        0.757478        0.757478 
        1.24562        0.831469        0.748522        0.748522 
        1.25174        0.823373        0.739725        0.739725 
        1.25789        0.810697        0.731042        0.731042 
        1.26402        0.802626        0.722514        0.722514 
        1.27014        0.791286        0.714143        0.714143 
        1.27628        0.785298        0.705879        0.705879 
        1.28244        0.776071         0.69773         0.69773 
        1.28858        0.766354         0.68972         0.68972 
        1.29471        0.757439        0.681854        0.681854 
        1.30084        0.750305        0.674118        0.674118 
        1.30697        0.744356         0.66649         0.66649 
        1.31312        0.734914        0.658969        0.658969 
        1.31925        0.727033        0.651588        0.651588 
        1.32537        0.719451        0.644328        0.644328 
        1.33151        0.710833        0.637151        0.637151 
        1.33765        0.703493        0.630089        0.630089 
        1.34378        0.695477        0.623147        0.623147 
        1.34992        0.690111        0.616305        0.616305 
        1.35606        0.681262        0.609551        0.609551 
         1.3622        0.674933         0.60291         0.60291 
        1.36833        0.667804        0.596383        0.596383 
        1.37445         0.66048        0.589957        0.589957 
        1.38059        0.653939        0.583606        0.583606 
        1.38675        0.646892        0.577332        0.577332 
        1.39288        0.640429        0.571176        0.571176 
        1.39901        0.633647        0.565113        0.565113 
        1.40515        0.626741        0.559123        0.559123 
         1.4113        0.622993        0.553223        0.553223 
        1.41742        0.614745         0.54743         0.54743 
        1.42355        0.606912         0.54171         0.54171 
         1.4297        0.602929        0.536054        0.536054 
        1.43585        0.595809         0.53048         0.53048 
        1.44198        0.590688        0.525008        0.525008 
        1.44809        0.584297        0.519622        0.519622 
        1.45423        0.578626        0.514292        0.514292 
        1.46036        0.573204        0.509047        0.509047 
        1.46649        0.566835        0.503872        0.503872 
        1.47263        0.561179        0.498765        0.498765 
        1.47877        0.558845        0.493731        0.493731 
        1.48491        0.549286        0.488758        0.488758 
        1.49104         0.54697        0.483864        0.483864 
        1.49718        0.539443        0.479034        0.479034 
        1.50333        0.535487        0.474261        0.474261 
        1.50947          0.5307        0.469563        0.469563 
         1.5156        0.525339        0.464935        0.464935 
        1.52172        0.520806         0.46037         0.46037 
        1.52787         0.51482        0.455856        0.455856 
          1.534        0.511442        0.451409        0.451409 
        1.54013        0.506018        0.447025        0.447025 
        1.54627         0.50122        0.442692        0.442692 
        1.55241        0.496303        0.438415        0.438415 
        1.55855        0.491773        0.434201        0.434201 
        1.56467         0.48741        0.430053        0.430053 
         1.5708        0.482747        0.425948        0.425948 
        1.57695        0.477706         0.42189         0.42189 
        1.58308        0.472792        0.417895        0.417895 
        1.58922        0.469859        0.413948        0.413948 
        1.59535        0.464522        0.410054        0.410054 
         1.6015        0.460433        0.406204        0.406204 
        1.60764        0.456405        0.402405        0.402405 
        1.61376        0.452113        0.398665        0.398665 
        1.61989        0.448304         0.39497         0.39497 
        1.62604        0.443393        0.391313        0.391313 
        1.63218        0.440731        0.387705        0.387705 
        1.63831        0.436112         0.38415         0.38415 
        1.64444        0.432819        0.380638        0.380638 
        1.65059        0.428651        0.377162        0.377162 
        1.65673        0.424411        0.373733        0.373733 
        1.66285        0.421137        0.370356        0.370356 
        1.66898        0.417875         0.36702         0.36702 
        1.67512        0.412769        0.363718        0.363718 
        1.68127        0.409245        0.360453        0.360453 
         1.6874        0.407047        0.357236        0.357236 
        1.69353        0.402553         0.35406         0.35406 
        1.69967        0.399719        0.350916        0.350916 
        1.70581        0.396728         0.34781         0.34781 
        1.71193        0.393113        0.344754        0.344754 
        1.71806        0.389824        0.341728        0.341728 
        1.72421        0.386096        0.338732        0.338732 
        1.73035        0.381821        0.335776        0.335776 
        1.73649        0.380494        0.332855        0.332855 
        1.74262        0.375885        0.329971        0.329971 
        1.74876        0.373535         0.32712         0.32712 
        1.75489        0.370594        0.324308        0.324308 
        1.76101        0.366731        0.321529        0.321529 
        1.76715        0.364002         0.31878         0.31878 
        1.77329        0.361067        0.316059        0.316059 
        1.77943        0.358012        0.313368        0.313368 
        1.78557        0.356067        0.310713        0.310713 
        1.79171        0.352856        0.308088        0.308088 
        1.79785        0.349599        0.305493        0.305493 
        1.80399        0.345759        0.302928        0.302928 
        1.81012        0.343784        0.300395        0.300395 
        1.81625        0.341447        0.297893        0.297893 
        1.82239        0.338806        0.295416        0.295416 
        1.82853        0.335485        0.292967        0.292967 
        1.83466        0.332763        0.290549        0.290549 
        1.84078        0.329788        0.288161        0.288161 
        1.84692        0.327612        0.285795        0.285795 
        1.85306        0.325342        0.283453        0.283453 
         1.8592        0.322361        0.281141        0.281141 
        1.86533        0.320294        0.278856        0.278856 
        1.87147        0.316602        0.276594        0.276594 
