# k  (h/Mpc)    P(k)  (Mpc/h)^3    P_linear(k)  (Mpc/h)^3     P_NL(k)  ShotnoiseSubtracted = false
     0.00783031         13151.5           13226           13226 
       0.013688         15032.8         15396.6         15396.6 
       0.019231         14654.2         14847.3         14847.3 
      0.0249154         13168.7         13106.7         13106.7 
      0.0312784         10800.9         10857.1         10857.1 
      0.0375637         8867.56         8968.46         8968.46 
      0.0433917         7701.14         7702.81         7702.81 
      0.0492413         6811.17         6854.32         6854.32 
      0.0555754         6251.29         6246.26         6246.26 
      0.0619321         5616.83         5766.72         5766.72 
       0.067871         5243.95         5306.39         5306.39 
      0.0738098         4774.88         4785.22         4785.22 
      0.0800417         4219.22         4197.02         4197.02 
      0.0862327         3656.97         3637.25         3637.25 
      0.0921407         3234.43         3184.97         3184.97 
      0.0982031         2925.88         2834.08         2834.08 
       0.104506         2630.64          2586.4          2586.4 
       0.110769         2477.63         2426.32         2426.32 
       0.116806         2389.41         2311.31         2311.31 
       0.122832         2247.31         2197.54         2197.54 
       0.129052          2106.7         2057.46         2057.46 
       0.135211          1991.4         1892.81         1892.81 
       0.141259         1802.74         1719.56         1719.56 
       0.147318         1634.35         1554.44         1554.44 
       0.153489          1512.8         1411.94         1411.94 
       0.159709         1437.83         1302.53         1302.53 
       0.165845         1322.55         1225.98         1225.98 
       0.171974         1297.74         1171.21         1171.21 
       0.178125         1252.86         1125.68         1125.68 
       0.184229         1164.19         1079.02         1079.02 
        0.19034         1133.27         1024.68         1024.68 
       0.196428         1085.78         962.653         962.653 
       0.202534         1001.18         896.794         896.794 
       0.208729         972.716         832.543         832.543 
       0.214876         920.974         776.669         776.669 
       0.220989         863.541          731.46          731.46 
       0.227147         841.239         695.952         695.952 
        0.23329         809.166         667.866         667.866 
       0.239377         799.336         643.598         643.598 
       0.245482         758.361         619.469         619.469 
       0.251667         727.913         593.208         593.208 
       0.257832         714.641         564.873         564.873 
       0.263955         674.224         535.693         535.693 
       0.270079         647.965         507.292         507.292 
        0.27624         619.095          481.16          481.16 
       0.282372         605.346         458.554         458.554 
        0.28843         597.798           439.6           439.6 
       0.294538         566.961         423.195         423.195 
       0.300721         551.551         408.286         408.286 
        0.30691         540.318         393.946         393.946 
       0.313033         515.263         379.627         379.627 
       0.319153         506.626         364.919         364.919 
       0.325316         496.969         349.961         349.961 
        0.33145         483.764         335.387         335.387 
       0.337538         465.281         321.747         321.747 
       0.343633         451.508         309.254         309.254 
       0.349808         440.079         297.865         297.865 
       0.355968         431.189         287.636         287.636 
       0.362074         415.466         278.287         278.287 
       0.368217         412.476         269.359         269.359 
       0.374374          404.36         260.609         260.609 
       0.380519         387.598         251.949         251.949 
       0.386598         382.775         243.477         243.477 
       0.392688         372.545         235.175         235.175 
        0.39888         362.989         227.083         227.083 
       0.405048         354.815         219.495         219.495 
       0.411186         353.456          212.44          212.44 
       0.417313          347.61          205.89          205.89 
       0.423458         338.065         199.725         199.725 
       0.429607         327.858         193.848         193.848 
       0.435692         322.639          188.24          188.24 
       0.441815         316.847         182.749         182.749 
       0.447964         308.844         177.357         177.357 
       0.454126         305.077         172.097         172.097 
       0.460267         299.956         167.043         167.043 
       0.466387         293.385          162.22          162.22 
        0.47254         289.447         157.596         157.596 
       0.478662         282.465         153.224         153.224 
       0.484765         278.352         149.082         149.082 
       0.490885          275.15         145.106         145.106 
       0.497035         269.469         141.255         141.255 
       0.503198         268.135         137.518         137.518 
       0.509342          261.62         133.907         133.907 
       0.515458         256.996         130.423         130.423 
       0.521598         252.195         127.033         127.033 
       0.527764         249.017         123.744         123.744 
       0.533884          247.04         120.601         120.601 
           0.54         242.789         117.587         117.587 
       0.546137         237.165         114.681         114.681 
       0.552299         235.681         111.872         111.872 
       0.558452         231.524         109.163         109.163 
       0.564573         229.913         106.554         106.554 
       0.570708         225.146         104.019         104.019 
       0.576825         221.382         101.571         101.571 
       0.582926         219.642          99.206          99.206 
       0.589034         215.757         96.9113         96.9113 
       0.595184         214.055         94.6738         94.6738 
       0.601379         210.535         92.4925         92.4925 
       0.607522         205.668         90.3993         90.3993 
       0.613639         204.688         88.3826         88.3826 
       0.619772         203.381         86.4259         86.4259 
       0.625918         200.023         84.5267         84.5267 
       0.632068         196.887         82.6844         82.6844 
       0.638161         195.538         80.9132         80.9132 
         0.6443         193.014         79.1799         79.1799 
       0.650464         189.811         77.4896         77.4896 
       0.656582         188.031         75.8596         75.8596 
       0.662703         186.711         74.2757         74.2757 
       0.668861         182.773         72.7282         72.7282 
       0.675024         182.258         71.2243         71.2243 
       0.681124         179.695         69.7792         69.7792 
       0.687237         178.151         68.3723         68.3723 
       0.693381          175.15         66.9984         66.9984 
       0.699536         174.174         65.6604         65.6604 
       0.705665           172.1          64.365          64.365 
       0.711789         169.683         63.1058         63.1058 
       0.717957         168.256         61.8715         61.8715 
        0.72409         165.883         60.6769         60.6769 
       0.730186         166.602          59.521          59.521 
       0.736317          163.88         58.3889         58.3889 
       0.742472         161.601          57.282          57.282 
       0.748622         159.351         56.2048         56.2048 
        0.75476         159.677         55.1578         55.1578 
       0.760888         157.406         54.1391         54.1391 
       0.767043         154.796         53.1423         53.1423 
       0.773185         153.361         52.1728         52.1728 
       0.779291         151.815         51.2331         51.2331 
       0.785407         150.751         50.3153         50.3153 
       0.791564         149.404         49.4143         49.4143 
       0.797719         146.894          48.536          48.536 
       0.803834         147.394         47.6846         47.6846 
       0.809972         145.535         46.8507         46.8507 
       0.816124         142.994          46.035          46.035 
       0.822261         142.201         45.2409         45.2409 
       0.828378         141.617          44.468          44.468 
       0.834502         139.944         43.7125         43.7125 
       0.840667         139.552         42.9698         42.9698 
       0.846816         137.068         42.2465         42.2465 
       0.852925         136.431         41.5444         41.5444 
       0.859047         135.025         40.8569         40.8569 
       0.865192         134.403         40.1828         40.1828 
       0.871341         132.937         39.5234         39.5234 
       0.877463         131.691         38.8819         38.8819 
       0.883569          131.49         38.2563         38.2563 
       0.889708          130.15         37.6413         37.6413 
       0.895864         128.705         37.0382         37.0382 
       0.902008         127.309         36.4497         36.4497 
       0.908149         126.077         35.8744         35.8744 
       0.914301         125.295         35.3106         35.3106 
       0.920448          125.27         34.7594         34.7594 
       0.926574         123.129          34.222          34.222 
       0.932687         122.944         33.6971         33.6971 
       0.938823         121.891         33.1814         33.1814 
       0.944975         121.063         32.6752         32.6752 
       0.951105         119.762         32.1815         32.1815 
       0.957225         119.075         31.6988         31.6988 
       0.963368         118.169         31.2244         31.2244 
       0.969511         116.952         30.7597         30.7597 
       0.975621          115.52          30.307          30.307 
       0.981748         115.122         29.8622         29.8622 
       0.987916         114.453         29.4236         29.4236 
        0.99406         113.659         28.9954         28.9954 
        1.00019         112.891         28.5766         28.5766 
        1.00632          111.86         28.1665         28.1665 
        1.01246         111.057         27.7639         27.7639 
        1.01859         110.288         27.3697         27.3697 
        1.02471         109.493         26.9837         26.9837 
        1.03085          108.59         26.6038         26.6038 
        1.03698         107.744          26.232          26.232 
        1.04314         107.358         25.8658         25.8658 
        1.04929         106.664         25.5074         25.5074 
        1.05541         105.909         25.1572         25.1572 
        1.06154         104.771         24.8128         24.8128 
        1.06769         104.279         24.4743         24.4743 
        1.07382         103.683         24.1432         24.1432 
        1.07993         102.846          23.819          23.819 
        1.08607         102.426         23.4995         23.4995 
        1.09222         101.426         23.1854         23.1854 
        1.09836         100.775         22.8775         22.8775 
        1.10449         100.162         22.5756         22.5756 
        1.11063         99.2676         22.2788         22.2788 
        1.11677         98.8504         21.9874         21.9874 
         1.1229         97.8804         21.7017         21.7017 
        1.12903         97.2037         21.4209         21.4209 
        1.13518         96.4705         21.1448         21.1448 
        1.14131         96.1341         20.8738         20.8738 
        1.14745         95.4469         20.6076         20.6076 
        1.15359         94.5987         20.3461         20.3461 
        1.15973         94.2499         20.0889         20.0889 
        1.16584         93.5166         19.8374         19.8374 
        1.17197         93.0959         19.5898         19.5898 
        1.17811         92.2779         19.3457         19.3457 
        1.18424         91.6786         19.1065         19.1065 
        1.19038         91.2045         18.8706         18.8706 
        1.19652         90.6454         18.6388         18.6388 
        1.20267         89.9652         18.4109         18.4109 
        1.20881         89.2537         18.1869         18.1869 
        1.21495         88.9242         17.9669         17.9669 
        1.22108         88.3262         17.7506         17.7506 
         1.2272         87.8178         17.5383         17.5383 
        1.23334         87.4211          17.329          17.329 
        1.23949         86.8149         17.1227         17.1227 
        1.24562         86.0341         16.9203         16.9203 
        1.25174          85.903         16.7214         16.7214 
        1.25789         85.0634         16.5251         16.5251 
        1.26402         84.7843         16.3323         16.3323 
        1.27014         83.9769         16.1431         16.1431 
        1.27628         83.6075         15.9563         15.9563 
        1.28244         83.3301         15.7721         15.7721 
        1.28858         82.5888          15.591          15.591 
        1.29471         82.1052         15.4132         15.4132 
        1.30084         81.4072         15.2383         15.2383 
        1.30697         81.0951         15.0659         15.0659 
        1.31312         80.5961         14.8959         14.8959 
        1.31925         79.9295         14.7291         14.7291 
        1.32537         79.5685         14.5649         14.5649 
        1.33151         79.4536         14.4027         14.4027 
        1.33765         78.6818         14.2431         14.2431 
        1.34378         78.3583         14.0862         14.0862 
        1.34992         77.9572         13.9315         13.9315 
        1.35606         77.4695         13.7788         13.7788 
         1.3622         77.2306         13.6287         13.6287 
        1.36833         76.4934         13.4812         13.4812 
        1.37445         76.2123         13.3359         13.3359 
        1.38059          75.739         13.1923         13.1923 
        1.38675         75.1744         13.0505         13.0505 
        1.39288         74.7069         12.9114         12.9114 
        1.39901         74.3603         12.7743         12.7743 
        1.40515         73.8678         12.6389         12.6389 
         1.4113         73.4725         12.5055         12.5055 
        1.41742         73.1437         12.3746         12.3746 
        1.42355         72.8178         12.2453         12.2453 
         1.4297         72.2933         12.1174         12.1174 
        1.43585         71.9546         11.9914         11.9914 
        1.44198         71.3067         11.8677         11.8677 
        1.44809         70.8331          11.746          11.746 
        1.45423         70.8839         11.6255         11.6255 
        1.46036         70.2551         11.5069         11.5069 
        1.46649         69.7637           11.39           11.39 
        1.47263         69.3031         11.2745         11.2745 
        1.47877         69.0468         11.1607         11.1607 
        1.48491         68.6049         11.0483         11.0483 
        1.49104         68.0852         10.9377         10.9377 
        1.49718         67.8051         10.8285         10.8285 
        1.50333         67.5362         10.7206         10.7206 
        1.50947          67.216         10.6144         10.6144 
         1.5156         66.9377         10.5098         10.5098 
        1.52172         66.2511         10.4066         10.4066 
        1.52787         66.0362         10.3046         10.3046 
          1.534         65.6246          10.204          10.204 
        1.54013         65.3886         10.1049         10.1049 
        1.54627         64.8118          10.007          10.007 
        1.55241         64.7909         9.91031         9.91031 
        1.55855         64.0322         9.81504         9.81504 
        1.56467           63.66         9.72129         9.72129 
         1.5708         63.3374         9.62849         9.62849 
        1.57695         63.0814         9.53677         9.53677 
        1.58308         62.7866         9.44645         9.44645 
        1.58922         62.5679         9.35723         9.35723 
        1.59535         62.3439          9.2692          9.2692 
         1.6015         61.7785         9.18217         9.18217 
        1.60764         61.4634         9.09631         9.09631 
        1.61376         61.2442         9.01177         9.01177 
        1.61989         60.7171         8.92824         8.92824 
        1.62604          60.562         8.84557         8.84557 
        1.63218         60.1857           8.764           8.764 
        1.63831         59.8941         8.68365         8.68365 
        1.64444         59.5674         8.60427         8.60427 
        1.65059         59.2131         8.52569         8.52569 
        1.65673         58.9677         8.44818         8.44818 
        1.66285         58.5489         8.37184         8.37184 
        1.66898         58.1416         8.29642         8.29642 
        1.67512          57.824         8.22178         8.22178 
        1.68127         57.6728         8.14799         8.14799 
         1.6874         57.2812         8.07527         8.07527 
        1.69353         56.9783         8.00348         8.00348 
        1.69967         56.6973         7.93239         7.93239 
        1.70581          56.415         7.86219         7.86219 
        1.71193         56.0037         7.79311         7.79311 
        1.71806         55.8624          7.7247          7.7247 
        1.72421         55.5232         7.65698         7.65698 
        1.73035         55.1846         7.59015         7.59015 
        1.73649         54.8834         7.52413         7.52413 
        1.74262         54.5797         7.45895         7.45895 
        1.74876         54.3778         7.39449         7.39449 
        1.75489         54.0644         7.33092         7.33092 
        1.76101         53.8149         7.26812         7.26812 
        1.76715         53.4566         7.20597         7.20597 
        1.77329         53.1764         7.14446         7.14446 
        1.77943         53.0562         7.08364         7.08364 
        1.78557         52.7356         7.02362         7.02362 
        1.79171         52.2975         6.96428         6.96428 
        1.79785         52.1145         6.90561         6.90561 
        1.80399         51.9477         6.84763         6.84763 
        1.81012         51.5436         6.79039         6.79039 
        1.81625         51.3343         6.73383         6.73383 
        1.82239         50.9514         6.67782         6.67782 
        1.82853         50.8157         6.62248         6.62248 
        1.83466         50.4317         6.56781         6.56781 
        1.84078         50.1932         6.51382         6.51382 
        1.84692         50.1334         6.46035         6.46035 
        1.85306         49.8419         6.40741         6.40741 
         1.8592         49.5112         6.35515         6.35515 
        1.86533         49.2737         6.30349         6.30349 
        1.87147         48.9712         6.25235         6.25235 
        1.87761         48.6304         6.20176         6.20176 
