# k  (h/Mpc)    P(k)  (Mpc/h)^3    P_linear(k)  (Mpc/h)^3     P_NL(k)  ShotnoiseSubtracted = false
     0.00783031         14387.1         14466.9         14466.9 
       0.013688         16427.5         16840.6         16840.6 
       0.019231         16017.3         16239.6         16239.6 
      0.0249154         14403.7         14335.6         14335.6 
      0.0312784         11806.1         11875.1         11875.1 
      0.0375637         9690.45         9809.32         9809.32 
      0.0433917         8418.95         8424.98         8424.98 
      0.0492413          7444.9         7496.93         7496.93 
      0.0555754         6833.12         6831.86         6831.86 
      0.0619321         6133.73         6307.36         6307.36 
       0.067871         5728.24         5803.87         5803.87 
      0.0738098         5219.76         5233.83         5233.83 
      0.0800417          4613.1         4590.48         4590.48 
      0.0862327         3999.76         3978.24         3978.24 
      0.0921407          3541.2         3483.56         3483.56 
      0.0982031         3205.88         3099.77         3099.77 
       0.104506         2881.89         2828.87         2828.87 
       0.110769         2714.69         2653.78         2653.78 
       0.116806         2617.85         2527.99         2527.99 
       0.122832         2462.72         2403.55         2403.55 
       0.129052         2306.94         2250.34         2250.34 
       0.135211         2184.63         2070.26         2070.26 
       0.141259         1977.87         1880.77         1880.77 
       0.147318         1795.38         1700.16         1700.16 
       0.153489         1663.43         1544.31         1544.31 
       0.159709         1583.62         1424.64         1424.64 
       0.165845         1456.67         1340.91         1340.91 
       0.171974         1428.89         1281.01         1281.01 
       0.178125         1380.73         1231.21         1231.21 
       0.184229          1280.9         1180.17         1180.17 
        0.19034         1248.52         1120.74         1120.74 
       0.196428         1197.67          1052.9          1052.9 
       0.202534         1105.85         980.865         980.865 
       0.208729         1075.52         910.591         910.591 
       0.214876         1018.23         849.478         849.478 
       0.220989         956.841         800.032         800.032 
       0.227147         931.717         761.194         761.194 
        0.23329         896.029         730.476         730.476 
       0.239377         886.541         703.933         703.933 
       0.245482         841.242         677.541         677.541 
       0.251667         808.014         648.819         648.819 
       0.257832         793.032         617.827         617.827 
       0.263955         749.334         585.912         585.912 
       0.270079         721.179         554.849         554.849 
        0.27624         689.319         526.267         526.267 
       0.282372         675.114         501.542         501.542 
        0.28843         665.978          480.81          480.81 
       0.294538         631.922         462.868         462.868 
       0.300721         615.778         446.561         446.561 
        0.30691         602.634         430.877         430.877 
       0.313033         575.099         415.216         415.216 
       0.319153         565.992         399.128         399.128 
       0.325316         555.981         382.769         382.769 
        0.33145         541.448         366.828         366.828 
       0.337538         520.956         351.909         351.909 
       0.343633         506.142         338.245         338.245 
       0.349808         493.759         325.789         325.789 
       0.355968         483.894         314.601         314.601 
       0.362074         465.954         304.375         304.375 
       0.368217         463.143         294.611         294.611 
       0.374374         454.667          285.04          285.04 
       0.380519         435.941         275.568         275.568 
       0.386598         430.997         266.302         266.302 
       0.392688         419.608         257.222         257.222 
        0.39888         408.895         248.371         248.371 
       0.405048         399.691         240.072         240.072 
       0.411186         398.576         232.356         232.356 
       0.417313         392.526         225.191         225.191 
       0.423458         381.702         218.448         218.448 
       0.429607         370.055         212.021         212.021 
       0.435692         364.456         205.886         205.886 
       0.441815         357.944         199.881         199.881 
       0.447964         349.535         193.983         193.983 
       0.454126         345.467         188.231         188.231 
       0.460267          339.52         182.702         182.702 
       0.466387         332.252         177.427         177.427 
        0.47254          327.82         172.369         172.369 
       0.478662         320.416         167.588         167.588 
       0.484765         315.745         163.057         163.057 
       0.490885         312.446         158.709         158.709 
       0.497035          305.56         154.497         154.497 
       0.503198         304.508          150.41          150.41 
       0.509342         297.417          146.46          146.46 
       0.515458         291.896         142.649         142.649 
       0.521598         287.184         138.941         138.941 
       0.527764         283.068         135.344         135.344 
       0.533884         280.697         131.907         131.907 
           0.54         276.452          128.61          128.61 
       0.546137         270.207         125.432         125.432 
       0.552299         268.816          122.36          122.36 
       0.558452         264.084         119.397         119.397 
       0.564573         262.212         116.543         116.543 
       0.570708         257.243         113.771         113.771 
       0.576825         252.707         111.093         111.093 
       0.582926         251.079         108.506         108.506 
       0.589034         246.482         105.996         105.996 
       0.595184         244.674         103.549         103.549 
       0.601379         240.701         101.163         101.163 
       0.607522         235.227         98.8738         98.8738 
       0.613639         234.275         96.6681         96.6681 
       0.619772         233.081         94.5279         94.5279 
       0.625918         228.694         92.4507         92.4507 
       0.632068         225.943         90.4357         90.4357 
       0.638161          224.29         88.4985         88.4985 
         0.6443         221.111         86.6027         86.6027 
       0.650464         217.884         84.7539         84.7539 
       0.656582         215.665         82.9712         82.9712 
       0.662703          214.36         81.2387         81.2387 
       0.668861         209.877         79.5462         79.5462 
       0.675024         209.177         77.9013         77.9013 
       0.681124         206.206         76.3207         76.3207 
       0.687237         204.697         74.7819         74.7819 
       0.693381         201.182         73.2792         73.2792 
       0.699536         200.314         71.8158         71.8158 
       0.705665         197.854         70.3989         70.3989 
       0.711789         195.249         69.0217         69.0217 
       0.717957         193.713         67.6717         67.6717 
        0.72409           190.9         66.3651         66.3651 
       0.730186         191.872         65.1008         65.1008 
       0.736317         188.627         63.8626         63.8626 
       0.742472         186.337         62.6519         62.6519 
       0.748622         183.958         61.4738         61.4738 
        0.75476         183.986         60.3286         60.3286 
       0.760888         181.417         59.2144         59.2144 
       0.767043         178.633         58.1241         58.1241 
       0.773185         177.091         57.0637         57.0637 
       0.779291         175.337         56.0359         56.0359 
       0.785407         174.128         55.0321         55.0321 
       0.791564         172.662         54.0467         54.0467 
       0.797719          169.71          53.086          53.086 
       0.803834         170.396         52.1548         52.1548 
       0.809972         168.083         51.2427         51.2427 
       0.816124         165.276         50.3505         50.3505 
       0.822261         164.338          49.482          49.482 
       0.828378          163.69         48.6367         48.6367 
       0.834502         161.705         47.8104         47.8104 
       0.840667          161.49          46.998          46.998 
       0.846816         158.362         46.2069         46.2069 
       0.852925         157.978         45.4391         45.4391 
       0.859047         156.333         44.6871         44.6871 
       0.865192         155.702         43.9497         43.9497 
       0.871341         153.907         43.2286         43.2286 
       0.877463         152.491         42.5269         42.5269 
       0.883569         152.194         41.8426         41.8426 
       0.889708         150.672           41.17           41.17 
       0.895864         148.916         40.5104         40.5104 
       0.902008         147.495         39.8667         39.8667 
       0.908149         146.158         39.2375         39.2375 
       0.914301         145.099         38.6208         38.6208 
       0.920448          144.97          38.018          38.018 
       0.926574          142.83         37.4302         37.4302 
       0.932687         142.565         36.8561         36.8561 
       0.938823         141.241          36.292          36.292 
       0.944975         140.529         35.7384         35.7384 
       0.951105         138.904         35.1984         35.1984 
       0.957225         137.989         34.6704         34.6704 
       0.963368         137.283         34.1516         34.1516 
       0.969511         135.543         33.6433         33.6433 
       0.975621         133.965         33.1481         33.1481 
       0.981748         133.641         32.6617         32.6617 
       0.987916         132.899         32.1819         32.1819 
        0.99406         131.806         31.7136         31.7136 
        1.00019         131.061         31.2556         31.2556 
        1.00632         129.959          30.807          30.807 
        1.01246         128.976         30.3666         30.3666 
        1.01859         127.914         29.9355         29.9355 
        1.02471         126.969         29.5133         29.5133 
        1.03085         126.044         29.0978         29.0978 
        1.03698         125.205         28.6912         28.6912 
        1.04314         124.795         28.2906         28.2906 
        1.04929         123.915         27.8986         27.8986 
        1.05541         123.178         27.5156         27.5156 
        1.06154         121.771         27.1389         27.1389 
        1.06769         121.213         26.7686         26.7686 
        1.07382         120.467         26.4065         26.4065 
        1.07993         119.409         26.0519         26.0519 
        1.08607         119.113         25.7024         25.7024 
        1.09222          117.81          25.359          25.359 
        1.09836         117.184         25.0222         25.0222 
        1.10449         116.456         24.6919         24.6919 
        1.11063         115.342         24.3673         24.3673 
        1.11677           114.9         24.0486         24.0486 
         1.1229         113.917         23.7362         23.7362 
        1.12903         113.006          23.429          23.429 
        1.13518         112.203         23.1271         23.1271 
        1.14131         111.863         22.8306         22.8306 
        1.14745         110.848         22.5395         22.5395 
        1.15359         110.054         22.2534         22.2534 
        1.15973         109.622         21.9722         21.9722 
        1.16584         108.771         21.6971         21.6971 
        1.17197         108.299         21.4263         21.4263 
        1.17811         107.332         21.1593         21.1593 
        1.18424         106.641         20.8977         20.8977 
        1.19038         106.072         20.6397         20.6397 
        1.19652         105.326         20.3861         20.3861 
        1.20267         104.568         20.1368         20.1368 
        1.20881         103.764         19.8918         19.8918 
        1.21495         103.516         19.6512         19.6512 
        1.22108         102.664         19.4146         19.4146 
         1.2272         102.156         19.1825         19.1825 
        1.23334         101.561         18.9536         18.9536 
        1.23949         100.956         18.7279         18.7279 
        1.24562          100.08         18.5065         18.5065 
        1.25174         99.9471         18.2889         18.2889 
        1.25789         98.9204         18.0743         18.0743 
        1.26402         98.5738         17.8634         17.8634 
        1.27014         97.7104         17.6564         17.6564 
        1.27628         97.3026         17.4521         17.4521 
        1.28244          96.797         17.2507         17.2507 
        1.28858         96.0913         17.0526         17.0526 
        1.29471         95.4588         16.8581         16.8581 
        1.30084         94.7058         16.6669         16.6669 
        1.30697         94.1911         16.4783         16.4783 
        1.31312         93.6584         16.2923         16.2923 
        1.31925         92.8708         16.1099         16.1099 
        1.32537         92.4473         15.9303         15.9303 
        1.33151         92.2501         15.7529         15.7529 
        1.33765         91.4038         15.5783         15.5783 
        1.34378         91.1343         15.4067         15.4067 
        1.34992         90.5174         15.2375         15.2375 
        1.35606          90.033         15.0705         15.0705 
         1.3622         89.6827         14.9063         14.9063 
        1.36833         88.8114          14.745          14.745 
        1.37445         88.5655         14.5861         14.5861 
        1.38059         87.9427          14.429          14.429 
        1.38675         87.3685         14.2739         14.2739 
        1.39288         86.7804         14.1217         14.1217 
        1.39901         86.3686         13.9718         13.9718 
        1.40515         85.8523         13.8237         13.8237 
         1.4113         85.3217         13.6779         13.6779 
        1.41742         85.0304         13.5346         13.5346 
        1.42355         84.5816         13.3932         13.3932 
         1.4297         83.9552         13.2534         13.2534 
        1.43585         83.5458         13.1156         13.1156 
        1.44198         82.7999         12.9803         12.9803 
        1.44809         82.3722         12.8471         12.8471 
        1.45423         82.2898         12.7153         12.7153 
        1.46036         81.4863         12.5856         12.5856 
        1.46649         81.0526         12.4577         12.4577 
        1.47263         80.4367         12.3315         12.3315 
        1.47877         80.1661          12.207          12.207 
        1.48491         79.7069          12.084          12.084 
        1.49104         79.0274          11.963          11.963 
        1.49718         78.6879         11.8436         11.8436 
        1.50333           78.32         11.7256         11.7256 
        1.50947         78.0203         11.6095         11.6095 
         1.5156         77.5632          11.495          11.495 
        1.52172         76.8404         11.3822         11.3822 
        1.52787         76.6676         11.2706         11.2706 
          1.534         76.1781         11.1606         11.1606 
        1.54013         75.7704         11.0522         11.0522 
        1.54627         75.2135         10.9451         10.9451 
        1.55241         75.1206         10.8394         10.8394 
        1.55855         74.3128         10.7352         10.7352 
        1.56467         73.9373         10.6326         10.6326 
         1.5708         73.3272         10.5311         10.5311 
        1.57695         73.1935         10.4308         10.4308 
        1.58308         72.7812          10.332          10.332 
        1.58922         72.5533         10.2344         10.2344 
        1.59535         72.2802         10.1381         10.1381 
         1.6015         71.5461          10.043          10.043 
        1.60764         71.1977         9.94904         9.94904 
        1.61376         70.9981         9.85658         9.85658 
        1.61989         70.4777         9.76522         9.76522 
        1.62604         70.1469         9.67481         9.67481 
        1.63218         69.6907         9.58559         9.58559 
        1.63831         69.3362          9.4977          9.4977 
        1.64444         68.9048         9.41088         9.41088 
        1.65059         68.5448         9.32494         9.32494 
        1.65673         68.3641         9.24015         9.24015 
        1.66285         67.8984         9.15666         9.15666 
        1.66898         67.3532         9.07417         9.07417 
        1.67512          66.946         8.99254         8.99254 
        1.68127         66.7424         8.91183         8.91183 
         1.6874         66.2979         8.83229         8.83229 
        1.69353         65.9589         8.75377         8.75377 
        1.69967           65.56         8.67601         8.67601 
        1.70581           65.29         8.59924         8.59924 
        1.71193         64.8291         8.52367         8.52367 
        1.71806         64.6024         8.44886         8.44886 
        1.72421         64.1746         8.37479         8.37479 
        1.73035         63.7828         8.30169         8.30169 
        1.73649         63.4518         8.22948         8.22948 
        1.74262         63.1732         8.15819         8.15819 
        1.74876         62.7505         8.08769         8.08769 
        1.75489          62.491         8.01816         8.01816 
        1.76101         62.2443         7.94947         7.94947 
        1.76715         61.7959         7.88149         7.88149 
        1.77329         61.4275         7.81422         7.81422 
        1.77943          61.252          7.7477          7.7477 
        1.78557         60.9319         7.68205         7.68205 
        1.79171         60.4075         7.61715         7.61715 
        1.79785         60.1491         7.55298         7.55298 
        1.80399         60.0055         7.48956         7.48956 
        1.81012         59.4675         7.42696         7.42696 
        1.81625         59.2212         7.36509         7.36509 
        1.82239         58.7709         7.30384         7.30384 
        1.82853         58.6356          7.2433          7.2433 
        1.83466         58.1813         7.18352         7.18352 
        1.84078         57.9275         7.12446         7.12446 
        1.84692         57.7818         7.06598         7.06598 
        1.85306         57.5243         7.00808         7.00808 
         1.8592          57.136         6.95091         6.95091 
        1.86533         56.7806         6.89442         6.89442 
        1.87147         56.4738         6.83848         6.83848 
        1.87761         55.9722         6.78314         6.78314 
