# k  (h/Mpc)    P(k)  (Mpc/h)^3    P_linear(k)  (Mpc/h)^3     P_NL(k)  ShotnoiseSubtracted = false
     0.00783031         9462.29         9519.76         9519.76 
       0.013688         10854.1         11083.3         11083.3 
       0.019231         10572.4         10688.4         10688.4 
      0.0249154         9478.27         9435.63         9435.63 
      0.0312784         7790.62          7816.3          7816.3 
      0.0375637         6401.53         6456.68         6456.68 
      0.0433917         5552.13         5545.53         5545.53 
      0.0492413         4913.28          4934.7          4934.7 
      0.0555754         4508.01         4496.95         4496.95 
      0.0619321         4064.05         4151.73         4151.73 
       0.067871          3789.5         3820.32         3820.32 
      0.0738098         3442.71         3445.11         3445.11 
      0.0800417         3040.02         3021.64         3021.64 
      0.0862327         2632.42         2618.64         2618.64 
      0.0921407         2321.06         2293.02         2293.02 
      0.0982031         2094.23          2040.4          2040.4 
       0.104506         1884.52         1862.09         1862.09 
       0.110769         1773.92         1746.84         1746.84 
       0.116806         1710.23         1664.04         1664.04 
       0.122832         1608.22         1582.12         1582.12 
       0.129052         1510.57         1481.27         1481.27 
       0.135211         1419.49         1362.74         1362.74 
       0.141259         1284.72         1238.01         1238.01 
       0.147318          1160.8         1119.12         1119.12 
       0.153489         1071.02         1016.53         1016.53 
       0.159709         1012.12         937.765         937.765 
       0.165845         931.778         882.648         882.648 
       0.171974         914.183         843.221         843.221 
       0.178125         880.135         810.441         810.441 
       0.184229         822.699         776.842         776.842 
        0.19034         797.475         737.723         737.723 
       0.196428         760.661         693.067         693.067 
       0.202534         699.272         645.651         645.651 
       0.208729         675.985         599.394         599.394 
       0.214876         640.092         559.167         559.167 
       0.220989         596.527         526.618         526.618 
       0.227147         581.512         501.054         501.054 
        0.23329         559.595         480.834         480.834 
       0.239377          549.68         463.362         463.362 
       0.245482         521.799          445.99          445.99 
       0.251667         499.584         427.084         427.084 
       0.257832         490.448         406.683         406.683 
       0.263955          460.75         385.675         385.675 
       0.270079         440.909         365.228         365.228 
        0.27624         420.659         346.414         346.414 
       0.282372         409.028         330.139         330.139 
        0.28843         404.578         316.492         316.492 
       0.294538         383.836         304.682         304.682 
       0.300721         371.189         293.948         293.948 
        0.30691          364.42         283.624         283.624 
       0.313033         347.233         273.315         273.315 
       0.319153         340.574         262.725         262.725 
       0.325316         331.847         251.957         251.957 
        0.33145          322.17         241.464         241.464 
       0.337538         309.795         231.644         231.644 
       0.343633         299.647         222.649         222.649 
       0.349808         291.193          214.45          214.45 
       0.355968         284.791         207.085         207.085 
       0.362074         275.684         200.354         200.354 
       0.368217         272.125         193.927         193.927 
       0.374374         265.523         187.627         187.627 
       0.380519         254.407         181.392         181.392 
       0.386598         250.174         175.293         175.293 
       0.392688         242.938         169.316         169.316 
        0.39888         237.208          163.49          163.49 
       0.405048         231.635         158.027         158.027 
       0.411186         229.456         152.948         152.948 
       0.417313         224.545         148.231         148.231 
       0.423458         218.548         143.793         143.793 
       0.429607         212.458         139.562         139.562 
       0.435692         208.747         135.524         135.524 
       0.441815         204.374         131.572         131.572 
       0.447964         198.177         127.689         127.689 
       0.454126         195.084         123.903         123.903 
       0.460267         192.463         120.263         120.263 
       0.466387         187.874         116.791         116.791 
        0.47254         185.423         113.462         113.462 
       0.478662         179.789         110.315         110.315 
       0.484765         177.176         107.332         107.332 
       0.490885         174.309          104.47          104.47 
       0.497035         171.762         101.697         101.697 
       0.503198         169.511         99.0068         99.0068 
       0.509342         165.003         96.4073         96.4073 
       0.515458         162.396         93.8986         93.8986 
       0.521598         158.479          91.458          91.458 
       0.527764         156.962         89.0902         89.0902 
       0.533884         155.751         86.8275         86.8275 
           0.54         151.939         84.6574         84.6574 
       0.546137         148.362         82.5656         82.5656 
       0.552299         146.591          80.543          80.543 
       0.558452         143.987         78.5928         78.5928 
       0.564573         143.085          76.714          76.714 
       0.570708         139.376         74.8894         74.8894 
       0.576825         137.474         73.1269         73.1269 
       0.582926         135.982          71.424          71.424 
       0.589034         133.632         69.7719         69.7719 
       0.595184         132.184          68.161          68.161 
       0.601379         129.604         66.5905         66.5905 
       0.607522         126.795         65.0835         65.0835 
       0.613639         125.836         63.6316         63.6316 
       0.619772          124.17         62.2229         62.2229 
       0.625918         123.005         60.8555         60.8555 
       0.632068         120.117         59.5292         59.5292 
       0.638161         118.928          58.254          58.254 
         0.6443         118.012         57.0061         57.0061 
       0.650464         115.462         55.7891         55.7891 
       0.656582         114.793         54.6156         54.6156 
       0.662703         113.413         53.4753         53.4753 
       0.668861         110.991         52.3611         52.3611 
       0.675024         110.874         51.2784         51.2784 
       0.681124         108.982          50.238          50.238 
       0.687237         107.504         49.2251         49.2251 
       0.693381          106.19         48.2359         48.2359 
       0.699536         105.058         47.2726         47.2726 
       0.705665         103.718           46.34           46.34 
       0.711789         102.178         45.4334         45.4334 
       0.717957         100.984         44.5448         44.5448 
        0.72409         99.8729         43.6847         43.6847 
       0.730186          99.662         42.8525         42.8525 
       0.736317         98.0912         42.0374         42.0374 
       0.742472         96.3956         41.2405         41.2405 
       0.748622         94.9166          40.465          40.465 
        0.75476         95.1157         39.7112         39.7112 
       0.760888         94.0128         38.9778         38.9778 
       0.767043          92.164         38.2601         38.2601 
       0.773185         91.0167         37.5621         37.5621 
       0.779291         90.0558         36.8856         36.8856 
       0.785407         89.2298         36.2248         36.2248 
       0.791564         88.5668         35.5762         35.5762 
       0.797719         87.1856         34.9438         34.9438 
       0.803834         86.9526         34.3308         34.3308 
       0.809972         86.1116         33.7305         33.7305 
       0.816124         84.7109         33.1432         33.1432 
       0.822261         83.8655         32.5715         32.5715 
       0.828378         83.6028          32.015          32.015 
       0.834502         82.5087         31.4711         31.4711 
       0.840667         81.8892         30.9364         30.9364 
       0.846816         80.9421         30.4156         30.4156 
       0.852925         80.0451         29.9102         29.9102 
       0.859047          79.477         29.4152         29.4152 
       0.865192          78.625         28.9298         28.9298 
       0.871341         77.8469         28.4551         28.4551 
       0.877463         77.1584         27.9933         27.9933 
       0.883569         76.9907         27.5429         27.5429 
       0.889708         76.1737         27.1001         27.1001 
       0.895864         75.4914         26.6659         26.6659 
       0.902008         74.5335         26.2422         26.2422 
       0.908149         73.6089          25.828          25.828 
       0.914301         73.3948         25.4221         25.4221 
       0.920448         73.2636         25.0253         25.0253 
       0.926574         71.6342         24.6384         24.6384 
       0.932687         71.4697         24.2605         24.2605 
       0.938823         70.9197         23.8891         23.8891 
       0.944975         70.0784         23.5247         23.5247 
       0.951105         69.4315         23.1693         23.1693 
       0.957225         69.2188         22.8218         22.8218 
       0.963368         68.4352         22.4802         22.4802 
       0.969511         67.9822         22.1456         22.1456 
       0.975621         67.1519         21.8197         21.8197 
       0.981748         66.6767         21.4995         21.4995 
       0.987916          66.136         21.1837         21.1837 
        0.99406         65.9174         20.8754         20.8754 
        1.00019         65.0504         20.5739         20.5739 
        1.00632         64.4958         20.2787         20.2787 
        1.01246         64.1313         19.9888         19.9888 
        1.01859         63.8015          19.705          19.705 
        1.02471         63.2287         19.4271         19.4271 
        1.03085         62.6073         19.1536         19.1536 
        1.03698         62.1528         18.8859         18.8859 
        1.04314         61.6738         18.6222         18.6222 
        1.04929         61.2481         18.3642         18.3642 
        1.05541         60.7766         18.1121         18.1121 
        1.06154         60.3238         17.8641         17.8641 
        1.06769         59.8784         17.6204         17.6204 
        1.07382          59.289         17.3821         17.3821 
        1.07993         59.0804         17.1487         17.1487 
        1.08607         58.5986         16.9186         16.9186 
        1.09222         58.2917         16.6925         16.6925 
        1.09836         57.7603         16.4708         16.4708 
        1.10449         57.3806         16.2534         16.2534 
        1.11063         56.9173         16.0397         16.0397 
        1.11677         56.6444           15.83           15.83 
         1.1229         56.0488         15.6243         15.6243 
        1.12903           55.82         15.4221         15.4221 
        1.13518         55.4752         15.2234         15.2234 
        1.14131         55.0073         15.0282         15.0282 
        1.14745         54.7243         14.8366         14.8366 
        1.15359         54.0055         14.6483         14.6483 
        1.15973         53.9788         14.4632         14.4632 
        1.16584          53.562         14.2821         14.2821 
        1.17197         53.1521         14.1038         14.1038 
        1.17811         52.7759         13.9281         13.9281 
        1.18424         52.1778         13.7559         13.7559 
        1.19038         52.0727          13.586          13.586 
        1.19652         51.7615         13.4191         13.4191 
        1.20267         51.3204         13.2551         13.2551 
        1.20881         50.9934         13.0937         13.0937 
        1.21495         50.6729         12.9354         12.9354 
        1.22108         50.5552         12.7796         12.7796 
         1.2272         49.9816         12.6268         12.6268 
        1.23334         49.8173         12.4762         12.4762 
        1.23949         49.4467         12.3276         12.3276 
        1.24562         49.0433         12.1818         12.1818 
        1.25174         48.8111         12.0387         12.0387 
        1.25789         48.6202         11.8974         11.8974 
        1.26402         48.2563         11.7586         11.7586 
        1.27014         48.0325         11.6223         11.6223 
        1.27628         47.5846         11.4878         11.4878 
        1.28244          47.549         11.3552         11.3552 
        1.28858         47.0865         11.2249         11.2249 
        1.29471         46.7087         11.0968         11.0968 
        1.30084         46.2727         10.9709         10.9709 
        1.30697         46.3377         10.8468         10.8468 
        1.31312         45.9824         10.7244         10.7244 
        1.31925         45.5764         10.6043         10.6043 
        1.32537         45.3427         10.4861         10.4861 
        1.33151         45.0761         10.3693         10.3693 
        1.33765         44.8422         10.2544         10.2544 
        1.34378         44.5569         10.1414         10.1414 
        1.34992         44.3282         10.0301         10.0301 
        1.35606         43.9502         9.92015         9.92015 
         1.3622         43.8173         9.81207         9.81207 
        1.36833         43.5839         9.70585         9.70585 
        1.37445         43.1603         9.60127         9.60127 
        1.38059           43.03          9.4979          9.4979 
        1.38675         42.6366          9.3958          9.3958 
        1.39288         42.5395         9.29562         9.29562 
        1.39901         42.1615         9.19693         9.19693 
        1.40515         42.0232         9.09946         9.09946 
         1.4113         41.8563         9.00344         9.00344 
        1.41742         41.5251         8.90916         8.90916 
        1.42355         41.3481         8.81606         8.81606 
         1.4297         41.1596         8.72401         8.72401 
        1.43585         40.8695         8.63331         8.63331 
        1.44198         40.5801         8.54424         8.54424 
        1.44809         40.2698          8.4566          8.4566 
        1.45423         40.1628         8.36986         8.36986 
        1.46036         39.9811         8.28449         8.28449 
        1.46649         39.6673         8.20027         8.20027 
        1.47263         39.4749         8.11716         8.11716 
        1.47877         39.2859         8.03523         8.03523 
        1.48491         39.0183          7.9543          7.9543 
        1.49104         38.7786         7.87466         7.87466 
        1.49718         38.6309         7.79604         7.79604 
        1.50333         38.4544         7.71837         7.71837 
        1.50947         38.1768         7.64191         7.64191 
         1.5156         38.0687         7.56659         7.56659 
        1.52172         37.7386         7.49229         7.49229 
        1.52787         37.6013         7.41884         7.41884 
          1.534         37.3235         7.34646         7.34646 
        1.54013         37.3336         7.27512         7.27512 
        1.54627         36.9437         7.20459         7.20459 
        1.55241         36.7986         7.13499         7.13499 
        1.55855         36.5957          7.0664          7.0664 
        1.56467         36.3023          6.9989          6.9989 
         1.5708         36.2953          6.9321          6.9321 
        1.57695         36.0455         6.86606         6.86606 
        1.58308         35.8225         6.80103         6.80103 
        1.58922         35.6124          6.7368          6.7368 
        1.59535         35.5658         6.67342         6.67342 
         1.6015         35.4332         6.61077         6.61077 
        1.60764         35.1179         6.54895         6.54895 
        1.61376         34.9394         6.48808         6.48808 
        1.61989         34.6629         6.42794         6.42794 
        1.62604         34.5513         6.36843         6.36843 
        1.63218         34.2721          6.3097          6.3097 
        1.63831         34.2135         6.25185         6.25185 
        1.64444         34.0703          6.1947          6.1947 
        1.65059         33.8032         6.13813         6.13813 
        1.65673         33.6591         6.08232         6.08232 
        1.66285         33.5391         6.02736         6.02736 
        1.66898         33.3003         5.97306         5.97306 
        1.67512         33.1076         5.91933         5.91933 
        1.68127         33.0126          5.8662          5.8662 
         1.6874          32.872         5.81385         5.81385 
        1.69353         32.6745         5.76216         5.76216 
        1.69967         32.5384         5.71098         5.71098 
        1.70581         32.3176         5.66044         5.66044 
        1.71193         32.1728          5.6107          5.6107 
        1.71806         32.0482         5.56145         5.56145 
        1.72421         31.8325          5.5127          5.5127 
        1.73035          31.706         5.46458         5.46458 
        1.73649         31.4873         5.41705         5.41705 
        1.74262         31.2776         5.37012         5.37012 
        1.74876          31.346         5.32371         5.32371 
        1.75489          31.039         5.27795         5.27795 
        1.76101         30.9533         5.23273         5.23273 
        1.76715         30.7575         5.18798         5.18798 
        1.77329         30.5172          5.1437          5.1437 
        1.77943         30.5495         5.09992         5.09992 
        1.78557         30.3665          5.0567          5.0567 
        1.79171         30.1635         5.01398         5.01398 
        1.79785         30.0678         4.97174         4.97174 
        1.80399         29.8617            4.93            4.93 
        1.81012         29.7327         4.88879         4.88879 
        1.81625         29.5392         4.84806         4.84806 
        1.82239         29.4087         4.80774         4.80774 
        1.82853         29.3127          4.7679          4.7679 
        1.83466         29.1488         4.72854         4.72854 
        1.84078          29.005         4.68967         4.68967 
        1.84692          28.851         4.65117         4.65117 
        1.85306         28.7024         4.61306         4.61306 
         1.8592         28.5621         4.57543         4.57543 
        1.86533         28.4639         4.53824         4.53824 
        1.87147         28.3251         4.50142         4.50142 
        1.87761         28.1664           4.465           4.465 
