# k  (h/Mpc)    Pcb(k)  (Mpc/h)^3    Pcb_linear(k) (Mpc/h)^3    Pcb_NL(k) (Mpc/h)^3   ShotnoiseSubtracted = false
     0.00783031         10777.8         10841.7         10841.7 
       0.013688           12348         12621.9         12621.9 
       0.019231         12030.9         12171.9         12171.9 
      0.0249154         10794.8         10745.1         10745.1 
      0.0312784         8866.24         8901.01         8901.01 
      0.0375637         7283.15         7352.69         7352.69 
      0.0433917         6319.78         6315.08         6315.08 
      0.0492413         5591.44         5619.48         5619.48 
      0.0555754         5130.98         5120.98         5120.98 
      0.0619321         4620.14         4727.84         4727.84 
       0.067871         4310.11         4350.44         4350.44 
      0.0738098         3918.64         3923.16         3923.16 
      0.0800417         3461.17         3440.93         3440.93 
      0.0862327         2997.98         2982.01         2982.01 
      0.0921407         2646.11         2611.21         2611.21 
      0.0982031         2389.66         2323.53         2323.53 
       0.104506         2149.62         2120.47         2120.47 
       0.110769         2023.87         1989.23         1989.23 
       0.116806          1951.6         1894.94         1894.94 
       0.122832         1835.12         1801.66         1801.66 
       0.129052         1722.67         1686.81         1686.81 
       0.135211         1622.09         1551.83         1551.83 
       0.141259         1468.17         1409.79         1409.79 
       0.147318         1327.93         1274.41         1274.41 
       0.153489         1226.61         1157.59         1157.59 
       0.159709         1161.51         1067.89         1067.89 
       0.165845         1068.83         1005.12         1005.12 
       0.171974         1048.91         960.226         960.226 
       0.178125         1010.76         922.897         922.897 
       0.184229         942.799         884.636         884.636 
        0.19034         915.215          840.09          840.09 
       0.196428         874.368         789.235         789.235 
       0.202534         804.448         735.241         735.241 
       0.208729         779.233         682.565         682.565 
       0.214876         737.873         636.755         636.755 
       0.220989         688.947         599.692         599.692 
       0.227147         671.562         570.581         570.581 
        0.23329          646.17         547.554         547.554 
       0.239377         635.999         527.658         527.658 
       0.245482         603.509         507.876         507.876 
       0.251667          578.34         486.346         486.346 
       0.257832         567.904         463.114         463.114 
       0.263955         534.208         439.191         439.191 
       0.270079         511.917         415.906         415.906 
        0.27624         488.683         394.483         394.483 
       0.282372         476.102         375.949         375.949 
        0.28843         470.827         360.409         360.409 
       0.294538         446.496         346.959         346.959 
       0.300721         432.697         334.736         334.736 
        0.30691         424.578          322.98          322.98 
       0.313033         404.567          311.24          311.24 
       0.319153         397.088         299.181         299.181 
       0.325316         387.961         286.917         286.917 
        0.33145         377.079         274.969         274.969 
       0.337538         362.562         263.786         263.786 
       0.343633         351.016         253.543         253.543 
       0.349808         341.478         244.207         244.207 
       0.355968         334.248          235.82          235.82 
       0.362074          322.92         228.155         228.155 
       0.368217         319.493         220.836         220.836 
       0.374374         312.204         213.662         213.662 
       0.380519         299.183         206.562         206.562 
       0.386598         294.666         199.617         199.617 
       0.392688         286.416          192.81          192.81 
        0.39888         279.366         186.176         186.176 
       0.405048         272.942         179.954         179.954 
       0.411186         270.999         174.171         174.171 
       0.417313         265.664           168.8           168.8 
       0.423458         258.485         163.746         163.746 
       0.429607         251.021         158.928         158.928 
       0.435692         246.729         154.329         154.329 
       0.441815          241.95         149.828         149.828 
       0.447964         234.981         145.407         145.407 
       0.454126         231.636         141.095         141.095 
       0.460267         228.213         136.951         136.951 
       0.466387         222.926         132.997         132.997 
        0.47254         219.977         129.206         129.206 
       0.478662         213.791         125.622         125.622 
       0.484765         210.697         122.225         122.225 
       0.490885          207.68         118.966         118.966 
       0.497035         204.191         115.809         115.809 
       0.503198         202.182         112.745         112.745 
       0.509342         196.909         109.785         109.785 
       0.515458         193.728         106.928         106.928 
       0.521598         189.318         104.149         104.149 
       0.527764         187.399         101.452         101.452 
       0.533884         185.977         98.8758         98.8758 
           0.54         181.887         96.4042         96.4042 
       0.546137           177.6         94.0223         94.0223 
       0.552299         175.863          91.719          91.719 
       0.558452         172.754         89.4982         89.4982 
       0.564573         171.634         87.3588         87.3588 
       0.570708          167.46         85.2809         85.2809 
       0.576825         165.009         83.2739         83.2739 
       0.582926         163.328         81.3346         81.3346 
       0.589034         160.548         79.4534         79.4534 
       0.595184         158.998         77.6189         77.6189 
       0.601379         156.108         75.8305         75.8305 
       0.607522         152.607         74.1144         74.1144 
       0.613639         151.587         72.4611         72.4611 
       0.619772         149.972         70.8568         70.8568 
       0.625918          148.29         69.2997         69.2997 
       0.632068          145.02         67.7894         67.7894 
       0.638161         143.853         66.3372         66.3372 
         0.6443         142.503         64.9162         64.9162 
       0.650464         139.625         63.5303         63.5303 
       0.656582         138.646          62.194          62.194 
       0.662703         137.237         60.8954         60.8954 
       0.668861         134.325         59.6267         59.6267 
       0.675024         134.133         58.3937         58.3937 
       0.681124         131.991         57.2089         57.2089 
       0.687237         130.477         56.0555         56.0555 
       0.693381         128.621         54.9291         54.9291 
       0.699536         127.471         53.8321         53.8321 
       0.705665         125.923           52.77           52.77 
       0.711789         124.066         51.7377         51.7377 
       0.717957         122.753         50.7257         50.7257 
        0.72409         121.269         49.7464         49.7464 
       0.730186         121.318         48.7987         48.7987 
       0.736317         119.431         47.8705         47.8705 
       0.742472         117.426          46.963          46.963 
       0.748622         115.644         46.0799         46.0799 
        0.75476         116.039         45.2215         45.2215 
       0.760888         114.514         44.3863         44.3863 
       0.767043         112.377          43.569          43.569 
       0.773185         111.109         42.7742         42.7742 
       0.779291         109.942         42.0038         42.0038 
       0.785407          109.05         41.2513         41.2513 
       0.791564         108.108         40.5127         40.5127 
       0.797719         106.411         39.7925         39.7925 
       0.803834         106.396         39.0945         39.0945 
       0.809972         105.275         38.4108         38.4108 
       0.816124         103.477          37.742          37.742 
       0.822261         102.675          37.091          37.091 
       0.828378         102.289         36.4574         36.4574 
       0.834502         101.026          35.838          35.838 
       0.840667         100.392         35.2291         35.2291 
       0.846816         99.0491         34.6361         34.6361 
       0.852925         98.1408         34.0605         34.0605 
       0.859047         97.2794         33.4968         33.4968 
       0.865192         96.4939         32.9441         32.9441 
       0.871341          95.554         32.4035         32.4035 
       0.877463         94.6997         31.8776         31.8776 
       0.883569         94.5171         31.3647         31.3647 
       0.889708         93.5362         30.8604         30.8604 
       0.895864         92.6255          30.366          30.366 
       0.902008         91.4567         29.8835         29.8835 
       0.908149         90.3992         29.4119         29.4119 
       0.914301         90.1235         28.9496         28.9496 
       0.920448         90.0152         28.4977         28.4977 
       0.926574         88.1111         28.0571         28.0571 
       0.932687         87.9976         27.6268         27.6268 
       0.938823         87.3236          27.204          27.204 
       0.944975          86.415          26.789          26.789 
       0.951105          85.564         26.3842         26.3842 
       0.957225         85.2622         25.9885         25.9885 
       0.963368         84.3337         25.5995         25.5995 
       0.969511         83.7665         25.2185         25.2185 
       0.975621         82.6734         24.8474         24.8474 
       0.981748         82.2103         24.4827         24.4827 
       0.987916         81.6012         24.1231         24.1231 
        0.99406         81.2888         23.7721         23.7721 
        1.00019         80.3654         23.4288         23.4288 
        1.00632         79.6405         23.0925         23.0925 
        1.01246         79.1753         22.7624         22.7624 
        1.01859         78.7452         22.4392         22.4392 
        1.02471         78.1508         22.1228         22.1228 
        1.03085         77.3601         21.8113         21.8113 
        1.03698         76.7462         21.5065         21.5065 
        1.04314         76.2553         21.2062         21.2062 
        1.04929         75.8125         20.9124         20.9124 
        1.05541         75.1585         20.6253         20.6253 
        1.06154          74.556         20.3429         20.3429 
        1.06769         74.1194         20.0654         20.0654 
        1.07382         73.5006          19.794          19.794 
        1.07993         73.1414         19.5282         19.5282 
        1.08607         72.5993         19.2662         19.2662 
        1.09222         72.1417         19.0087         19.0087 
        1.09836          71.503         18.7563         18.7563 
        1.10449         71.0507         18.5087         18.5087 
        1.11063         70.5109         18.2654         18.2654 
        1.11677         70.1276         18.0265         18.0265 
         1.1229         69.4094         17.7923         17.7923 
        1.12903         69.0862         17.5621         17.5621 
        1.13518         68.5925         17.3357         17.3357 
        1.14131         68.1343         17.1135         17.1135 
        1.14745          67.832         16.8953         16.8953 
        1.15359         66.9714         16.6809         16.6809 
        1.15973          66.853           16.47           16.47 
        1.16584         66.3704         16.2638         16.2638 
        1.17197         65.9693         16.0609         16.0609 
        1.17811         65.4202         15.8607         15.8607 
        1.18424         64.8574         15.6646         15.6646 
        1.19038         64.6764         15.4712         15.4712 
        1.19652         64.2591         15.2812         15.2812 
        1.20267         63.7475         15.0943         15.0943 
        1.20881         63.2927         14.9106         14.9106 
        1.21495         62.8927         14.7303         14.7303 
        1.22108         62.6944         14.5529         14.5529 
         1.2272         62.0982         14.3789         14.3789 
        1.23334         61.9155         14.2073         14.2073 
        1.23949         61.4233         14.0381         14.0381 
        1.24562         60.8733         13.8722         13.8722 
        1.25174         60.6796         13.7091         13.7091 
        1.25789         60.3525         13.5482         13.5482 
        1.26402          59.965         13.3902         13.3902 
        1.27014         59.5617          13.235          13.235 
        1.27628         59.1446         13.0819         13.0819 
        1.28244         59.0803         12.9308         12.9308 
        1.28858         58.5029         12.7824         12.7824 
        1.29471         58.0831         12.6366         12.6366 
        1.30084         57.5598         12.4933         12.4933 
        1.30697         57.5442         12.3519         12.3519 
        1.31312         57.1717         12.2125         12.2125 
        1.31925         56.6478         12.0757         12.0757 
        1.32537         56.3998         11.9412         11.9412 
        1.33151         56.1549         11.8082         11.8082 
        1.33765         55.7602         11.6773         11.6773 
        1.34378         55.3943         11.5486         11.5486 
        1.34992         55.1906         11.4218         11.4218 
        1.35606         54.7599         11.2967         11.2967 
         1.3622         54.5798         11.1736         11.1736 
        1.36833         54.1889         11.0526         11.0526 
        1.37445         53.7847         10.9335         10.9335 
        1.38059         53.5802         10.8158         10.8158 
        1.38675         53.0759         10.6996         10.6996 
        1.39288         52.9109         10.5855         10.5855 
        1.39901         52.5078         10.4731         10.4731 
        1.40515         52.2766         10.3621         10.3621 
         1.4113         52.0303         10.2527         10.2527 
        1.41742         51.6581         10.1454         10.1454 
        1.42355         51.5204         10.0394         10.0394 
         1.4297         51.1982         9.93454         9.93454 
        1.43585         50.8838         9.83126         9.83126 
        1.44198         50.5294         9.72983         9.72983 
        1.44809         50.1125         9.63002         9.63002 
        1.45423         50.0528         9.53124         9.53124 
        1.46036         49.7633         9.43403         9.43403 
        1.46649         49.3761         9.33813         9.33813 
        1.47263         49.1234         9.24349         9.24349 
        1.47877         48.8953         9.15019         9.15019 
        1.48491         48.5311         9.05803         9.05803 
        1.49104         48.2685         8.96733         8.96733 
        1.49718         48.0663          8.8778          8.8778 
        1.50333         47.8546         8.78935         8.78935 
        1.50947         47.5695         8.70228         8.70228 
         1.5156         47.4268         8.61652         8.61652 
        1.52172          46.986         8.53191         8.53191 
        1.52787         46.7596         8.44827         8.44827 
          1.534         46.4437         8.36584         8.36584 
        1.54013         46.4267          8.2846          8.2846 
        1.54627         45.9439         8.20429         8.20429 
        1.55241         45.8455         8.12503         8.12503 
        1.55855         45.4658         8.04692         8.04692 
        1.56467         45.1171         7.97006         7.97006 
         1.5708         45.1128         7.89398         7.89398 
        1.57695         44.7822         7.81878         7.81878 
        1.58308         44.5759         7.74473         7.74473 
        1.58922         44.3174         7.67159         7.67159 
        1.59535         44.2751         7.59941         7.59941 
         1.6015         44.0273         7.52807         7.52807 
        1.60764         43.7067         7.45767         7.45767 
        1.61376         43.4869         7.38836         7.38836 
        1.61989         43.0991         7.31987         7.31987 
        1.62604         43.0015          7.2521          7.2521 
        1.63218         42.7086         7.18523         7.18523 
        1.63831         42.5681         7.11935         7.11935 
        1.64444         42.4084         7.05427         7.05427 
        1.65059         42.0689         6.98984         6.98984 
        1.65673         41.8717         6.92629         6.92629 
        1.66285         41.6649         6.86371         6.86371 
        1.66898         41.3844         6.80188         6.80188 
        1.67512         41.1406         6.74068         6.74068 
        1.68127         41.0901         6.68019         6.68019 
         1.6874         40.8534         6.62056         6.62056 
        1.69353         40.5725         6.56171         6.56171 
        1.69967         40.4218         6.50342         6.50342 
        1.70581         40.1712         6.44587         6.44587 
        1.71193         39.9573         6.38923         6.38923 
        1.71806         39.8126         6.33315         6.33315 
        1.72421         39.5701         6.27763         6.27763 
        1.73035          39.405         6.22284         6.22284 
        1.73649         39.1266         6.16871         6.16871 
        1.74262         38.8685         6.11527         6.11527 
        1.74876         38.9206         6.06242         6.06242 
        1.75489         38.5805          6.0103          6.0103 
        1.76101         38.4548         5.95882         5.95882 
        1.76715          38.214         5.90786         5.90786 
        1.77329         37.9454         5.85743         5.85743 
        1.77943         37.9404         5.80757         5.80757 
        1.78557          37.656         5.75836         5.75836 
        1.79171         37.4419         5.70971         5.70971 
        1.79785         37.3031         5.66161         5.66161 
        1.80399         37.0711         5.61407         5.61407 
        1.81012          36.861         5.56715         5.56715 
        1.81625         36.7047         5.52077         5.52077 
        1.82239         36.4915         5.47486         5.47486 
        1.82853         36.3614         5.42948         5.42948 
        1.83466          36.169         5.38467         5.38467 
        1.84078         35.9741          5.3404          5.3404 
        1.84692         35.8454         5.29656         5.29656 
        1.85306         35.6372         5.25316         5.25316 
         1.8592         35.4016         5.21031         5.21031 
        1.86533         35.3063         5.16796         5.16796 
        1.87147         35.1075         5.12603         5.12603 
