# k  (h/Mpc)    Pcb(k)  (Mpc/h)^3    Pcb_linear(k) (Mpc/h)^3    Pcb_NL(k) (Mpc/h)^3   ShotnoiseSubtracted = false
     0.00783031         13898.2         13976.1         13976.1 
       0.013688         15877.7         16269.5         16269.5 
       0.019231         15479.6           15689           15689 
      0.0249154         13915.4         13849.6         13849.6 
      0.0312784         11409.5         11472.5         11472.5 
      0.0375637         9366.06         9476.82         9476.82 
      0.0433917         8135.63         8139.41         8139.41 
      0.0492413         7194.89         7242.83         7242.83 
      0.0555754         6603.58          6600.3          6600.3 
      0.0619321         5930.47         6093.58         6093.58 
       0.067871         5537.63         5607.15         5607.15 
      0.0738098         5044.18         5056.44         5056.44 
      0.0800417         4457.57          4434.9          4434.9 
      0.0862327         3864.23         3843.41         3843.41 
      0.0921407         3419.49         3365.49         3365.49 
      0.0982031          3094.5         2994.71         2994.71 
       0.104506         2781.99         2732.99         2732.99 
       0.110769         2620.39         2563.84         2563.84 
       0.116806         2527.02         2442.31         2442.31 
       0.122832         2376.98         2322.09         2322.09 
       0.129052         2227.45         2174.07         2174.07 
       0.135211         2107.47         2000.09         2000.09 
       0.141259         1907.91         1817.02         1817.02 
       0.147318         1730.77         1642.54         1642.54 
       0.153489         1602.82         1491.97         1491.97 
       0.159709         1524.68         1376.36         1376.36 
       0.165845         1402.43         1295.46         1295.46 
       0.171974         1375.92          1237.6          1237.6 
       0.178125         1328.94         1189.48         1189.48 
       0.184229         1233.85         1140.17         1140.17 
        0.19034         1201.88         1082.76         1082.76 
       0.196428         1152.24         1017.21         1017.21 
       0.202534         1063.17         947.621         947.621 
       0.208729         1033.51         879.729         879.729 
       0.214876         978.491         820.687         820.687 
       0.220989         918.483         772.917         772.917 
       0.227147         894.571         735.398         735.398 
        0.23329         860.385         705.719         705.719 
       0.239377         850.622         680.076         680.076 
       0.245482         807.073          654.58          654.58 
       0.251667          774.94         626.831         626.831 
       0.257832         760.701         596.888         596.888 
       0.263955         718.232         566.054         566.054 
       0.270079         690.754         536.043         536.043 
        0.27624         660.108         508.432         508.432 
       0.282372         645.986         484.544         484.544 
        0.28843         637.605         464.515         464.515 
       0.294538         604.837         447.181         447.181 
       0.300721         588.904         431.426         431.426 
        0.30691         576.628         416.275         416.275 
       0.313033         550.072         401.144         401.144 
       0.319153         541.106         385.602         385.602 
       0.325316         531.187         369.795         369.795 
        0.33145         517.199         354.396         354.396 
       0.337538         497.523         339.983         339.983 
       0.343633         483.088         326.781         326.781 
       0.349808         471.066         314.748         314.748 
       0.355968         461.611         303.939         303.939 
       0.362074         444.612         294.059         294.059 
       0.368217         441.691         284.627         284.627 
       0.374374         433.316          275.38          275.38 
       0.380519         415.403         266.228         266.228 
       0.386598         410.471         257.277         257.277 
       0.392688         399.573         248.504         248.504 
        0.39888         389.327         239.954         239.954 
       0.405048         380.567         231.935         231.935 
       0.411186         379.325         224.482         224.482 
       0.417313         373.318         217.558         217.558 
       0.423458         363.043         211.045         211.045 
       0.429607         352.012         204.835         204.835 
       0.435692         346.543         198.908         198.908 
       0.441815          340.35         193.107         193.107 
       0.447964         332.057         187.409         187.409 
       0.454126         328.112         181.851         181.851 
       0.460267         322.518          176.51          176.51 
       0.466387         315.539         171.414         171.414 
        0.47254         311.312         166.527         166.527 
       0.478662         304.053         161.909         161.909 
       0.484765         299.622         157.531         157.531 
       0.490885         296.341         153.331         153.331 
       0.497035         290.001         149.261         149.261 
       0.503198         288.806         145.312         145.312 
       0.509342         281.934         141.497         141.497 
       0.515458         276.825         137.815         137.815 
       0.521598         271.998         134.233         134.233 
       0.527764         268.343         130.757         130.757 
       0.533884         266.158         127.437         127.437 
           0.54         261.865         124.251         124.251 
       0.546137         255.865         121.181         121.181 
       0.552299         254.421         118.213         118.213 
       0.558452         249.936          115.35          115.35 
       0.564573         248.177         112.593         112.593 
       0.570708         243.257         109.915         109.915 
       0.576825         239.074         107.328         107.328 
       0.582926         237.364         104.829         104.829 
       0.589034         233.092         102.404         102.404 
       0.595184         231.326          100.04          100.04 
       0.601379         227.558         97.7346         97.7346 
       0.607522         222.325         95.5228         95.5228 
       0.613639         221.352         93.3919         93.3919 
       0.619772         220.099         91.3242         91.3242 
       0.625918         216.194         89.3174         89.3174 
       0.632068         213.206         87.3707         87.3707 
       0.638161          211.71         85.4991         85.4991 
         0.6443          208.83         83.6676         83.6676 
       0.650464         205.574         81.8814         81.8814 
       0.656582         203.555         80.1591         80.1591 
       0.662703         202.236         78.4854         78.4854 
       0.668861         197.984         76.8502         76.8502 
       0.675024          197.37         75.2611         75.2611 
       0.681124         194.602         73.7341         73.7341 
       0.687237         193.052         72.2474         72.2474 
       0.693381         189.754         70.7956         70.7956 
       0.699536         188.825         69.3818         69.3818 
       0.705665         186.547          68.013          68.013 
       0.711789         183.999         66.6824         66.6824 
       0.717957         182.514         65.3782         65.3782 
        0.72409         179.891         64.1159         64.1159 
       0.730186         180.761         62.8945         62.8945 
       0.736317         177.754         61.6982         61.6982 
       0.742472         175.438         60.5285         60.5285 
       0.748622          173.09         59.3904         59.3904 
        0.75476         173.292          58.284          58.284 
       0.760888         170.839         57.2076         57.2076 
       0.767043         168.109         56.1542         56.1542 
       0.773185         166.611         55.1298         55.1298 
       0.779291         164.948         54.1368         54.1368 
       0.785407         163.805          53.167          53.167 
       0.791564          162.38          52.215          52.215 
       0.797719          159.62         51.2868         51.2868 
       0.803834         160.229         50.3872         50.3872 
       0.809972         158.131          49.506          49.506 
       0.816124         155.415         48.6441         48.6441 
       0.822261         154.555          47.805          47.805 
       0.828378         153.933         46.9883         46.9883 
       0.834502         152.098           46.19           46.19 
       0.840667         151.792         45.4052         45.4052 
       0.846816         148.954         44.6409         44.6409 
       0.852925         148.434         43.8991         43.8991 
       0.859047         146.893         43.1726         43.1726 
       0.865192          146.27         42.4602         42.4602 
       0.871341         144.626         41.7635         41.7635 
       0.877463         143.274         41.0856         41.0856 
       0.883569         143.037         40.4245         40.4245 
       0.889708         141.589         39.7747         39.7747 
       0.895864         139.978         39.1375         39.1375 
       0.902008         138.551         38.5156         38.5156 
       0.908149         137.257         37.9076         37.9076 
       0.914301         136.318         37.3119         37.3119 
       0.920448         136.261         36.7295         36.7295 
       0.926574         134.091         36.1616         36.1616 
       0.932687         133.864          35.607          35.607 
       0.938823         132.671          35.062          35.062 
       0.944975          131.89         34.5272         34.5272 
       0.951105          130.42         34.0054         34.0054 
       0.957225         129.614         33.4954         33.4954 
       0.963368         128.786         32.9941         32.9941 
       0.969511         127.304         32.5031         32.5031 
       0.975621         125.785         32.0247         32.0247 
       0.981748         125.417         31.5547         31.5547 
       0.987916          124.71         31.0912         31.0912 
        0.99406         123.759         30.6388         30.6388 
        1.00019         123.007         30.1963         30.1963 
        1.00632          121.92         29.7629         29.7629 
        1.01246         121.018         29.3374         29.3374 
        1.01859         120.103         28.9209         28.9209 
        1.02471         119.223         28.5131         28.5131 
        1.03085         118.305         28.1116         28.1116 
        1.03698          117.44         27.7188         27.7188 
        1.04314         117.053         27.3318         27.3318 
        1.04929          116.26         26.9531         26.9531 
        1.05541         115.505         26.5831         26.5831 
        1.06154         114.213         26.2191         26.2191 
        1.06769         113.688         25.8614         25.8614 
        1.07382         113.027         25.5116         25.5116 
        1.07993         112.063          25.169          25.169 
        1.08607         111.707         24.8313         24.8313 
        1.09222         110.538         24.4995         24.4995 
        1.09836         109.895         24.1742         24.1742 
        1.10449          109.22         23.8551         23.8551 
        1.11063         108.203         23.5415         23.5415 
        1.11677         107.782         23.2336         23.2336 
         1.1229         106.779         22.9317         22.9317 
        1.12903         105.983          22.635          22.635 
        1.13518         105.205         22.3433         22.3433 
        1.14131         104.871         22.0568         22.0568 
        1.14745         104.015         21.7756         21.7756 
        1.15359          103.19         21.4992         21.4992 
        1.15973         102.792         21.2275         21.2275 
        1.16584         101.986         20.9617         20.9617 
        1.17197          101.54         20.7001         20.7001 
        1.17811         100.644         20.4422         20.4422 
        1.18424          99.994         20.1894         20.1894 
        1.19038         99.4607         19.9402         19.9402 
        1.19652          98.818         19.6952         19.6952 
        1.20267         98.0846         19.4544         19.4544 
        1.20881         97.3181         19.2176         19.2176 
        1.21495         97.0247         18.9852         18.9852 
        1.22108          96.294         18.7566         18.7566 
         1.2272          95.788         18.5323         18.5323 
        1.23334         95.2954         18.3112         18.3112 
        1.23949         94.6787         18.0931         18.0931 
        1.24562         93.8449         17.8792         17.8792 
        1.25174         93.7153         17.6691         17.6691 
        1.25789         92.7597         17.4617         17.4617 
        1.26402         92.4587          17.258          17.258 
        1.27014         91.5986          17.058          17.058 
        1.27628         91.2142         16.8607         16.8607 
        1.28244         90.8274          16.666          16.666 
        1.28858         90.0894         16.4747         16.4747 
        1.29471         89.5366         16.2868         16.2868 
        1.30084         88.7943          16.102          16.102 
        1.30697         88.3809         15.9198         15.9198 
        1.31312         87.8534         15.7402         15.7402 
        1.31925         87.1301         15.5639         15.5639 
        1.32537         86.7258         15.3904         15.3904 
        1.33151          86.591          15.219          15.219 
        1.33765         85.7591         15.0503         15.0503 
        1.34378         85.4652         14.8845         14.8845 
        1.34992         84.9547         14.7211         14.7211 
        1.35606         84.4621         14.5598         14.5598 
         1.3622         84.1787         14.4011         14.4011 
        1.36833         83.3542         14.2452         14.2452 
        1.37445         83.0971         14.0917         14.0917 
        1.38059         82.5439           13.94           13.94 
        1.38675         81.9721         13.7902         13.7902 
        1.39288         81.4323         13.6431         13.6431 
        1.39901         81.0649         13.4983         13.4983 
        1.40515         80.5392         13.3552         13.3552 
         1.4113         80.0777         13.2143         13.2143 
        1.41742          79.773         13.0759         13.0759 
        1.42355         79.3755         12.9393         12.9393 
         1.4297         78.7935         12.8042         12.8042 
        1.43585         78.4232         12.6711         12.6711 
        1.44198         77.7082         12.5403         12.5403 
        1.44809         77.2561         12.4117         12.4117 
        1.45423          77.253         12.2844         12.2844 
        1.46036         76.5267         12.1591         12.1591 
        1.46649         76.0566         12.0355         12.0355 
        1.47263         75.5086         11.9135         11.9135 
        1.47877         75.2524         11.7933         11.7933 
        1.48491         74.7984         11.6745         11.6745 
        1.49104         74.1858         11.5576         11.5576 
        1.49718          73.877         11.4422         11.4422 
        1.50333         73.5614         11.3282         11.3282 
        1.50947         73.2462          11.216          11.216 
         1.5156         72.8835         11.1055         11.1055 
        1.52172         72.1607         10.9964         10.9964 
        1.52787          71.975         10.8886         10.8886 
          1.534         71.5168         10.7824         10.7824 
        1.54013         71.1946         10.6777         10.6777 
        1.54627          70.618         10.5741         10.5741 
        1.55241         70.5725          10.472          10.472 
        1.55855         69.7662         10.3713         10.3713 
        1.56467         69.3933         10.2723         10.2723 
         1.5708          68.921         10.1742         10.1742 
        1.57695         68.7258         10.0773         10.0773 
        1.58308         68.3752         9.98184         9.98184 
        1.58922         68.1572         9.88757         9.88757 
        1.59535         67.8962         9.79455         9.79455 
         1.6015         67.2337         9.70259         9.70259 
        1.60764         66.9066         9.61186         9.61186 
        1.61376         66.6977         9.52253         9.52253 
        1.61989         66.1661         9.43426         9.43426 
        1.62604         65.9273         9.34691         9.34691 
        1.63218         65.5062         9.26072         9.26072 
        1.63831         65.1853         9.17581         9.17581 
        1.64444         64.7955         9.09193         9.09193 
        1.65059         64.4406          9.0089          9.0089 
        1.65673         64.2184         8.92699         8.92699 
        1.66285         63.7707         8.84633         8.84633 
        1.66898         63.2926         8.76664         8.76664 
        1.67512         62.9303         8.68777         8.68777 
        1.68127         62.7459          8.6098          8.6098 
         1.6874         62.3255         8.53295         8.53295 
        1.69353          62.007         8.45709         8.45709 
        1.69967         61.6639         8.38197         8.38197 
        1.70581         61.3836          8.3078          8.3078 
        1.71193          60.938          8.2348          8.2348 
        1.71806         60.7672         8.16251         8.16251 
        1.72421          60.376         8.09096         8.09096 
        1.73035         60.0015         8.02034         8.02034 
        1.73649         59.6856         7.95057         7.95057 
        1.74262          59.395          7.8817          7.8817 
        1.74876         59.0806         7.81358         7.81358 
        1.75489         58.7849         7.74642         7.74642 
        1.76101           58.53         7.68005         7.68005 
        1.76715         58.1312         7.61438         7.61438 
        1.77329         57.8055         7.54938         7.54938 
        1.77943          57.659         7.48512         7.48512 
        1.78557         57.3358          7.4217          7.4217 
        1.79171         56.8376         7.35899         7.35899 
        1.79785         56.6239           7.297           7.297 
        1.80399         56.4757         7.23573         7.23573 
        1.81012         55.9969         7.17525         7.17525 
        1.81625         55.7685         7.11548         7.11548 
        1.82239         55.3372          7.0563          7.0563 
        1.82853         55.2123         6.99782         6.99782 
        1.83466         54.7817         6.94006         6.94006 
        1.84078         54.5333         6.88301         6.88301 
        1.84692         54.4382          6.8265          6.8265 
        1.85306         54.1582         6.77056         6.77056 
         1.8592         53.7998         6.71534         6.71534 
        1.86533         53.4985         6.66076         6.66076 
        1.87147           53.19         6.60672         6.60672 
