# k  (h/Mpc)    Pcb(k)  (Mpc/h)^3    Pcb_linear(k) (Mpc/h)^3    Pcb_NL(k) (Mpc/h)^3   ShotnoiseSubtracted = false
     0.00783031         1176.53         1185.81         1185.81 
       0.013688         1366.57         1381.38         1381.38 
       0.019231         1326.68         1332.46         1332.46 
      0.0249154          1178.4         1176.43         1176.43 
      0.0312784         975.342         974.608         974.608 
      0.0375637         804.339         805.117         805.117 
      0.0433917         693.548         691.521         691.521 
      0.0492413         615.462         615.364         615.364 
      0.0555754         562.528         560.786         560.786 
      0.0619321         514.299         517.741         517.741 
       0.067871         475.842         476.417         476.417 
      0.0738098         429.779         429.629         429.629 
      0.0800417          378.06         376.822         376.822 
      0.0862327         327.238         326.566         326.566 
      0.0921407         286.552          285.96          285.96 
      0.0982031         256.185         254.457         254.457 
       0.104506         232.157          232.22          232.22 
       0.110769         217.957         217.848         217.848 
       0.116806         208.643         207.522         207.522 
       0.122832         197.281         197.307         197.307 
       0.129052          185.33          184.73          184.73 
       0.135211         171.221         169.948         169.948 
       0.141259         155.136         154.393         154.393 
       0.147318         139.827         139.567         139.567 
       0.153489         127.583         126.773         126.773 
       0.159709         118.214          116.95          116.95 
       0.165845         110.218         110.076         110.076 
       0.171974         106.511         105.159         105.159 
       0.178125         102.149         101.071         101.071 
       0.184229         97.3534         96.8811         96.8811 
        0.19034         93.1226         92.0026         92.0026 
       0.196428         87.5099         86.4333         86.4333 
       0.202534         80.8275         80.5202         80.5202 
       0.208729         75.9095         74.7513         74.7513 
       0.214876         71.3231         69.7345         69.7345 
       0.220989         66.4619         65.6755         65.6755 
       0.227147         63.9878         62.4875         62.4875 
        0.23329         61.4536         59.9657         59.9657 
       0.239377         59.3616         57.7867         57.7867 
       0.245482         56.9474         55.6203         55.6203 
       0.251667         54.2741         53.2625         53.2625 
       0.257832         52.2734         50.7182         50.7182 
       0.263955         49.2595         48.0982         48.0982 
       0.270079         46.7049         45.5482         45.5482 
        0.27624         44.2005          43.202          43.202 
       0.282372         42.2561         41.1723         41.1723 
        0.28843         40.9953         39.4704         39.4704 
       0.294538         39.3567         37.9975         37.9975 
       0.300721         37.7167         36.6588         36.6588 
        0.30691         36.7189         35.3714         35.3714 
       0.313033          35.281         34.0857         34.0857 
       0.319153          34.312         32.7651         32.7651 
       0.325316          32.542          31.422          31.422 
        0.33145          31.213         30.1135         30.1135 
       0.337538         30.0605         28.8888         28.8888 
       0.343633         29.0403          27.767          27.767 
       0.349808         27.9277         26.7445         26.7445 
       0.355968         26.9441         25.8261         25.8261 
       0.362074         26.2907         24.9866         24.9866 
       0.368217         25.4275         24.1851         24.1851 
       0.374374         24.7785         23.3994         23.3994 
       0.380519         23.7623         22.6218         22.6218 
       0.386598          22.935         21.8612         21.8612 
       0.392688         22.1265         21.1157         21.1157 
        0.39888         21.5462         20.3893         20.3893 
       0.405048         20.9034         19.7078         19.7078 
       0.411186          20.217         19.0745         19.0745 
       0.417313         19.6004         18.4862         18.4862 
       0.423458         18.9528         17.9328         17.9328 
       0.429607         18.5636         17.4051         17.4051 
       0.435692         18.1256         16.9015         16.9015 
       0.441815         17.4657         16.4086         16.4086 
       0.447964         16.8549         15.9244         15.9244 
       0.454126         16.5135         15.4522         15.4522 
       0.460267         16.1839         14.9983         14.9983 
       0.466387         15.6759         14.5653         14.5653 
        0.47254         15.3312         14.1501         14.1501 
       0.478662         14.8477         13.7576         13.7576 
       0.484765         14.4719         13.3856         13.3856 
       0.490885         14.0311         13.0287         13.0287 
       0.497035         13.6714         12.6829         12.6829 
       0.503198         13.3907         12.3474         12.3474 
       0.509342         12.9673         12.0232         12.0232 
       0.515458         12.7272         11.7103         11.7103 
       0.521598         12.4176         11.4059         11.4059 
       0.527764         12.1819         11.1106         11.1106 
       0.533884         11.7902         10.8285         10.8285 
           0.54           11.55         10.5578         10.5578 
       0.546137         11.1942          10.297          10.297 
       0.552299         10.9718         10.0447         10.0447 
       0.558452         10.7026         9.80149         9.80149 
       0.564573         10.5036         9.56719         9.56719 
       0.570708         10.2547         9.33962         9.33962 
       0.576825         10.0472         9.11983         9.11983 
       0.582926         9.80687         8.90745         8.90745 
       0.589034         9.60681         8.70142         8.70142 
       0.595184         9.44991         8.50051         8.50051 
       0.601379         9.17939         8.30466         8.30466 
       0.607522         8.98815         8.11672         8.11672 
       0.613639         8.78096         7.93565         7.93565 
       0.619772         8.62388         7.75996         7.75996 
       0.625918         8.43063         7.58943         7.58943 
       0.632068         8.30007         7.42402         7.42402 
       0.638161         8.10863         7.26499         7.26499 
         0.6443         7.94207         7.10936         7.10936 
       0.650464         7.75292         6.95759         6.95759 
       0.656582         7.65793         6.81124         6.81124 
       0.662703         7.51813         6.66903         6.66903 
       0.668861         7.30943         6.53008         6.53008 
       0.675024         7.17576         6.39505         6.39505 
       0.681124         7.13613          6.2653          6.2653 
       0.687237         6.95786         6.13897         6.13897 
       0.693381         6.77369         6.01561         6.01561 
       0.699536         6.70534         5.89548         5.89548 
       0.705665         6.56709         5.77917         5.77917 
       0.711789         6.41815         5.66611         5.66611 
       0.717957         6.28172         5.55528         5.55528 
        0.72409         6.20298         5.44803         5.44803 
       0.730186          6.1385         5.34424         5.34424 
       0.736317         5.98367         5.24259         5.24259 
       0.742472         5.90386          5.1432          5.1432 
       0.748622         5.79802         5.04649         5.04649 
        0.75476         5.64431         4.95248         4.95248 
       0.760888         5.58861         4.86102         4.86102 
       0.767043         5.45068         4.77151         4.77151 
       0.773185         5.37379         4.68446         4.68446 
       0.779291         5.33424         4.60009         4.60009 
       0.785407         5.21685         4.51768         4.51768 
       0.791564         5.13145         4.43679         4.43679 
       0.797719         5.03229         4.35792         4.35792 
       0.803834           4.972         4.28148         4.28148 
       0.809972         4.87334         4.20661         4.20661 
       0.816124         4.79997         4.13336         4.13336 
       0.822261         4.72998         4.06206         4.06206 
       0.828378         4.65271         3.99267         3.99267 
       0.834502         4.58065         3.92484         3.92484 
       0.840667         4.52509         3.85815         3.85815 
       0.846816         4.42811         3.79321         3.79321 
       0.852925         4.37041         3.73017         3.73017 
       0.859047         4.30095         3.66844         3.66844 
       0.865192         4.23258         3.60791         3.60791 
       0.871341         4.16962         3.54871         3.54871 
       0.877463         4.10111         3.49111         3.49111 
       0.883569         4.05121         3.43494         3.43494 
       0.889708         3.98763         3.37972         3.37972 
       0.895864         3.92932         3.32557         3.32557 
       0.902008         3.86057         3.27273         3.27273 
       0.908149         3.80723         3.22107         3.22107 
       0.914301         3.76038         3.17045         3.17045 
       0.920448         3.71122         3.12096         3.12096 
       0.926574          3.6732         3.07271         3.07271 
       0.932687         3.60557         3.02558         3.02558 
       0.938823         3.53873         2.97927         2.97927 
       0.944975         3.51185         2.93383         2.93383 
       0.951105         3.43833          2.8895          2.8895 
       0.957225         3.41224         2.84616         2.84616 
       0.963368         3.36405         2.80356         2.80356 
       0.969511         3.31869         2.76184         2.76184 
       0.975621         3.26514         2.72119         2.72119 
       0.981748         3.20632         2.68125         2.68125 
       0.987916         3.17321         2.64187         2.64187 
        0.99406         3.14213         2.60343         2.60343 
        1.00019         3.10183         2.56583         2.56583 
        1.00632         3.06735           2.529           2.529 
        1.01246         3.01915         2.49285         2.49285 
        1.01859         2.97862         2.45746         2.45746 
        1.02471         2.92824          2.4228          2.4228 
        1.03085         2.90264         2.38869         2.38869 
        1.03698         2.86566         2.35531         2.35531 
        1.04314         2.82868         2.32243         2.32243 
        1.04929         2.78919         2.29025         2.29025 
        1.05541         2.74994         2.25881         2.25881 
        1.06154         2.72433         2.22788         2.22788 
        1.06769         2.70103         2.19749         2.19749 
        1.07382         2.65173         2.16776         2.16776 
        1.07993          2.6164         2.13865         2.13865 
        1.08607         2.59609         2.10996         2.10996 
        1.09222         2.55466         2.08176         2.08176 
        1.09836         2.54373         2.05412         2.05412 
        1.10449         2.48603         2.02701         2.02701 
        1.11063         2.46651         2.00036         2.00036 
        1.11677         2.43983         1.97419         1.97419 
         1.1229         2.40769         1.94855         1.94855 
        1.12903         2.38669         1.92333         1.92333 
        1.13518         2.34866         1.89854         1.89854 
        1.14131           2.321         1.87421         1.87421 
        1.14745         2.29255         1.85031         1.85031 
        1.15359         2.26633         1.82682         1.82682 
        1.15973         2.23876         1.80374         1.80374 
        1.16584         2.21845         1.78115         1.78115 
        1.17197         2.18694         1.75892         1.75892 
        1.17811         2.16146         1.73701         1.73701 
        1.18424         2.13705         1.71553         1.71553 
        1.19038         2.11583         1.69435         1.69435 
        1.19652         2.09496         1.67353         1.67353 
        1.20267          2.0751         1.65307         1.65307 
        1.20881         2.04638         1.63295         1.63295 
        1.21495         2.02559          1.6132          1.6132 
        1.22108         2.00366         1.59378         1.59378 
         1.2272         1.97412         1.57472         1.57472 
        1.23334         1.96352         1.55593         1.55593 
        1.23949          1.9361          1.5374          1.5374 
        1.24562         1.91792         1.51923         1.51923 
        1.25174         1.90319         1.50137         1.50137 
        1.25789         1.87165         1.48375         1.48375 
        1.26402         1.85417         1.46644         1.46644 
        1.27014         1.83338         1.44945         1.44945 
        1.27628          1.8147         1.43268         1.43268 
        1.28244         1.79674         1.41614         1.41614 
        1.28858         1.77997         1.39988         1.39988 
        1.29471         1.75499         1.38392         1.38392 
        1.30084          1.7383         1.36821         1.36821 
        1.30697         1.72559         1.35273         1.35273 
        1.31312          1.7059         1.33747         1.33747 
        1.31925         1.68821         1.32249         1.32249 
        1.32537          1.6727         1.30775         1.30775 
        1.33151         1.65249         1.29319         1.29319 
        1.33765         1.63727         1.27885         1.27885 
        1.34378         1.62398         1.26476         1.26476 
        1.34992          1.6076         1.25088         1.25088 
        1.35606         1.59109         1.23717         1.23717 
         1.3622         1.57639         1.22369         1.22369 
        1.36833         1.55625         1.21044         1.21044 
        1.37445         1.53956          1.1974          1.1974 
        1.38059         1.52547         1.18451         1.18451 
        1.38675         1.51134         1.17177         1.17177 
        1.39288         1.50191         1.15928         1.15928 
        1.39901         1.48103         1.14697         1.14697 
        1.40515         1.46784         1.13482         1.13482 
         1.4113         1.45788         1.12284         1.12284 
        1.41742         1.43893         1.11108         1.11108 
        1.42355         1.42523         1.09947         1.09947 
         1.4297         1.41455         1.08799         1.08799 
        1.43585         1.40094         1.07668         1.07668 
        1.44198         1.38683         1.06557         1.06557 
        1.44809         1.37607         1.05464         1.05464 
        1.45423         1.36174         1.04383         1.04383 
        1.46036          1.3509         1.03318         1.03318 
        1.46649         1.33311         1.02268         1.02268 
        1.47263         1.32661         1.01231         1.01231 
        1.47877         1.31721         1.00209         1.00209 
        1.48491         1.29736        0.992002        0.992002 
        1.49104         1.28912        0.982069        0.982069 
        1.49718         1.27669        0.972264        0.972264 
        1.50333         1.26474        0.962577        0.962577 
        1.50947         1.25343        0.953042        0.953042 
         1.5156         1.24261         0.94365         0.94365 
        1.52172         1.23211        0.934383        0.934383 
        1.52787         1.22157        0.925223        0.925223 
          1.534         1.21165        0.916196        0.916196 
        1.54013         1.19961        0.907299        0.907299 
        1.54627         1.18864        0.898504        0.898504 
        1.55241         1.17667        0.889823        0.889823 
        1.55855         1.16809        0.881269        0.881269 
        1.56467           1.159        0.872852        0.872852 
         1.5708         1.14801         0.86452         0.86452 
        1.57695           1.136        0.856284        0.856284 
        1.58308         1.12501        0.848175        0.848175 
        1.58922         1.11973        0.840164        0.840164 
        1.59535         1.10628         0.83226         0.83226 
         1.6015         1.09724        0.824446        0.824446 
        1.60764         1.09037        0.816736        0.816736 
        1.61376         1.07783        0.809146        0.809146 
        1.61989         1.06947        0.801646        0.801646 
        1.62604          1.0589        0.794224        0.794224 
        1.63218         1.05374          0.7869          0.7869 
        1.63831         1.04493        0.779685        0.779685 
        1.64444         1.03481        0.772557        0.772557 
        1.65059         1.02852        0.765502        0.765502 
        1.65673         1.01629        0.758542        0.758542 
        1.66285         1.00841        0.751688        0.751688 
        1.66898         1.00132        0.744917        0.744917 
        1.67512        0.990543        0.738215        0.738215 
        1.68127        0.983267         0.73159         0.73159 
         1.6874        0.978671         0.72506         0.72506 
        1.69353        0.967578        0.718614        0.718614 
        1.69967        0.960128        0.712231        0.712231 
        1.70581        0.955469        0.705928        0.705928 
        1.71193        0.941996        0.699725        0.699725 
        1.71806        0.937838        0.693583        0.693583 
        1.72421        0.931468        0.687503        0.687503 
        1.73035        0.920319        0.681502        0.681502 
        1.73649        0.916718        0.675575        0.675575 
        1.74262        0.907847        0.669722        0.669722 
        1.74876        0.900923        0.663934        0.663934 
        1.75489        0.893783        0.658227        0.658227 
        1.76101        0.884759        0.652588        0.652588 
        1.76715        0.880332        0.647007        0.647007 
        1.77329        0.872646        0.641485        0.641485 
        1.77943        0.866517        0.636024        0.636024 
        1.78557        0.860817        0.630635        0.630635 
        1.79171        0.854351        0.625307        0.625307 
        1.79785        0.847672        0.620039        0.620039 
        1.80399        0.839946        0.614833        0.614833 
        1.81012        0.833494        0.609694        0.609694 
        1.81625        0.825689        0.604615        0.604615 
        1.82239        0.820899        0.599586        0.599586 
        1.82853        0.814817        0.594617        0.594617 
        1.83466        0.807412        0.589709        0.589709 
        1.84078         0.80185        0.584862        0.584862 
        1.84692        0.795896         0.58006         0.58006 
        1.85306        0.791554        0.575307        0.575307 
         1.8592        0.783384        0.570614        0.570614 
        1.86533        0.778914        0.565977        0.565977 
        1.87147        0.772209        0.561385        0.561385 
