# k  (h/Mpc)    P(k)  (Mpc/h)^3    P_linear(k)  (Mpc/h)^3     P_NL(k)  ShotnoiseSubtracted = false
     0.00783031         20531.7         20635.8         20635.8 
       0.013688         23330.8         24018.6         24018.6 
       0.019231         22769.8           23160           23160 
      0.0249154           20538           20444           20444 
      0.0312784         16783.2         16934.7         16934.7 
      0.0375637         13762.2         13988.6         13988.6 
      0.0433917         11974.7         12014.3         12014.3 
      0.0492413         10583.4         10690.8         10690.8 
      0.0555754         9711.55         9742.37         9742.37 
      0.0619321         8683.51         8994.38         8994.38 
       0.067871         8116.81         8276.37         8276.37 
      0.0738098         7423.35         7463.47         7463.47 
      0.0800417         6563.94         6546.05         6546.05 
      0.0862327         5702.29         5672.98         5672.98 
      0.0921407         5072.93         4967.55         4967.55 
      0.0982031         4608.59         4420.27         4420.27 
       0.104506         4141.19         4033.96         4033.96 
       0.110769         3903.68         3784.29         3784.29 
       0.116806         3760.16          3604.9          3604.9 
       0.122832         3544.28         3427.45         3427.45 
       0.129052          3307.1         3208.97         3208.97 
       0.135211         3156.36         2952.17         2952.17 
       0.141259         2860.07         2681.96         2681.96 
       0.147318         2613.93         2424.41         2424.41 
       0.153489         2431.56         2202.17         2202.17 
       0.159709         2330.82         2031.53         2031.53 
       0.165845         2147.09         1912.12         1912.12 
       0.171974         2099.46         1826.71         1826.71 
       0.178125         2037.39          1755.7          1755.7 
       0.184229          1878.6         1682.91         1682.91 
        0.19034         1842.07         1598.16         1598.16 
       0.196428         1775.08         1501.42         1501.42 
       0.202534         1652.44          1398.7          1398.7 
       0.208729         1610.28         1298.49         1298.49 
       0.214876         1524.58         1211.35         1211.35 
       0.220989         1448.58         1140.84         1140.84 
       0.227147         1406.81         1085.45         1085.45 
        0.23329         1352.08         1041.65         1041.65 
       0.239377         1344.83          1003.8          1003.8 
       0.245482         1279.46         966.166         966.166 
       0.251667         1231.78         925.208         925.208 
       0.257832         1206.52         881.014         881.014 
       0.263955         1148.16         835.503         835.503 
       0.270079         1112.66         791.207         791.207 
        0.27624         1065.46          750.45          750.45 
       0.282372         1050.61         715.192         715.192 
        0.28843          1028.8          685.63          685.63 
       0.294538          981.61         660.043         660.043 
       0.300721         962.443         636.791         636.791 
        0.30691         936.531         614.425         614.425 
       0.313033         899.228         592.092         592.092 
       0.319153         888.788         569.151         569.151 
       0.325316         875.558         545.823         545.823 
        0.33145         853.179         523.092         523.092 
       0.337538         823.867         501.818         501.818 
       0.343633         804.211         482.333         482.333 
       0.349808         788.005         464.571         464.571 
       0.355968         771.659         448.616         448.616 
       0.362074         745.342         434.034         434.034 
       0.368217         741.801         420.111         420.111 
       0.374374         730.498         406.464         406.464 
       0.380519         703.219         392.956         392.956 
       0.386598         697.867         379.743         379.743 
       0.392688         679.272         366.795         366.795 
        0.39888          665.43         354.174         354.174 
       0.405048         649.764         342.339         342.339 
       0.411186         649.123         331.336         331.336 
       0.417313         641.247         321.119         321.119 
       0.423458         623.959         311.504         311.504 
       0.429607         606.153         302.339         302.339 
       0.435692         598.986         293.591         293.591 
       0.441815         587.671         285.028         285.028 
       0.447964         578.544         276.617         276.617 
       0.454126         571.312         268.415         268.415 
       0.460267         563.284         260.531         260.531 
       0.466387         550.981         253.009         253.009 
        0.47254         544.898         245.796         245.796 
       0.478662         534.613         238.979         238.979 
       0.484765         527.176         232.518         232.518 
       0.490885         523.304         226.317         226.317 
       0.497035         510.829          220.31          220.31 
       0.503198          509.85         214.482         214.482 
       0.509342          499.93          208.85          208.85 
       0.515458         489.986         203.416         203.416 
       0.521598          487.78         198.129         198.129 
       0.527764         476.812         192.999         192.999 
       0.533884         471.097         188.097         188.097 
           0.54          467.46         183.396         183.396 
       0.546137         459.349         178.865         178.865 
       0.552299         456.504         174.483         174.483 
       0.558452         449.534         170.258         170.258 
       0.564573          447.36         166.188         166.188 
       0.570708         440.606         162.235         162.235 
       0.576825          432.43         158.417         158.417 
       0.582926         431.154         154.728         154.728 
       0.589034         423.406         151.149         151.149 
       0.595184         419.831         147.659         147.659 
       0.601379         412.868         144.257         144.257 
       0.607522         405.744         140.993         140.993 
       0.613639         404.706         137.847         137.847 
       0.619772         402.107         134.795         134.795 
       0.625918         394.338         131.833         131.833 
       0.632068         393.096          128.96          128.96 
       0.638161         388.022         126.198         126.198 
         0.6443         382.725         123.494         123.494 
       0.650464         379.496         120.858         120.858 
       0.656582         375.603         118.316         118.316 
       0.662703         372.945         115.845         115.845 
       0.668861         366.857         113.432         113.432 
       0.675024         365.577         111.086         111.086 
       0.681124          357.66         108.832         108.832 
       0.687237         357.423         106.638         106.638 
       0.693381         351.877         104.495         104.495 
       0.699536           351.8         102.408         102.408 
       0.705665         346.113         100.388         100.388 
       0.711789          344.24         98.4239         98.4239 
       0.717957         340.689         96.4988         96.4988 
        0.72409         336.636         94.6357         94.6357 
       0.730186         336.829         92.8329         92.8329 
       0.736317         331.143         91.0671         91.0671 
       0.742472         328.487         89.3407         89.3407 
       0.748622         327.045         87.6607         87.6607 
        0.75476         322.906         86.0277         86.0277 
       0.760888         320.979         84.4389         84.4389 
       0.767043         317.618         82.8842         82.8842 
       0.773185         314.761         81.3721         81.3721 
       0.779291         312.032         79.9064         79.9064 
       0.785407          309.58          78.475          78.475 
       0.791564         307.989         77.0698         77.0698 
       0.797719         303.091         75.6999         75.6999 
       0.803834         303.234          74.372          74.372 
       0.809972         298.367         73.0714         73.0714 
       0.816124         296.235         71.7991         71.7991 
       0.822261         293.983         70.5606         70.5606 
       0.828378         292.384         69.3551         69.3551 
       0.834502         287.978         68.1769         68.1769 
       0.840667         287.472         67.0185         67.0185 
       0.846816         283.687         65.8904         65.8904 
       0.852925         283.911         64.7954         64.7954 
       0.859047         280.136         63.7231         63.7231 
       0.865192         278.761         62.6717         62.6717 
       0.871341          275.62         61.6433         61.6433 
       0.877463         274.369         60.6427         60.6427 
       0.883569         272.463          59.667          59.667 
       0.889708         269.759         58.7078         58.7078 
       0.895864         266.197         57.7673         57.7673 
       0.902008         265.254         56.8494         56.8494 
       0.908149         262.397          55.952          55.952 
       0.914301         261.543         55.0727         55.0727 
       0.920448         258.586         54.2131         54.2131 
       0.926574         256.765         53.3749         53.3749 
       0.932687         256.355         52.5562         52.5562 
       0.938823         253.417         51.7518         51.7518 
       0.944975         253.061         50.9624         50.9624 
       0.951105         250.383         50.1924         50.1924 
       0.957225         247.675         49.4395         49.4395 
       0.963368         247.774         48.6996         48.6996 
       0.969511         243.996         47.9748         47.9748 
       0.975621         241.566         47.2687         47.2687 
       0.981748          241.31          46.575          46.575 
       0.987916         239.738         45.8909         45.8909 
        0.99406         237.102         45.2232         45.2232 
        1.00019         235.265           44.57           44.57 
        1.00632         234.477         43.9304         43.9304 
        1.01246         232.743         43.3023         43.3023 
        1.01859         230.353         42.6876         42.6876 
        1.02471         228.728         42.0856         42.0856 
        1.03085         227.558         41.4931         41.4931 
        1.03698           226.4         40.9132         40.9132 
        1.04314         225.115          40.342          40.342 
        1.04929          223.42          39.783          39.783 
        1.05541         222.421         39.2369         39.2369 
        1.06154         220.032         38.6996         38.6996 
        1.06769         218.522         38.1717         38.1717 
        1.07382         216.437         37.6553         37.6553 
        1.07993         215.877         37.1497         37.1497 
        1.08607          214.53         36.6513         36.6513 
        1.09222         212.482         36.1615         36.1615 
        1.09836           211.3         35.6813         35.6813 
        1.10449           210.2         35.2104         35.2104 
        1.11063         208.739         34.7474         34.7474 
        1.11677         206.571          34.293          34.293 
         1.1229         206.523         33.8475         33.8475 
        1.12903         203.953         33.4095         33.4095 
        1.13518         202.789         32.9789         32.9789 
        1.14131         201.705         32.5561         32.5561 
        1.14745         199.936          32.141          32.141 
        1.15359          198.71          31.733          31.733 
        1.15973          197.81          31.332          31.332 
        1.16584         196.449         30.9397         30.9397 
        1.17197         195.478         30.5536         30.5536 
        1.17811         193.255         30.1729         30.1729 
        1.18424         192.296         29.7997         29.7997 
        1.19038         191.541         29.4319         29.4319 
        1.19652         189.303         29.0703         29.0703 
        1.20267         188.606         28.7148         28.7148 
        1.20881         187.326         28.3654         28.3654 
        1.21495         186.357         28.0223         28.0223 
        1.22108         185.099         27.6849         27.6849 
         1.2272         183.748         27.3539         27.3539 
        1.23334         182.316         27.0275         27.0275 
        1.23949         181.549         26.7057         26.7057 
        1.24562         180.166         26.3899         26.3899 
        1.25174         179.632         26.0798         26.0798 
        1.25789         177.809         25.7736         25.7736 
        1.26402         177.128          25.473          25.473 
        1.27014         176.003         25.1778         25.1778 
        1.27628          175.13         24.8865         24.8865 
        1.28244         173.337         24.5992         24.5992 
        1.28858         172.589         24.3168         24.3168 
        1.29471         171.196         24.0395         24.0395 
        1.30084         170.855         23.7667         23.7667 
        1.30697         169.386         23.4978         23.4978 
        1.31312         168.551         23.2326         23.2326 
        1.31925         167.363         22.9724         22.9724 
        1.32537         166.754         22.7164         22.7164 
        1.33151          164.97         22.4634         22.4634 
        1.33765         164.379         22.2144         22.2144 
        1.34378         163.595         21.9697         21.9697 
        1.34992         162.014         21.7285         21.7285 
        1.35606           161.4         21.4903         21.4903 
         1.3622           159.9         21.2562         21.2562 
        1.36833         159.603         21.0261         21.0261 
        1.37445         158.742         20.7995         20.7995 
        1.38059         157.019         20.5756         20.5756 
        1.38675         155.926         20.3544         20.3544 
        1.39288         155.353         20.1374         20.1374 
        1.39901         154.122         19.9236         19.9236 
        1.40515         153.259         19.7125         19.7125 
         1.4113         152.681         19.5044         19.5044 
        1.41742         151.511         19.3002         19.3002 
        1.42355         150.294         19.0985         19.0985 
         1.4297         149.574         18.8991         18.8991 
        1.43585         149.073         18.7026         18.7026 
        1.44198         147.714         18.5097         18.5097 
        1.44809         147.206         18.3198         18.3198 
        1.45423         146.285         18.1319         18.1319 
        1.46036         145.518         17.9469         17.9469 
        1.46649         144.166         17.7645         17.7645 
        1.47263         143.695         17.5845         17.5845 
        1.47877         142.741          17.407          17.407 
        1.48491         141.623         17.2317         17.2317 
        1.49104         140.535         17.0591         17.0591 
        1.49718         139.933         16.8888         16.8888 
        1.50333         138.781         16.7205         16.7205 
        1.50947          138.21         16.5549         16.5549 
         1.5156         137.268         16.3917         16.3917 
        1.52172         136.457         16.2308         16.2308 
        1.52787         135.831         16.0717         16.0717 
          1.534         135.187         15.9149         15.9149 
        1.54013         134.243         15.7603         15.7603 
        1.54627          133.46         15.6075         15.6075 
        1.55241         132.698         15.4568         15.4568 
        1.55855         131.792         15.3082         15.3082 
        1.56467          131.02         15.1619         15.1619 
         1.5708         130.288         15.0172         15.0172 
        1.57695         129.619         14.8742         14.8742 
        1.58308         128.558         14.7333         14.7333 
        1.58922         127.818         14.5941         14.5941 
        1.59535         127.073         14.4568         14.4568 
         1.6015         126.262         14.3211         14.3211 
        1.60764         125.442         14.1872         14.1872 
        1.61376         124.885         14.0553         14.0553 
        1.61989         124.084         13.9251         13.9251 
        1.62604         123.532         13.7961         13.7961 
        1.63218         122.581         13.6689         13.6689 
        1.63831         121.953         13.5436         13.5436 
        1.64444         121.006         13.4198         13.4198 
        1.65059         120.394         13.2972         13.2972 
        1.65673         119.663         13.1763         13.1763 
        1.66285          119.12         13.0573         13.0573 
        1.66898         118.405         12.9396         12.9396 
        1.67512         117.278         12.8232         12.8232 
        1.68127         117.001         12.7081         12.7081 
         1.6874         116.227         12.5947         12.5947 
        1.69353         115.584         12.4827         12.4827 
        1.69967         114.902         12.3719         12.3719 
        1.70581         114.182         12.2624         12.2624 
        1.71193         113.698         12.1546         12.1546 
        1.71806         112.668         12.0479         12.0479 
        1.72421          111.96         11.9423         11.9423 
        1.73035         111.631         11.8381         11.8381 
        1.73649         110.944         11.7351         11.7351 
        1.74262         110.035         11.6335         11.6335 
        1.74876         109.371         11.5329         11.5329 
        1.75489         109.232         11.4338         11.4338 
        1.76101         108.259         11.3358         11.3358 
        1.76715         107.643         11.2389         11.2389 
        1.77329         107.016          11.143          11.143 
        1.77943         106.209         11.0481         11.0481 
        1.78557         105.536         10.9545         10.9545 
        1.79171         104.927         10.8619         10.8619 
        1.79785           104.3         10.7704         10.7704 
        1.80399         103.686           10.68           10.68 
        1.81012         103.355         10.5907         10.5907 
        1.81625         102.433         10.5025         10.5025 
        1.82239         102.125         10.4152         10.4152 
        1.82853         101.319         10.3288         10.3288 
        1.83466          100.57         10.2436         10.2436 
        1.84078         100.246         10.1594         10.1594 
        1.84692          99.579          10.076          10.076 
        1.85306         98.9433         9.99341         9.99341 
         1.8592         98.4346          9.9119          9.9119 
        1.86533         97.8007         9.83134         9.83134 
        1.87147         97.1384         9.75157         9.75157 
        1.87761         96.7232         9.67266         9.67266 
