# k  (h/Mpc)    Pcb(k)  (Mpc/h)^3    Pcb_linear(k) (Mpc/h)^3    Pcb_NL(k) (Mpc/h)^3   ShotnoiseSubtracted = false
     0.00783031           12648         12720.4         12720.4 
       0.013688         14465.4         14808.3         14808.3 
       0.019231         14099.3         14280.1         14280.1 
      0.0249154         12665.5           12606           12606 
      0.0312784         10391.7         10442.4         10442.4 
      0.0375637         8532.69         8625.93         8625.93 
      0.0433917         7408.84         7408.62         7408.62 
      0.0492413         6553.19         6592.54         6592.54 
      0.0555754         6014.35         6007.71         6007.71 
      0.0619321         5406.69         5546.49         5546.49 
       0.067871          5046.9         5103.74         5103.74 
      0.0738098         4593.72         4602.47         4602.47 
      0.0800417         4058.76         4036.73         4036.73 
      0.0862327          3517.3         3498.35         3498.35 
      0.0921407          3109.3         3063.34         3063.34 
      0.0982031         2811.55         2725.85         2725.85 
       0.104506         2528.11         2487.63         2487.63 
       0.110769         2380.87         2333.66         2333.66 
       0.116806         2296.11         2223.04         2223.04 
       0.122832         2159.36         2113.62         2113.62 
       0.129052         2024.99         1978.89         1978.89 
       0.135211         1912.36         1820.53         1820.53 
       0.141259          1731.1         1653.89         1653.89 
       0.147318         1568.45         1495.08         1495.08 
       0.153489         1451.08         1358.02         1358.02 
       0.159709         1377.95         1252.79         1252.79 
       0.165845         1267.53         1179.16         1179.16 
       0.171974         1243.89         1126.49         1126.49 
       0.178125         1200.31         1082.69         1082.69 
       0.184229         1116.35         1037.81         1037.81 
        0.19034         1085.97         985.549         985.549 
       0.196428         1039.76         925.889         925.889 
       0.202534         958.158         862.546         862.546 
       0.208729          930.33         800.749         800.749 
       0.214876          880.88         747.008         747.008 
       0.220989         825.046         703.527         703.527 
       0.227147         803.896         669.376         669.376 
        0.23329         773.315         642.362         642.362 
       0.239377         763.269          619.02          619.02 
       0.245482         724.126         595.813         595.813 
       0.251667         694.793         570.556         570.556 
       0.257832         682.201         543.301         543.301 
       0.263955         643.127         515.235         515.235 
       0.270079         617.633         487.919         487.919 
        0.27624         589.996         462.786         462.786 
       0.282372         576.395         441.043         441.043 
        0.28843         569.467         422.812         422.812 
       0.294538         540.018         407.034         407.034 
       0.300721         524.868         392.694         392.694 
        0.30691         514.416         378.903         378.903 
       0.313033         490.425          365.13          365.13 
       0.319153         481.978         350.984         350.984 
       0.325316         472.394         336.596         336.596 
        0.33145         459.707         322.579         322.579 
       0.337538         442.085          309.46          309.46 
       0.343633         428.739         297.443         297.443 
       0.349808         417.697          286.49          286.49 
       0.355968         409.187         276.652         276.652 
       0.362074         394.461         267.659         267.659 
       0.368217         391.341         259.074         259.074 
       0.374374         383.343         250.657         250.657 
       0.380519         367.421         242.327         242.327 
       0.386598         362.625          234.18          234.18 
       0.392688         352.849         226.194         226.194 
        0.39888         343.835         218.412         218.412 
       0.405048         336.073         211.113         211.113 
       0.411186         334.562         204.328         204.328 
       0.417313          328.78         198.027         198.027 
       0.423458          319.78         192.098         192.098 
       0.429607         310.203         186.445         186.445 
       0.435692         305.156         181.051         181.051 
       0.441815         299.625          175.77          175.77 
       0.447964         291.787         170.584         170.584 
       0.454126         288.112         165.525         165.525 
       0.460267         283.382         160.664         160.664 
       0.466387         277.091         156.025         156.025 
        0.47254         273.373         151.577         151.577 
       0.478662         266.535         147.373         147.373 
       0.484765         262.661         143.388         143.388 
       0.490885          259.48         139.565         139.565 
       0.497035         254.341          135.86          135.86 
       0.503198         252.833         132.266         132.266 
       0.509342         246.564         128.793         128.793 
       0.515458         242.314         125.442         125.442 
       0.521598         237.503         122.182         122.182 
       0.527764          234.69         119.018         119.018 
       0.533884         232.866         115.996         115.996 
           0.54         228.593         113.096         113.096 
       0.546137         223.256         110.302         110.302 
       0.552299         221.695           107.6           107.6 
       0.558452         217.785         104.995         104.995 
       0.564573         216.291         102.485         102.485 
       0.570708         211.608         100.047         100.047 
       0.576825         208.178         97.6925         97.6925 
       0.582926         206.399         95.4174         95.4174 
       0.589034         202.806         93.2104         93.2104 
       0.595184         201.132         91.0583         91.0583 
       0.601379         197.769         88.9603         88.9603 
       0.607522           193.2         86.9471         86.9471 
       0.613639         192.194         85.0075         85.0075 
       0.619772         190.797         83.1254         83.1254 
       0.625918         187.903         81.2987         81.2987 
       0.632068         184.612         79.5269         79.5269 
       0.638161         183.347         77.8233         77.8233 
         0.6443         181.125         76.1562         76.1562 
       0.650464         177.943         74.5304         74.5304 
       0.656582         176.367         72.9627         72.9627 
       0.662703         175.013         71.4393         71.4393 
       0.668861         171.315         69.9508         69.9508 
       0.675024         170.889         68.5044         68.5044 
       0.681124         168.442         67.1144         67.1144 
       0.687237          166.89         65.7613         65.7613 
       0.693381         164.145         64.4398         64.4398 
       0.699536         163.106         63.1529         63.1529 
       0.705665         161.178          61.907          61.907 
       0.711789         158.866         60.6958         60.6958 
       0.717957         157.458         59.5087         59.5087 
        0.72409         155.298         58.3598         58.3598 
       0.730186         155.859          57.248          57.248 
       0.736317         153.357         56.1591         56.1591 
       0.742472         151.095         55.0945         55.0945 
       0.748622         148.922         54.0585         54.0585 
        0.75476         149.332         53.0514         53.0514 
       0.760888         147.218         52.0716         52.0716 
       0.767043         144.693         51.1129         51.1129 
       0.773185          143.29         50.1804         50.1804 
       0.779291         141.829         49.2766         49.2766 
       0.785407         140.814         48.3938         48.3938 
       0.791564         139.535         47.5273         47.5273 
       0.797719         137.229         46.6825         46.6825 
       0.803834         137.612         45.8636         45.8636 
       0.809972         135.945         45.0615         45.0615 
       0.816124         133.557          44.277          44.277 
       0.822261         132.788         43.5132         43.5132 
       0.828378         132.236         42.7698         42.7698 
       0.834502         130.676         42.0432         42.0432 
       0.840667         130.197         41.3289         41.3289 
       0.846816         128.015         40.6332         40.6332 
       0.852925         127.271         39.9579         39.9579 
       0.859047          125.98         39.2967         39.2967 
       0.865192         125.327         38.6483         38.6483 
       0.871341         124.007         38.0141         38.0141 
       0.877463         122.851         37.3971         37.3971 
       0.883569         122.664         36.7953         36.7953 
       0.889708         121.408         36.2038         36.2038 
       0.895864         120.095         35.6238         35.6238 
       0.902008         118.721         35.0578         35.0578 
       0.908149         117.522         34.5044         34.5044 
       0.914301         116.889         33.9621         33.9621 
       0.920448         116.864          33.432          33.432 
       0.926574         114.732         32.9151         32.9151 
       0.932687         114.583         32.4103         32.4103 
       0.938823         113.637         31.9142         31.9142 
       0.944975         112.759         31.4274         31.4274 
       0.951105         111.582         30.9525         30.9525 
       0.957225             111         30.4883         30.4883 
       0.963368         110.034          30.032          30.032 
       0.969511          109.03          29.585          29.585 
       0.975621         107.658         29.1496         29.1496 
       0.981748         107.232         28.7218         28.7218 
       0.987916         106.578         28.2999         28.2999 
        0.99406         105.922         27.8881         27.8881 
        1.00019         105.106         27.4854         27.4854 
        1.00632         104.131         27.0909         27.0909 
        1.01246         103.414         26.7036         26.7036 
        1.01859         102.754         26.3245         26.3245 
        1.02471         102.026         25.9533         25.9533 
        1.03085         101.122         25.5879         25.5879 
        1.03698         100.305         25.2303         25.2303 
        1.04314         99.8936          24.878          24.878 
        1.04929         99.2787         24.5333         24.5333 
        1.05541         98.5174         24.1965         24.1965 
        1.06154         97.5215         23.8652         23.8652 
        1.06769         97.0463         23.5397         23.5397 
        1.07382         96.4697         23.2212         23.2212 
        1.07993         95.7526         22.9094         22.9094 
        1.08607         95.2663          22.602          22.602 
        1.09222         94.4168            22.3            22.3 
        1.09836         93.7493         22.0039         22.0039 
        1.10449         93.1826         21.7135         21.7135 
        1.11063          92.392          21.428          21.428 
        1.11677         91.9615         21.1477         21.1477 
         1.1229         91.0332          20.873          20.873 
        1.12903         90.4552         20.6029         20.6029 
        1.13518         89.7626         20.3374         20.3374 
        1.14131         89.4014         20.0766         20.0766 
        1.14745         88.8543         19.8207         19.8207 
        1.15359         87.9687         19.5691         19.5691 
        1.15973         87.6703         19.3218         19.3218 
        1.16584         87.0025         19.0799         19.0799 
        1.17197         86.5928         18.8417         18.8417 
        1.17811         85.8308          18.607          18.607 
        1.18424         85.2627         18.3769         18.3769 
        1.19038         84.8525           18.15           18.15 
        1.19652          84.341          17.927          17.927 
        1.20267         83.7062         17.7078         17.7078 
        1.20881          83.043         17.4923         17.4923 
        1.21495         82.6773         17.2807         17.2807 
        1.22108         82.1943         17.0727         17.0727 
         1.2272         81.6633         16.8686         16.8686 
        1.23334         81.3392         16.6673         16.6673 
        1.23949         80.7428         16.4688         16.4688 
        1.24562         80.0004         16.2741         16.2741 
        1.25174           79.86         16.0828         16.0828 
        1.25789         79.1458         15.8941         15.8941 
        1.26402         78.8512         15.7086         15.7086 
        1.27014         78.1137         15.5266         15.5266 
        1.27628         77.7414          15.347          15.347 
        1.28244         77.5482         15.1698         15.1698 
        1.28858         76.8136         14.9956         14.9956 
        1.29471         76.3641         14.8246         14.8246 
        1.30084         75.7088         14.6564         14.6564 
        1.30697         75.4821         14.4906         14.4906 
        1.31312         75.0133         14.3271         14.3271 
        1.31925         74.3745         14.1666         14.1666 
        1.32537         74.0556         14.0087         14.0087 
        1.33151         73.9227         13.8527         13.8527 
        1.33765         73.2229         13.6992         13.6992 
        1.34378         72.8652         13.5482         13.5482 
        1.34992          72.549         13.3995         13.3995 
        1.35606         72.0633         13.2526         13.2526 
         1.3622         71.8442         13.1082         13.1082 
        1.36833         71.1924         12.9663         12.9663 
        1.37445         70.8734         12.8266         12.8266 
        1.38059         70.4704         12.6885         12.6885 
        1.38675         69.9006         12.5521         12.5521 
        1.39288         69.5097         12.4183         12.4183 
        1.39901         69.1547         12.2865         12.2865 
        1.40515         68.7147         12.1562         12.1562 
         1.4113         68.3644          12.028          12.028 
        1.41742         68.0032          11.902          11.902 
        1.42355         67.7443         11.7776         11.7776 
         1.4297         67.2672         11.6547         11.6547 
        1.43585          66.941         11.5335         11.5335 
        1.44198          66.367         11.4145         11.4145 
        1.44809         65.8702         11.2974         11.2974 
        1.45423         65.9373         11.1815         11.1815 
        1.46036         65.3962         11.0675         11.0675 
        1.46649         64.8983          10.955          10.955 
        1.47263         64.5101          10.844          10.844 
        1.47877          64.244         10.7345         10.7345 
        1.48491         63.8077         10.6264         10.6264 
        1.49104         63.3744           10.52           10.52 
        1.49718         63.1111          10.415          10.415 
        1.50333         62.8697         10.3112         10.3112 
        1.50947          62.549         10.2091         10.2091 
         1.5156         62.3254         10.1084         10.1084 
        1.52172         61.6852         10.0092         10.0092 
        1.52787         61.4349         9.91105         9.91105 
          1.534          61.058         9.81436         9.81436 
        1.54013         60.8989         9.71905         9.71905 
        1.54627         60.3212         9.62483         9.62483 
        1.55241         60.3004         9.53185         9.53185 
        1.55855         59.6049         9.44022         9.44022 
        1.56467          59.226         9.35005         9.35005 
         1.5708         59.0327          9.2608          9.2608 
        1.57695         58.7224         9.17258         9.17258 
        1.58308         58.4652          9.0857          9.0857 
        1.58922         58.2318          8.9999          8.9999 
        1.59535         58.0562         8.91522         8.91522 
         1.6015         57.5792         8.83152         8.83152 
        1.60764         57.2605         8.74893         8.74893 
        1.61376         57.0298         8.66763         8.66763 
        1.61989         56.5108         8.58728         8.58728 
        1.62604         56.4078         8.50778         8.50778 
        1.63218         56.0677         8.42932         8.42932 
        1.63831         55.7959         8.35204         8.35204 
        1.64444         55.5307         8.27569         8.27569 
        1.65059         55.1644         8.20011         8.20011 
        1.65673         54.9121         8.12556         8.12556 
        1.66285         54.5236         8.05213         8.05213 
        1.66898         54.1673          7.9796          7.9796 
        1.67512         53.8786         7.90781         7.90781 
        1.68127         53.7652         7.83684         7.83684 
         1.6874          53.395         7.76689         7.76689 
        1.69353          53.091         7.69784         7.69784 
        1.69967         52.8647         7.62947         7.62947 
        1.70581         52.5784         7.56195         7.56195 
        1.71193          52.207          7.4955          7.4955 
        1.71806           52.07         7.42971         7.42971 
        1.72421         51.7732         7.36458         7.36458 
        1.73035         51.4743          7.3003          7.3003 
        1.73649         51.1755          7.2368          7.2368 
        1.74262         50.8589          7.1741          7.1741 
        1.74876         50.7508         7.11211         7.11211 
        1.75489         50.4242         7.05097         7.05097 
        1.76101         50.1946         6.99056         6.99056 
        1.76715          49.858         6.93078         6.93078 
        1.77329          49.603         6.87163         6.87163 
        1.77943         49.5056         6.81313         6.81313 
        1.78557         49.1819          6.7554          6.7554 
        1.79171          48.813         6.69833         6.69833 
        1.79785         48.6388          6.6419          6.6419 
        1.80399         48.4464         6.58613         6.58613 
        1.81012          48.104         6.53108         6.53108 
        1.81625         47.9082         6.47667         6.47667 
        1.82239         47.5735         6.42281         6.42281 
        1.82853         47.4205         6.36958         6.36958 
        1.83466         47.0883           6.317           6.317 
        1.84078         46.8506         6.26507         6.26507 
        1.84692         46.8023         6.21364         6.21364 
        1.85306          46.509         6.16272         6.16272 
         1.8592         46.1917         6.11246         6.11246 
        1.86533          46.009         6.06278         6.06278 
        1.87147         45.7169         6.01359         6.01359 
