# k  (h/Mpc)    Pcb(k)  (Mpc/h)^3    Pcb_linear(k) (Mpc/h)^3    Pcb_NL(k) (Mpc/h)^3   ShotnoiseSubtracted = false
     0.00783031         13273.6         13348.8         13348.8 
       0.013688         15172.4         15539.5         15539.5 
       0.019231         14790.2         14985.1         14985.1 
      0.0249154           13291         13228.4         13228.4 
      0.0312784         10901.2         10957.9         10957.9 
      0.0375637         8949.89         9051.74         9051.74 
      0.0433917         7772.65         7774.33         7774.33 
      0.0492413         6874.41         6917.96         6917.96 
      0.0555754         6309.33         6304.26         6304.26 
      0.0619321         5668.98         5820.27         5820.27 
       0.067871         5292.64         5355.66         5355.66 
      0.0738098         4819.21         4829.65         4829.65 
      0.0800417          4258.4         4235.99         4235.99 
      0.0862327         3690.92         3671.03         3671.03 
      0.0921407         3264.47         3214.55         3214.55 
      0.0982031         2953.04          2860.4          2860.4 
       0.104506         2655.06         2610.42         2610.42 
       0.110769         2500.64         2448.85         2448.85 
       0.116806          2411.6         2332.77         2332.77 
       0.122832         2268.17         2217.94         2217.94 
       0.129052         2126.26         2076.56         2076.56 
       0.135211         2009.89         1910.39         1910.39 
       0.141259         1819.48         1735.53         1735.53 
       0.147318         1649.52         1568.87         1568.87 
       0.153489         1526.85         1425.05         1425.05 
       0.159709         1451.18         1314.63         1314.63 
       0.165845         1334.83         1237.36         1237.36 
       0.171974         1309.79         1182.09         1182.09 
       0.178125         1264.49         1136.13         1136.13 
       0.184229            1175         1089.03         1089.03 
        0.19034         1143.79         1034.19         1034.19 
       0.196428         1095.86          971.59          971.59 
       0.202534         1010.48         905.121         905.121 
       0.208729         981.748         840.273         840.273 
       0.214876         929.526         783.879         783.879 
       0.220989         871.559         738.252         738.252 
       0.227147         849.051         702.415         702.415 
        0.23329         816.679         674.068         674.068 
       0.239377         806.758         649.574         649.574 
       0.245482         765.403         625.222         625.222 
       0.251667         734.672         598.718         598.718 
       0.257832         721.276         570.117         570.117 
       0.263955         680.484         540.666         540.666 
       0.270079         653.981         512.002         512.002 
        0.27624         624.844         485.628         485.628 
       0.282372         610.966         462.812         462.812 
        0.28843         603.349         443.682         443.682 
       0.294538         572.225         427.125         427.125 
       0.300721         556.673         412.077         412.077 
        0.30691         545.335         397.605         397.605 
       0.313033         520.048         383.152         383.152 
       0.319153          511.33         368.308         368.308 
       0.325316         501.583          353.21          353.21 
        0.33145         488.256         338.501         338.501 
       0.337538         469.602         324.735         324.735 
       0.343633         455.701         312.125         312.125 
       0.349808         444.165         300.631         300.631 
       0.355968         435.192         290.307         290.307 
       0.362074         419.323          280.87          280.87 
       0.368217         416.306         271.861         271.861 
       0.374374         408.114         263.029         263.029 
       0.380519         391.197         254.288         254.288 
       0.386598         386.329         245.738         245.738 
       0.392688         376.004         237.359         237.359 
        0.39888          366.36         229.193         229.193 
       0.405048         358.109         221.533         221.533 
       0.411186         356.738         214.414         214.414 
       0.417313         350.838         207.801         207.801 
       0.423458         341.204          201.58          201.58 
       0.429607         330.902         195.648         195.648 
       0.435692         325.634         189.987         189.987 
       0.441815         319.789         184.446         184.446 
       0.447964         311.712         179.003         179.003 
       0.454126         307.909         173.695         173.695 
       0.460267         302.741         168.594         168.594 
       0.466387          296.11         163.726         163.726 
        0.47254         292.135         159.059         159.059 
       0.478662         285.088         154.647         154.647 
       0.484765         280.936         150.466         150.466 
       0.490885         277.705         146.454         146.454 
       0.497035         271.971         142.566         142.566 
       0.503198         270.625         138.795         138.795 
       0.509342         264.049          135.15          135.15 
       0.515458         259.382         131.634         131.634 
       0.521598         254.537         128.212         128.212 
       0.527764         251.329         124.893         124.893 
       0.533884         249.334         121.721         121.721 
           0.54         245.043         118.679         118.679 
       0.546137         239.367         115.746         115.746 
       0.552299         237.869         112.911         112.911 
       0.558452         233.674         110.177         110.177 
       0.564573         232.047         107.543         107.543 
       0.570708         227.236         104.985         104.985 
       0.576825         223.438         102.514         102.514 
       0.582926         221.681         100.127         100.127 
       0.589034          217.76         97.8112         97.8112 
       0.595184         216.043         95.5528         95.5528 
       0.601379          212.49         93.3513         93.3513 
       0.607522         207.578         91.2386         91.2386 
       0.613639         206.589         89.2033         89.2033 
       0.619772          205.27         87.2284         87.2284 
       0.625918          201.88         85.3115         85.3115 
       0.632068         198.715         83.4522         83.4522 
       0.638161         197.354         81.6645         81.6645 
         0.6443         194.806         79.9151         79.9151 
       0.650464         191.573         78.2091         78.2091 
       0.656582         189.777          76.564          76.564 
       0.662703         188.445         74.9654         74.9654 
       0.668861          184.47         73.4035         73.4035 
       0.675024         183.951         71.8857         71.8857 
       0.681124         181.363         70.4271         70.4271 
       0.687237         179.805         69.0071         69.0071 
       0.693381         176.776         67.6205         67.6205 
       0.699536         175.792           66.27           66.27 
       0.705665         173.698         64.9626         64.9626 
       0.711789         171.258         63.6917         63.6917 
       0.717957         169.818          62.446          62.446 
        0.72409         167.423         61.2403         61.2403 
       0.730186         168.149         60.0737         60.0737 
       0.736317         165.401          58.931          58.931 
       0.742472         163.102         57.8138         57.8138 
       0.748622          160.83         56.7267         56.7267 
        0.75476          161.16         55.6699         55.6699 
       0.760888         158.867         54.6418         54.6418 
       0.767043         156.233         53.6357         53.6357 
       0.773185         154.785         52.6572         52.6572 
       0.779291         153.224         51.7088         51.7088 
       0.785407         152.151         50.7825         50.7825 
       0.791564         150.791         49.8731         49.8731 
       0.797719         148.258         48.9866         48.9866 
       0.803834         148.763         48.1274         48.1274 
       0.809972         146.886         47.2857         47.2857 
       0.816124         144.321         46.4624         46.4624 
       0.822261         143.521         45.6609         45.6609 
       0.828378         142.932         44.8809         44.8809 
       0.834502         141.244         44.1184         44.1184 
       0.840667         140.848         43.3688         43.3688 
       0.846816          138.34         42.6388         42.6388 
       0.852925         137.698         41.9302         41.9302 
       0.859047         136.279         41.2363         41.2363 
       0.865192         135.651         40.5559         40.5559 
       0.871341         134.172         39.8904         39.8904 
       0.877463         132.914         39.2429         39.2429 
       0.883569         132.711         38.6115         38.6115 
       0.889708         131.359         37.9908         37.9908 
       0.895864           129.9         37.3822         37.3822 
       0.902008         128.491         36.7882         36.7882 
       0.908149         127.247         36.2075         36.2075 
       0.914301         126.458         35.6384         35.6384 
       0.920448         126.433         35.0822         35.0822 
       0.926574         124.272         34.5398         34.5398 
       0.932687         124.086           34.01           34.01 
       0.938823         123.023         33.4895         33.4895 
       0.944975         122.187         32.9786         32.9786 
       0.951105         120.874         32.4803         32.4803 
       0.957225         120.181         31.9931         31.9931 
       0.963368         119.266         31.5143         31.5143 
       0.969511         118.038         31.0453         31.0453 
       0.975621         116.592         30.5884         30.5884 
       0.981748          116.19         30.1395         30.1395 
       0.987916         115.516         29.6968         29.6968 
        0.99406         114.714         29.2647         29.2647 
        1.00019         113.939          28.842          28.842 
        1.00632         112.899         28.4281         28.4281 
        1.01246         112.088         28.0217         28.0217 
        1.01859         111.312         27.6239         27.6239 
        1.02471         110.509         27.2343         27.2343 
        1.03085         109.598         26.8508         26.8508 
        1.03698         108.744         26.4756         26.4756 
        1.04314         108.355          26.106          26.106 
        1.04929         107.654         25.7442         25.7442 
        1.05541         106.892         25.3908         25.3908 
        1.06154         105.744         25.0432         25.0432 
        1.06769         105.247         24.7015         24.7015 
        1.07382         104.646         24.3674         24.3674 
        1.07993         103.801         24.0402         24.0402 
        1.08607         103.377         23.7176         23.7176 
        1.09222         102.368         23.4007         23.4007 
        1.09836          101.71           23.09           23.09 
        1.10449         101.092         22.7852         22.7852 
        1.11063         100.189         22.4856         22.4856 
        1.11677         99.7682         22.1916         22.1916 
         1.1229         98.7892         21.9032         21.9032 
        1.12903         98.1062         21.6198         21.6198 
        1.13518         97.3662         21.3412         21.3412 
        1.14131         97.0267         21.0676         21.0676 
        1.14745         96.3331          20.799          20.799 
        1.15359         95.4771          20.535          20.535 
        1.15973          95.125         20.2755         20.2755 
        1.16584          94.385         20.0216         20.0216 
        1.17197         93.9603         19.7717         19.7717 
        1.17811         93.1347         19.5254         19.5254 
        1.18424         92.5298         19.2839         19.2839 
        1.19038         92.0513         19.0458         19.0458 
        1.19652          91.487         18.8119         18.8119 
        1.20267         90.8005         18.5819         18.5819 
        1.20881         90.0824         18.3557         18.3557 
        1.21495         89.7499         18.1337         18.1337 
        1.22108         89.1463         17.9154         17.9154 
         1.2272         88.6332         17.7012         17.7012 
        1.23334         88.2329         17.4899         17.4899 
        1.23949          87.621         17.2817         17.2817 
        1.24562          86.833         17.0774         17.0774 
        1.25174         86.7006         16.8767         16.8767 
        1.25789         85.8532         16.6786         16.6786 
        1.26402         85.5716          16.484          16.484 
        1.27014         84.7566          16.293          16.293 
        1.27628         84.3839         16.1045         16.1045 
        1.28244         84.1039         15.9185         15.9185 
        1.28858         83.3556         15.7358         15.7358 
        1.29471         82.8676         15.5563         15.5563 
        1.30084         82.1631         15.3798         15.3798 
        1.30697         81.8481         15.2058         15.2058 
        1.31312         81.3445         15.0342         15.0342 
        1.31925         80.6717         14.8658         14.8658 
        1.32537         80.3073         14.7002         14.7002 
        1.33151         80.1914         14.5365         14.5365 
        1.33765         79.4124         14.3753         14.3753 
        1.34378         79.0859         14.2169         14.2169 
        1.34992          78.681         14.0608         14.0608 
        1.35606         78.1888         13.9068         13.9068 
         1.3622         77.9477         13.7552         13.7552 
        1.36833         77.2037         13.6063         13.6063 
        1.37445         76.9199         13.4597         13.4597 
        1.38059         76.4422         13.3148         13.3148 
        1.38675         75.8724         13.1717         13.1717 
        1.39288         75.4006         13.0312         13.0312 
        1.39901         75.0507         12.8929         12.8929 
        1.40515         74.5536         12.7563         12.7563 
         1.4113         74.1547         12.6216         12.6216 
        1.41742         73.8228         12.4895         12.4895 
        1.42355         73.4939          12.359          12.359 
         1.4297         72.9646         12.2299         12.2299 
        1.43585         72.6227         12.1028         12.1028 
        1.44198         71.9688         11.9779         11.9779 
        1.44809         71.4908          11.855          11.855 
        1.45423          71.542         11.7334         11.7334 
        1.46036         70.9074         11.6138         11.6138 
        1.46649         70.4115         11.4957         11.4957 
        1.47263         69.9466         11.3792         11.3792 
        1.47877         69.6879         11.2643         11.2643 
        1.48491         69.2419         11.1509         11.1509 
        1.49104         68.7174         11.0392         11.0392 
        1.49718         68.4347          10.929          10.929 
        1.50333         68.1632         10.8201         10.8201 
        1.50947         67.8402          10.713          10.713 
         1.5156         67.5592         10.6074         10.6074 
        1.52172         66.8662         10.5032         10.5032 
        1.52787         66.6494         10.4002         10.4002 
          1.534          66.234         10.2988         10.2988 
        1.54013         65.9958         10.1988         10.1988 
        1.54627         65.4136         10.0999         10.0999 
        1.55241         65.3925         10.0023         10.0023 
        1.55855         64.6267         9.90617         9.90617 
        1.56467         64.2511         9.81155         9.81155 
         1.5708         63.9254         9.71789         9.71789 
        1.57695         63.6671         9.62532         9.62532 
        1.58308         63.3696         9.53416         9.53416 
        1.58922         63.1488         9.44411         9.44411 
        1.59535         62.9228         9.35526         9.35526 
         1.6015         62.3522         9.26743         9.26743 
        1.60764         62.0341         9.18077         9.18077 
        1.61376         61.8129         9.09545         9.09545 
        1.61989         61.2809         9.01114         9.01114 
        1.62604         61.1243         8.92771         8.92771 
        1.63218         60.7446         8.84538         8.84538 
        1.63831         60.4502         8.76428         8.76428 
        1.64444         60.1205         8.68416         8.68416 
        1.65059         59.7629         8.60485         8.60485 
        1.65673         59.5152         8.52662         8.52662 
        1.66285         59.0925         8.44957         8.44957 
        1.66898         58.6814         8.37345         8.37345 
        1.67512         58.3609         8.29812         8.29812 
        1.68127         58.2083         8.22365         8.22365 
         1.6874          57.813         8.15025         8.15025 
        1.69353         57.5073         8.07779         8.07779 
        1.69967         57.2237         8.00604         8.00604 
        1.70581         56.9388         7.93519         7.93519 
        1.71193         56.5237         7.86547         7.86547 
        1.71806         56.3811         7.79643         7.79643 
        1.72421         56.0387         7.72808         7.72808 
        1.73035          55.697         7.66063         7.66063 
        1.73649          55.393         7.59399         7.59399 
        1.74262         55.0864          7.5282          7.5282 
        1.74876         54.8827         7.46315         7.46315 
        1.75489         54.5664         7.39899         7.39899 
        1.76101         54.3146         7.33561         7.33561 
        1.76715          53.953         7.27287         7.27287 
        1.77329         53.6701          7.2108          7.2108 
        1.77943         53.5488         7.14941         7.14941 
        1.78557         53.2252         7.08884         7.08884 
        1.79171         52.7831         7.02894         7.02894 
        1.79785         52.5984         6.96973         6.96973 
        1.80399           52.43         6.91121         6.91121 
        1.81012         52.0222         6.85344         6.85344 
        1.81625         51.8109         6.79635         6.79635 
        1.82239         51.4245         6.73983         6.73983 
        1.82853         51.2875         6.68397         6.68397 
        1.83466         50.8999          6.6288          6.6288 
        1.84078         50.6592         6.57431         6.57431 
        1.84692         50.5989         6.52034         6.52034 
        1.85306         50.3047         6.46691         6.46691 
         1.8592         49.9709         6.41416         6.41416 
        1.86533         49.7312         6.36202         6.36202 
        1.87147          49.426         6.31041         6.31041 
