# k  (h/Mpc)    P(k)  (Mpc/h)^3    P_linear(k)  (Mpc/h)^3     P_NL(k)  ShotnoiseSubtracted = false
     0.00783031         11293.9         11360.1         11360.1 
       0.013688         12931.6         13225.1         13225.1 
       0.019231         12601.2         12753.6         12753.6 
      0.0249154           11311         11258.6         11258.6 
      0.0312784         9286.91         9326.29         9326.29 
      0.0375637         7627.61         7703.97         7703.97 
      0.0433917         6620.17         6616.79         6616.79 
      0.0492413         5856.65         5887.94         5887.94 
      0.0555754         5374.65         5365.63         5365.63 
      0.0619321         4836.81          4953.7          4953.7 
       0.067871         4513.21         4558.28         4558.28 
      0.0738098         4104.84         4110.58         4110.58 
      0.0800417         3626.06         3605.31         3605.31 
      0.0862327         3141.29         3124.47         3124.47 
      0.0921407         2774.04         2735.95         2735.95 
      0.0982031         2506.29         2434.53         2434.53 
       0.104506         2254.19         2221.77         2221.77 
       0.110769         2122.52         2084.26         2084.26 
       0.116806         2046.85         1985.46         1985.46 
       0.122832         1924.74         1887.73         1887.73 
       0.129052         1806.21          1767.4          1767.4 
       0.135211         1702.44         1625.96         1625.96 
       0.141259         1540.95         1477.14         1477.14 
       0.147318         1394.53         1335.29         1335.29 
       0.153489         1288.84         1212.89         1212.89 
       0.159709         1221.62          1118.9          1118.9 
       0.165845         1123.96         1053.14         1053.14 
       0.171974         1103.06          1006.1          1006.1 
       0.178125         1063.43         966.985         966.985 
       0.184229         990.929         926.896         926.896 
        0.19034         962.619         880.221         880.221 
       0.196428         920.354         826.938         826.938 
       0.202534         847.169         770.364         770.364 
       0.208729         821.334         715.172         715.172 
       0.214876         777.728         667.174         667.174 
       0.220989         726.893         628.339         628.339 
       0.227147         708.477         597.837         597.837 
        0.23329          681.64         573.711         573.711 
       0.239377         671.558         552.864         552.864 
       0.245482         637.176         532.136         532.136 
       0.251667         610.868         509.578         509.578 
       0.257832         599.861         485.238         485.238 
       0.263955         564.665         460.171         460.171 
       0.270079         541.494         435.774         435.774 
        0.27624         517.042         413.326         413.326 
       0.282372         504.208         393.907         393.907 
        0.28843         498.501         377.625         377.625 
       0.294538         472.698         363.533         363.533 
       0.300721         458.554         350.726         350.726 
        0.30691         449.793         338.408         338.408 
       0.313033         428.644         326.108         326.108 
       0.319153         420.888         313.473         313.473 
       0.325316         411.695         300.624         300.624 
        0.33145         400.336         288.105         288.105 
       0.337538         384.931         276.387         276.387 
       0.343633         372.874         265.656         265.656 
       0.349808         362.926         255.873         255.873 
       0.355968         355.356         247.085         247.085 
       0.362074         343.026         239.054         239.054 
       0.368217         339.728         231.385         231.385 
       0.374374         332.245         223.869         223.869 
       0.380519         318.407         216.429         216.429 
       0.386598         313.827         209.152         209.152 
       0.392688         305.166         202.021         202.021 
        0.39888         297.531         195.069         195.069 
       0.405048         290.744         188.551         188.551 
       0.411186          288.96         182.491         182.491 
       0.417313          283.51         176.863         176.863 
       0.423458         275.811         171.568         171.568 
       0.429607         267.732          166.52          166.52 
       0.435692         263.218         161.702         161.702 
       0.441815         258.265         156.986         156.986 
       0.447964         251.046         152.353         152.353 
       0.454126         247.626         147.835         147.835 
       0.460267         243.814         143.493         143.493 
       0.466387         238.246          139.35          139.35 
        0.47254         235.074         135.378         135.378 
       0.478662         228.721         131.623         131.623 
       0.484765         225.409         128.064         128.064 
       0.490885         222.363         124.649         124.649 
       0.497035         218.391         121.341         121.341 
       0.503198         216.561         118.131         118.131 
       0.509342         210.994         115.029         115.029 
       0.515458         207.521         112.036         112.036 
       0.521598         202.975         109.124         109.124 
       0.527764         200.824         106.299         106.299 
       0.533884         199.298         103.599         103.599 
           0.54         195.163          101.01          101.01 
       0.546137         190.568         98.5138         98.5138 
       0.552299         188.897         96.1005         96.1005 
       0.558452         185.562         93.7736         93.7736 
       0.564573         184.335         91.5319         91.5319 
       0.570708         180.011         89.3548         89.3548 
       0.576825         177.283         87.2519         87.2519 
       0.582926         175.558           85.22           85.22 
       0.589034         172.564         83.2489         83.2489 
       0.595184         170.987         81.3268         81.3268 
       0.601379         167.979          79.453          79.453 
       0.607522         164.159         77.6549         77.6549 
       0.613639         163.142         75.9226         75.9226 
       0.619772         161.604         74.2417         74.2417 
       0.625918         159.594         72.6102         72.6102 
       0.632068         156.276         71.0277         71.0277 
       0.638161         155.114         69.5062         69.5062 
         0.6443         153.513         68.0172         68.0172 
       0.650464         150.538         66.5652         66.5652 
       0.656582         149.387          65.165          65.165 
       0.662703         148.002         63.8044         63.8044 
       0.668861         144.867         62.4751         62.4751 
       0.675024         144.611         61.1832         61.1832 
       0.681124         142.393         59.9418         59.9418 
       0.687237         140.883         58.7333         58.7333 
       0.693381         138.753          57.553          57.553 
       0.699536         137.636         56.4037         56.4037 
       0.705665         135.994         55.2909         55.2909 
       0.711789         133.997         54.2092         54.2092 
       0.717957         132.659         53.1489         53.1489 
        0.72409         130.977         52.1228         52.1228 
       0.730186         131.187         51.1298         51.1298 
       0.736317         129.137         50.1573         50.1573 
       0.742472          127.04         49.2064         49.2064 
       0.748622         125.134         48.2812         48.2812 
        0.75476         125.571         47.3817         47.3817 
       0.760888         123.859         46.5067         46.5067 
       0.767043         121.609         45.6504         45.6504 
       0.773185         120.305         44.8175         44.8175 
       0.779291         119.051         44.0103         44.0103 
       0.785407         118.134         43.2219         43.2219 
       0.791564         117.075          42.448          42.448 
       0.797719          115.21         41.6934         41.6934 
       0.803834         115.326         40.9621         40.9621 
       0.809972          114.05         40.2457         40.2457 
       0.816124         112.071          39.545          39.545 
       0.822261         111.302         38.8629         38.8629 
       0.828378         110.857         38.1989         38.1989 
       0.834502         109.519           37.55           37.55 
       0.840667         108.921          36.912          36.912 
       0.846816         107.343         36.2906         36.2906 
       0.852925         106.475         35.6876         35.6876 
       0.859047         105.474          35.097          35.097 
       0.865192         104.742         34.5179         34.5179 
       0.871341         103.706         33.9515         33.9515 
       0.877463         102.766         33.4004         33.4004 
       0.883569         102.584          32.863          32.863 
       0.889708         101.525         32.3347         32.3347 
       0.895864         100.498         31.8166         31.8166 
       0.902008         99.2544         31.3111         31.3111 
       0.908149         98.1563         30.8169         30.8169 
       0.914301         97.7961         30.3325         30.3325 
       0.920448         97.7176         29.8591         29.8591 
       0.926574         95.7334         29.3974         29.3974 
       0.932687         95.6258         28.9465         28.9465 
       0.938823         94.8804         28.5035         28.5035 
       0.944975         93.9744         28.0687         28.0687 
       0.951105          93.031         27.6446         27.6446 
       0.957225         92.6532           27.23           27.23 
       0.963368         91.6946         26.8224         26.8224 
       0.969511         91.0279         26.4232         26.4232 
       0.975621         89.8382         26.0343         26.0343 
       0.981748         89.3898         25.6523         25.6523 
       0.987916         88.7683         25.2755         25.2755 
        0.99406         88.3691         24.9077         24.9077 
        1.00019         87.4737          24.548          24.548 
        1.00632         86.6696         24.1956         24.1956 
        1.01246         86.1365         23.8497         23.8497 
        1.01859         85.6473         23.5112         23.5112 
        1.02471         85.0337         23.1796         23.1796 
        1.03085         84.1932         22.8532         22.8532 
        1.03698         83.5081         22.5339         22.5339 
        1.04314         83.0408         22.2193         22.2193 
        1.04929         82.5648         21.9114         21.9114 
        1.05541         81.8589         21.6106         21.6106 
        1.06154         81.1515         21.3147         21.3147 
        1.06769          80.713         21.0239         21.0239 
        1.07382         80.1185         20.7395         20.7395 
        1.07993         79.6547          20.461          20.461 
        1.08607         79.1129         20.1865         20.1865 
        1.09222         78.5508         19.9168         19.9168 
        1.09836         77.8941         19.6523         19.6523 
        1.10449         77.4125         19.3929         19.3929 
        1.11063         76.8144         19.1379         19.1379 
        1.11677            76.4         18.8876         18.8876 
         1.1229         75.6191         18.6423         18.6423 
        1.12903         75.2275          18.401          18.401 
        1.13518         74.6667         18.1639         18.1639 
        1.14131           74.24          17.931          17.931 
        1.14745         73.8953         17.7024         17.7024 
        1.15359         73.0094         17.4777         17.4777 
        1.15973         72.8334         17.2568         17.2568 
        1.16584         72.3055         17.0408         17.0408 
        1.17197         71.9108         16.8281         16.8281 
        1.17811         71.2887         16.6184         16.6184 
        1.18424         70.7469         16.4129         16.4129 
        1.19038         70.4982         16.2103         16.2103 
        1.19652         70.0533         16.0111         16.0111 
        1.20267         69.5122         15.8154         15.8154 
        1.20881         68.9882         15.6229         15.6229 
        1.21495         68.5876         15.4339         15.4339 
        1.22108         68.3144         15.2481         15.2481 
         1.2272         67.7397         15.0658         15.0658 
        1.23334         67.5279          14.886          14.886 
        1.23949         66.9942         14.7088         14.7088 
        1.24562          66.377         14.5349         14.5349 
        1.25174         66.2056          14.364          14.364 
        1.25789         65.7735         14.1954         14.1954 
        1.26402         65.4108         14.0298         14.0298 
        1.27014         64.8975         13.8673         13.8673 
        1.27628         64.5053         13.7068         13.7068 
        1.28244         64.4172         13.5486         13.5486 
        1.28858          63.783          13.393          13.393 
        1.29471         63.3601         13.2403         13.2403 
        1.30084         62.8041         13.0901         13.0901 
        1.30697         62.7273         12.9419         12.9419 
        1.31312         62.3356         12.7959         12.7959 
        1.31925         61.7681         12.6526         12.6526 
        1.32537         61.5127         12.5116         12.5116 
        1.33151         61.3019         12.3722         12.3722 
        1.33765         60.8112         12.2351         12.2351 
        1.34378         60.4337         12.1003         12.1003 
        1.34992         60.2191         11.9674         11.9674 
        1.35606         59.7713         11.8363         11.8363 
         1.3622         59.5768         11.7073         11.7073 
        1.36833         59.1074         11.5806         11.5806 
        1.37445         58.7298         11.4558         11.4558 
        1.38059         58.4697         11.3325         11.3325 
        1.38675         57.9313         11.2107         11.2107 
        1.39288         57.7069         11.0911         11.0911 
        1.39901         57.3191         10.9734         10.9734 
        1.40515          57.026         10.8571         10.8571 
         1.4113         56.7482         10.7425         10.7425 
        1.41742         56.3702           10.63           10.63 
        1.42355         56.2158          10.519          10.519 
         1.4297         55.8419         10.4091         10.4091 
        1.43585         55.5285         10.3009         10.3009 
        1.44198         55.1197         10.1946         10.1946 
        1.44809         54.6588         10.0901         10.0901 
        1.45423         54.6519         9.98656         9.98656 
        1.46036         54.2922         9.88469         9.88469 
        1.46649         53.8638         9.78421         9.78421 
        1.47263         53.5807         9.68505         9.68505 
        1.47877         53.3327          9.5873          9.5873 
        1.48491         52.9385         9.49074         9.49074 
        1.49104         52.6441         9.39571         9.39571 
        1.49718         52.4215          9.3019          9.3019 
        1.50333          52.205         9.20922         9.20922 
        1.50947         51.9133         9.11799         9.11799 
         1.5156         51.7511         9.02814         9.02814 
        1.52172         51.2516         8.93948         8.93948 
        1.52787         50.9967         8.85184         8.85184 
          1.534         50.6672         8.76548         8.76548 
        1.54013          50.623         8.68036         8.68036 
        1.54627         50.1019         8.59621         8.59621 
        1.55241         50.0338         8.51316         8.51316 
        1.55855         49.5485         8.43133         8.43133 
        1.56467         49.1842         8.35079         8.35079 
         1.5708         49.1543         8.27108         8.27108 
        1.57695         48.8107         8.19229         8.19229 
        1.58308         48.6012          8.1147          8.1147 
        1.58922         48.3426         8.03806         8.03806 
        1.59535          48.271         7.96244         7.96244 
         1.6015           47.96         7.88768         7.88768 
        1.60764         47.6411         7.81392         7.81392 
        1.61376         47.4125          7.7413          7.7413 
        1.61989         46.9747         7.66955         7.66955 
        1.62604         46.8897         7.59854         7.59854 
        1.63218         46.5977         7.52847         7.52847 
        1.63831         46.4034         7.45944         7.45944 
        1.64444         46.2276         7.39125         7.39125 
        1.65059         45.8698         7.32375         7.32375 
        1.65673         45.6503         7.25716         7.25716 
        1.66285         45.3815         7.19159         7.19159 
        1.66898         45.0884          7.1268          7.1268 
        1.67512         44.8343         7.06269         7.06269 
        1.68127         44.7834          6.9993          6.9993 
         1.6874         44.4924         6.93683         6.93683 
        1.69353          44.193         6.87516         6.87516 
        1.69967         44.0375         6.81409         6.81409 
        1.70581          43.773         6.75379         6.75379 
        1.71193          43.511         6.69445         6.69445 
        1.71806         43.3666         6.63569         6.63569 
        1.72421         43.1193         6.57751         6.57751 
        1.73035         42.9182          6.5201          6.5201 
        1.73649         42.6273         6.46339         6.46339 
        1.74262         42.3438         6.40739         6.40739 
        1.74876         42.3611         6.35202         6.35202 
        1.75489          42.027         6.29742         6.29742 
        1.76101          41.873         6.24347         6.24347 
        1.76715         41.5991         6.19008         6.19008 
        1.77329         41.3428         6.13724         6.13724 
        1.77943         41.3041           6.085           6.085 
        1.78557         40.9952         6.03344         6.03344 
        1.79171         40.7576         5.98247         5.98247 
        1.79785         40.5992         5.93207         5.93207 
        1.80399          40.374         5.88226         5.88226 
        1.81012         40.1287         5.83309         5.83309 
        1.81625         39.9668          5.7845          5.7845 
        1.82239         39.7195         5.73639         5.73639 
        1.82853         39.5733         5.68885         5.68885 
        1.83466         39.3505         5.64189         5.64189 
        1.84078         39.1328         5.59551         5.59551 
        1.84692         39.0429         5.54958         5.54958 
        1.85306         38.7996          5.5041          5.5041 
         1.8592         38.5305         5.45921         5.45921 
        1.86533         38.4198         5.41484         5.41484 
        1.87147         38.1888         5.37091         5.37091 
        1.87761         38.0295         5.32744         5.32744 
