# k  (h/Mpc)    Pcb(k)  (Mpc/h)^3    Pcb_linear(k) (Mpc/h)^3    Pcb_NL(k) (Mpc/h)^3   ShotnoiseSubtracted = false
     0.00783031         20722.3         20827.4         20827.4 
       0.013688         23547.4         24241.6         24241.6 
       0.019231         22981.2           23375           23375 
      0.0249154         20728.7         20633.9         20633.9 
      0.0312784         16939.1         17091.9         17091.9 
      0.0375637           13890         14118.5         14118.5 
      0.0433917         12085.9         12125.9         12125.9 
      0.0492413         10681.7         10790.1         10790.1 
      0.0555754         9801.72         9832.83         9832.83 
      0.0619321         8764.13          9077.9          9077.9 
       0.067871         8192.17         8353.22         8353.22 
      0.0738098         7492.28         7532.77         7532.77 
      0.0800417         6624.88         6606.83         6606.83 
      0.0862327         5755.24         5725.65         5725.65 
      0.0921407         5120.04         5013.68         5013.68 
      0.0982031         4651.38         4461.31         4461.31 
       0.104506         4179.65         4071.42         4071.42 
       0.110769         3939.93         3819.42         3819.42 
       0.116806         3795.07         3638.37         3638.37 
       0.122832         3577.19         3459.27         3459.27 
       0.129052         3337.81         3238.76         3238.76 
       0.135211         3185.66         2979.58         2979.58 
       0.141259         2886.62         2706.86         2706.86 
       0.147318          2638.2         2446.93         2446.93 
       0.153489         2454.14         2222.61         2222.61 
       0.159709         2352.46         2050.39         2050.39 
       0.165845         2167.03         1929.88         1929.88 
       0.171974         2118.96         1843.67         1843.67 
       0.178125          2056.3            1772            1772 
       0.184229         1896.04         1698.53         1698.53 
        0.19034         1859.17            1613            1613 
       0.196428         1791.56         1515.36         1515.36 
       0.202534         1667.78         1411.69         1411.69 
       0.208729         1625.23         1310.55         1310.55 
       0.214876         1538.74         1222.59         1222.59 
       0.220989         1462.03         1151.43         1151.43 
       0.227147         1419.87         1095.54         1095.54 
        0.23329         1364.63         1051.32         1051.32 
       0.239377         1357.31         1013.12         1013.12 
       0.245482         1291.34         975.138         975.138 
       0.251667         1243.21         933.801         933.801 
       0.257832         1217.72         889.194         889.194 
       0.263955         1158.82          843.26          843.26 
       0.270079         1122.99         798.553         798.553 
        0.27624         1075.36         757.419         757.419 
       0.282372         1060.37         721.833         721.833 
        0.28843         1038.35         691.996         691.996 
       0.294538         990.724         666.173         666.173 
       0.300721          971.38         642.703         642.703 
        0.30691         945.227         620.131         620.131 
       0.313033         907.577          597.59          597.59 
       0.319153         897.041         574.437         574.437 
       0.325316         883.688          550.89          550.89 
        0.33145           861.1         527.949         527.949 
       0.337538         831.517         506.478         506.478 
       0.343633         811.678         486.811         486.811 
       0.349808         795.322         468.884         468.884 
       0.355968         778.824         452.782         452.782 
       0.362074         752.262         438.064         438.064 
       0.368217         748.688         424.013         424.013 
       0.374374         737.281         410.237         410.237 
       0.380519         709.748         396.604         396.604 
       0.386598         704.347          383.27          383.27 
       0.392688         685.579           370.2           370.2 
        0.39888         671.609         357.464         357.464 
       0.405048         655.797         345.517         345.517 
       0.411186          655.15         334.414         334.414 
       0.417313         647.201           324.1           324.1 
       0.423458         629.752         314.397         314.397 
       0.429607         611.782         305.146         305.146 
       0.435692         604.547         296.317         296.317 
       0.441815         593.128         287.674         287.674 
       0.447964         583.916         279.186         279.186 
       0.454126         576.617         270.907         270.907 
       0.460267         568.514          262.95          262.95 
       0.466387         556.097         255.358         255.358 
        0.47254         549.958         248.078         248.078 
       0.478662         539.577         241.198         241.198 
       0.484765         532.071         234.676         234.676 
       0.490885         528.163         228.419         228.419 
       0.497035         515.572         222.356         222.356 
       0.503198         514.584         216.473         216.473 
       0.509342         504.571          210.79          210.79 
       0.515458         494.536         205.305         205.305 
       0.521598         492.309         199.968         199.968 
       0.527764         481.239         194.791         194.791 
       0.533884         475.471         189.844         189.844 
           0.54           471.8         185.099         185.099 
       0.546137         463.614         180.526         180.526 
       0.552299         460.743         176.103         176.103 
       0.558452         453.708         171.839         171.839 
       0.564573         451.514         167.731         167.731 
       0.570708         444.697         163.742         163.742 
       0.576825         436.445         159.888         159.888 
       0.582926         435.157         156.165         156.165 
       0.589034         427.337         152.553         152.553 
       0.595184         423.729          149.03          149.03 
       0.601379         416.702         145.597         145.597 
       0.607522         409.511         142.302         142.302 
       0.613639         408.464         139.127         139.127 
       0.619772         405.841         136.047         136.047 
       0.625918             398         133.057         133.057 
       0.632068         396.746         130.158         130.158 
       0.638161         391.625         127.369         127.369 
         0.6443         386.278         124.641         124.641 
       0.650464         383.019          121.98          121.98 
       0.656582         379.091         119.414         119.414 
       0.662703         376.408         116.921         116.921 
       0.668861         370.264         114.485         114.485 
       0.675024         368.972         112.118         112.118 
       0.681124         360.981         109.843         109.843 
       0.687237         360.741         107.628         107.628 
       0.693381         355.144         105.465         105.465 
       0.699536         355.067         103.359         103.359 
       0.705665         349.327          101.32          101.32 
       0.711789         347.437         99.3377         99.3377 
       0.717957         343.852         97.3948         97.3948 
        0.72409         339.762         95.5144         95.5144 
       0.730186         339.956         93.6948         93.6948 
       0.736317         334.217         91.9127         91.9127 
       0.742472         331.537         90.1703         90.1703 
       0.748622         330.082         88.4747         88.4747 
        0.75476         325.905         86.8265         86.8265 
       0.760888         323.959         85.2229         85.2229 
       0.767043         320.567         83.6538         83.6538 
       0.773185         317.684         82.1276         82.1276 
       0.779291         314.929         80.6484         80.6484 
       0.785407         312.455         79.2037         79.2037 
       0.791564         310.849         77.7854         77.7854 
       0.797719         305.905         76.4028         76.4028 
       0.803834          306.05         75.0626         75.0626 
       0.809972         301.137         73.7499         73.7499 
       0.816124         298.986         72.4658         72.4658 
       0.822261         296.712         71.2158         71.2158 
       0.828378         295.099         69.9991         69.9991 
       0.834502         290.652         68.8099         68.8099 
       0.840667         290.141         67.6408         67.6408 
       0.846816         286.321         66.5022         66.5022 
       0.852925         286.547         65.3971         65.3971 
       0.859047         282.738         64.3148         64.3148 
       0.865192          281.35         63.2536         63.2536 
       0.871341         278.179         62.2157         62.2157 
       0.877463         276.916         61.2058         61.2058 
       0.883569         274.992          60.221          60.221 
       0.889708         272.263         59.2529         59.2529 
       0.895864         268.668         58.3036         58.3036 
       0.902008         267.717         57.3772         57.3772 
       0.908149         264.834         56.4716         56.4716 
       0.914301         263.971          55.584          55.584 
       0.920448         260.987         54.7165         54.7165 
       0.926574         259.149         53.8705         53.8705 
       0.932687         258.735         53.0442         53.0442 
       0.938823          255.77         52.2323         52.2323 
       0.944975         255.411         51.4356         51.4356 
       0.951105         252.708         50.6584         50.6584 
       0.957225         249.974         49.8986         49.8986 
       0.963368         250.075         49.1518         49.1518 
       0.969511         246.261         48.4203         48.4203 
       0.975621         243.809         47.7076         47.7076 
       0.981748          243.55         47.0075         47.0075 
       0.987916         241.964          46.317          46.317 
        0.99406         239.303         45.6431         45.6431 
        1.00019         237.449         44.9838         44.9838 
        1.00632         236.655         44.3383         44.3383 
        1.01246         234.905         43.7044         43.7044 
        1.01859         232.492          43.084          43.084 
        1.02471         230.851         42.4763         42.4763 
        1.03085          229.67         41.8783         41.8783 
        1.03698         228.502         41.2931         41.2931 
        1.04314         227.206         40.7166         40.7166 
        1.04929         225.494         40.1524         40.1524 
        1.05541         224.486         39.6012         39.6012 
        1.06154         222.075          39.059          39.059 
        1.06769         220.551         38.5261         38.5261 
        1.07382         218.447          38.005          38.005 
        1.07993         217.881         37.4946         37.4946 
        1.08607         216.522         36.9916         36.9916 
        1.09222         214.455         36.4973         36.4973 
        1.09836         213.262         36.0126         36.0126 
        1.10449         212.152         35.5373         35.5373 
        1.11063         210.677         35.0701         35.0701 
        1.11677         208.489         34.6114         34.6114 
         1.1229          208.44         34.1617         34.1617 
        1.12903         205.847         33.7197         33.7197 
        1.13518         204.672         33.2851         33.2851 
        1.14131         203.578         32.8584         32.8584 
        1.14745         201.792         32.4394         32.4394 
        1.15359         200.555         32.0277         32.0277 
        1.15973         199.647         31.6229         31.6229 
        1.16584         198.273          31.227          31.227 
        1.17197         197.293         30.8373         30.8373 
        1.17811         195.049          30.453          30.453 
        1.18424         194.081         30.0764         30.0764 
        1.19038         193.319         29.7051         29.7051 
        1.19652         191.061         29.3402         29.3402 
        1.20267         190.357         28.9815         28.9815 
        1.20881         189.065         28.6288         28.6288 
        1.21495         188.087         28.2825         28.2825 
        1.22108         186.818          27.942          27.942 
         1.2272         185.454         27.6079         27.6079 
        1.23334         184.008         27.2785         27.2785 
        1.23949         183.235         26.9536         26.9536 
        1.24562         181.839          26.635          26.635 
        1.25174           181.3         26.3219         26.3219 
        1.25789          179.46          26.013          26.013 
        1.26402         178.773         25.7095         25.7095 
        1.27014         177.637         25.4116         25.4116 
        1.27628         176.756         25.1176         25.1176 
        1.28244         174.947         24.8276         24.8276 
        1.28858         174.192         24.5426         24.5426 
        1.29471         172.786         24.2627         24.2627 
        1.30084         172.441         23.9874         23.9874 
        1.30697         170.959          23.716          23.716 
        1.31312         170.116         23.4484         23.4484 
        1.31925         168.917         23.1857         23.1857 
        1.32537         168.302         22.9273         22.9273 
        1.33151         166.502          22.672          22.672 
        1.33765         165.905         22.4207         22.4207 
        1.34378         165.114         22.1737         22.1737 
        1.34992         163.519         21.9302         21.9302 
        1.35606         162.898         21.6899         21.6899 
         1.3622         161.385         21.4536         21.4536 
        1.36833         161.085         21.2213         21.2213 
        1.37445         160.216         20.9927         20.9927 
        1.38059         158.477         20.7666         20.7666 
        1.38675         157.374         20.5434         20.5434 
        1.39288         156.795         20.3244         20.3244 
        1.39901         155.553         20.1086         20.1086 
        1.40515         154.682         19.8955         19.8955 
         1.4113         154.099         19.6855         19.6855 
        1.41742         152.918         19.4794         19.4794 
        1.42355          151.69         19.2759         19.2759 
         1.4297         150.963         19.0746         19.0746 
        1.43585         150.457         18.8763         18.8763 
        1.44198         149.086         18.6815         18.6815 
        1.44809         148.573         18.4899         18.4899 
        1.45423         147.644         18.3002         18.3002 
        1.46036         146.869         18.1136         18.1136 
        1.46649         145.505         17.9295         17.9295 
        1.47263         145.029         17.7477         17.7477 
        1.47877         144.067         17.5686         17.5686 
        1.48491         142.938         17.3917         17.3917 
        1.49104          141.84         17.2175         17.2175 
        1.49718         141.232         17.0456         17.0456 
        1.50333          140.07         16.8758         16.8758 
        1.50947         139.494         16.7086         16.7086 
         1.5156         138.542          16.544          16.544 
        1.52172         137.724         16.3815         16.3815 
        1.52787         137.092         16.2209         16.2209 
          1.534         136.442         16.0626         16.0626 
        1.54013         135.489         15.9067         15.9067 
        1.54627         134.699         15.7525         15.7525 
        1.55241          133.93         15.6003         15.6003 
        1.55855         133.016         15.4503         15.4503 
        1.56467         132.236         15.3027         15.3027 
         1.5708         131.497         15.1567         15.1567 
        1.57695         130.822         15.0123         15.0123 
        1.58308         129.752         14.8701         14.8701 
        1.58922         129.004         14.7297         14.7297 
        1.59535         128.253         14.5911         14.5911 
         1.6015         127.435         14.4541         14.4541 
        1.60764         126.607         14.3189         14.3189 
        1.61376         126.044         14.1858         14.1858 
        1.61989         125.236         14.0544         14.0544 
        1.62604         124.679         13.9242         13.9242 
        1.63218         123.719         13.7958         13.7958 
        1.63831         123.085         13.6693         13.6693 
        1.64444         122.129         13.5444         13.5444 
        1.65059         121.512         13.4207         13.4207 
        1.65673         120.774         13.2987         13.2987 
        1.66285         120.226         13.1785         13.1785 
        1.66898         119.504         13.0598         13.0598 
        1.67512         118.367         12.9423         12.9423 
        1.68127         118.087         12.8261         12.8261 
         1.6874         117.306         12.7117         12.7117 
        1.69353         116.657         12.5986         12.5986 
        1.69967         115.969         12.4867         12.4867 
        1.70581         115.242         12.3762         12.3762 
        1.71193         114.754         12.2675         12.2675 
        1.71806         113.714         12.1598         12.1598 
        1.72421         112.999         12.0532         12.0532 
        1.73035         112.667          11.948          11.948 
        1.73649         111.974         11.8441         11.8441 
        1.74262         111.056         11.7415         11.7415 
        1.74876         110.387           11.64           11.64 
        1.75489         110.246         11.5399         11.5399 
        1.76101         109.265         11.4411         11.4411 
        1.76715         108.643         11.3432         11.3432 
        1.77329          108.01         11.2464         11.2464 
        1.77943         107.195         11.1507         11.1507 
        1.78557         106.516         11.0562         11.0562 
        1.79171         105.901         10.9628         10.9628 
        1.79785         105.269         10.8704         10.8704 
        1.80399         104.649         10.7792         10.7792 
        1.81012         104.315         10.6891         10.6891 
        1.81625         103.384            10.6            10.6 
        1.82239         103.073         10.5119         10.5119 
        1.82853          102.26         10.4247         10.4247 
        1.83466         101.504         10.3387         10.3387 
        1.84078         101.177         10.2537         10.2537 
        1.84692         100.504         10.1695         10.1695 
        1.85306          99.862         10.0862         10.0862 
         1.8592         99.3485         10.0039         10.0039 
        1.86533         98.7088         9.92262         9.92262 
        1.87147         98.0403         9.84212         9.84212 
