# k  (h/Mpc)    P(k)  (Mpc/h)^3    P_linear(k)  (Mpc/h)^3     P_NL(k)  ShotnoiseSubtracted = false
     0.00783031         7481.04         7528.53         7528.53 
       0.013688         8600.04         8765.73         8765.73 
       0.019231         8372.54         8453.66         8453.66 
      0.0249154         7494.76         7462.93         7462.93 
      0.0312784         6168.14         6182.22         6182.22 
      0.0375637         5071.17         5106.88         5106.88 
      0.0433917         4394.41         4386.23         4386.23 
      0.0492413         3890.31         3903.11         3903.11 
      0.0555754         3568.15         3556.88         3556.88 
      0.0619321         3223.82         3283.83         3283.83 
       0.067871          3003.1         3021.71         3021.71 
      0.0738098         2724.84         2724.93         2724.93 
      0.0800417         2404.89         2389.99         2389.99 
      0.0862327         2081.58         2071.24         2071.24 
      0.0921407         1832.26         1813.69         1813.69 
      0.0982031         1650.55         1613.88         1613.88 
       0.104506          1486.4         1472.83         1472.83 
       0.110769         1398.63         1381.68         1381.68 
       0.116806         1347.61         1316.19         1316.19 
       0.122832         1267.62          1251.4          1251.4 
       0.129052         1191.61         1171.63         1171.63 
       0.135211         1115.85         1077.87         1077.87 
       0.141259         1009.86         979.214         979.214 
       0.147318         911.115         885.182         885.182 
       0.153489         838.946         804.038         804.038 
       0.159709         789.903         741.736         741.736 
       0.165845         728.076         698.141         698.141 
       0.171974         713.595         666.956         666.956 
       0.178125         686.045         641.028         641.028 
       0.184229         643.737         614.452         614.452 
        0.19034         622.442         583.511         583.511 
       0.196428         591.969         548.189         548.189 
       0.202534         543.768         510.685         510.685 
       0.208729         523.446         474.098         474.098 
       0.214876         495.512         442.279         442.279 
       0.220989         460.605         416.535         416.535 
       0.227147         448.822         396.315         396.315 
        0.23329         431.941         380.321         380.321 
       0.239377         422.794         366.502         366.502 
       0.245482         401.781         352.761         352.761 
       0.251667         384.072         337.807         337.807 
       0.257832         376.615         321.671         321.671 
       0.263955         353.213         305.054         305.054 
       0.270079         337.278         288.881         288.881 
        0.27624         321.391             274             274 
       0.282372         311.428         261.127         261.127 
        0.28843         307.827         250.334         250.334 
       0.294538         292.466         240.992         240.992 
       0.300721         281.815         232.502         232.502 
        0.30691          276.76         224.336         224.336 
       0.313033          263.87         216.182         216.182 
       0.319153         258.567         207.806         207.806 
       0.325316         250.537         199.288         199.288 
        0.33145          242.62         190.989         190.989 
       0.337538         233.408         183.221         183.221 
       0.343633         225.549         176.107         176.107 
       0.349808         218.747         169.622         169.622 
       0.355968         213.506         163.797         163.797 
       0.362074         207.497         158.473         158.473 
       0.368217         203.857         153.389         153.389 
       0.374374         198.554         148.406         148.406 
       0.380519         190.154         143.474         143.474 
       0.386598          186.41          138.65          138.65 
       0.392688         180.696         133.922         133.922 
        0.39888         176.788         129.314         129.314 
       0.405048         172.443         124.993         124.993 
       0.411186         169.997         120.976         120.976 
       0.417313         165.866         117.245         117.245 
       0.423458         161.512         113.735         113.735 
       0.429607         157.357         110.389         110.389 
       0.435692          154.58         107.195         107.195 
       0.441815         150.682         104.068         104.068 
       0.447964         145.833         100.997         100.997 
       0.454126         143.236         98.0023         98.0023 
       0.460267          141.61         95.1238         95.1238 
       0.466387         138.054         92.3773         92.3773 
        0.47254         136.269         89.7441         89.7441 
       0.478662         131.647         87.2548         87.2548 
       0.484765         129.658         84.8958         84.8958 
       0.490885         127.064          82.632          82.632 
       0.497035         125.593         80.4387         80.4387 
       0.503198         123.245         78.3107         78.3107 
       0.509342         119.935         76.2546         76.2546 
       0.515458          118.03         74.2703         74.2703 
       0.521598         115.039         72.3398         72.3398 
       0.527764           113.9          70.467          70.467 
       0.533884         112.923         68.6773         68.6773 
           0.54         109.786         66.9608         66.9608 
       0.546137         107.163         65.3063         65.3063 
       0.552299         105.515         63.7065         63.7065 
       0.558452         103.585          62.164          62.164 
       0.564573         102.947         60.6779         60.6779 
       0.570708         100.039         59.2347         59.2347 
       0.576825         98.8271         57.8407         57.8407 
       0.582926         97.6738         56.4937         56.4937 
       0.589034         95.8556          55.187          55.187 
       0.595184         94.6111         53.9128         53.9128 
       0.601379         92.5349         52.6706         52.6706 
       0.607522         90.6498         51.4786         51.4786 
       0.613639         89.8628         50.3302         50.3302 
       0.619772         88.3001          49.216          49.216 
       0.625918         87.5059         48.1344         48.1344 
       0.632068         85.5802         47.0854         47.0854 
       0.638161         84.3472         46.0767         46.0767 
         0.6443         83.8012         45.0897         45.0897 
       0.650464         81.8541         44.1271         44.1271 
       0.656582         81.4864         43.1989         43.1989 
       0.662703         80.2798         42.2969         42.2969 
       0.668861          78.517         41.4157         41.4157 
       0.675024         78.3566         40.5593         40.5593 
       0.681124           77.01         39.7364         39.7364 
       0.687237         75.6678         38.9352         38.9352 
       0.693381         74.9229         38.1528         38.1528 
       0.699536          73.991         37.3909         37.3909 
       0.705665         72.9394         36.6532         36.6532 
       0.711789         71.8135         35.9361         35.9361 
       0.717957         70.8665         35.2333         35.2333 
        0.72409         70.1397          34.553          34.553 
       0.730186         69.7457         33.8947         33.8947 
       0.736317         68.5571           33.25           33.25 
       0.742472         67.4486         32.6197         32.6197 
       0.748622         66.4073         32.0063         32.0063 
        0.75476          66.137         31.4101         31.4101 
       0.760888         65.6443           30.83           30.83 
       0.767043         64.2477         30.2623         30.2623 
       0.773185         63.3571         29.7102         29.7102 
       0.779291         62.6716         29.1751         29.1751 
       0.785407         61.9464         28.6525         28.6525 
       0.791564         61.6946         28.1394         28.1394 
       0.797719         60.6443         27.6392         27.6392 
       0.803834         60.2583         27.1544         27.1544 
       0.809972         59.6666         26.6795         26.6795 
       0.816124         58.8205          26.215          26.215 
       0.822261         58.0106         25.7628         25.7628 
       0.828378         57.8578         25.3227         25.3227 
       0.834502          57.032         24.8925         24.8925 
       0.840667         56.5516         24.4695         24.4695 
       0.846816         55.9254         24.0576         24.0576 
       0.852925         55.2343         23.6578         23.6578 
       0.859047         54.9943         23.2663         23.2663 
       0.865192          54.138         22.8824         22.8824 
       0.871341         53.5574          22.507          22.507 
       0.877463         53.0683         22.1416         22.1416 
       0.883569         52.9197         21.7854         21.7854 
       0.889708         52.3084         21.4351         21.4351 
       0.895864         51.8633         21.0917         21.0917 
       0.902008         51.2379         20.7566         20.7566 
       0.908149         50.6017          20.429          20.429 
       0.914301         50.2932         20.1079         20.1079 
       0.920448         50.1533         19.7941         19.7941 
       0.926574           49.09          19.488          19.488 
       0.932687         48.8236         19.1891         19.1891 
       0.938823         48.3673         18.8954         18.8954 
       0.944975         47.7599         18.6072         18.6072 
       0.951105         47.4001          18.326          18.326 
       0.957225         47.1525         18.0512         18.0512 
       0.963368         46.6635          17.781          17.781 
       0.969511         46.2659         17.5164         17.5164 
       0.975621         45.8285         17.2586         17.2586 
       0.981748         45.3929         17.0053         17.0053 
       0.987916         44.9931         16.7555         16.7555 
        0.99406          44.745         16.5117         16.5117 
        1.00019         44.1931         16.2732         16.2732 
        1.00632          43.849         16.0397         16.0397 
        1.01246         43.5248         15.8104         15.8104 
        1.01859         43.2614         15.5859         15.5859 
        1.02471         42.7802         15.3661         15.3661 
        1.03085         42.4413         15.1498         15.1498 
        1.03698         42.1764         14.9381         14.9381 
        1.04314          41.805         14.7295         14.7295 
        1.04929         41.3465         14.5254         14.5254 
        1.05541         41.1929          14.326          14.326 
        1.06154         40.8446         14.1299         14.1299 
        1.06769         40.3693         13.9371         13.9371 
        1.07382         40.0492         13.7486         13.7486 
        1.07993         39.8666         13.5639         13.5639 
        1.08607         39.5113          13.382          13.382 
        1.09222         39.2987         13.2031         13.2031 
        1.09836         38.9587         13.0278         13.0278 
        1.10449         38.7213         12.8559         12.8559 
        1.11063         38.3276         12.6868         12.6868 
        1.11677         38.2105         12.5209         12.5209 
         1.1229         37.7876         12.3582         12.3582 
        1.12903         37.5816         12.1983         12.1983 
        1.13518         37.4337         12.0411         12.0411 
        1.14131         37.0406         11.8868         11.8868 
        1.14745         36.7428         11.7352         11.7352 
        1.15359         36.3114         11.5862         11.5862 
        1.15973         36.2942         11.4398         11.4398 
        1.16584           35.98         11.2966         11.2966 
        1.17197         35.5878         11.1556         11.1556 
        1.17811         35.4135         11.0166         11.0166 
        1.18424         34.9031         10.8804         10.8804 
        1.19038         34.8053          10.746          10.746 
        1.19652         34.6354          10.614          10.614 
        1.20267          34.366         10.4843         10.4843 
        1.20881          34.123         10.3567         10.3567 
        1.21495         33.9977         10.2314         10.2314 
        1.22108         33.8699         10.1082         10.1082 
         1.2272         33.4633         9.98735         9.98735 
        1.23334         33.2962         9.86818         9.86818 
        1.23949          33.074         9.75066         9.75066 
        1.24562         32.8213         9.63539         9.63539 
        1.25174         32.5948         9.52214         9.52214 
        1.25789         32.4716         9.41037         9.41037 
        1.26402         32.2339         9.30059         9.30059 
        1.27014         32.1033         9.19283         9.19283 
        1.27628         31.7372         9.08645         9.08645 
        1.28244         31.7368         8.98155         8.98155 
        1.28858         31.3921         8.87845         8.87845 
        1.29471         31.1297         8.77719         8.77719 
        1.30084         30.8914         8.67761         8.67761 
        1.30697         30.8862         8.57942         8.57942 
        1.31312          30.594         8.48261         8.48261 
        1.31925         30.3396          8.3876          8.3876 
        1.32537         30.1588         8.29413         8.29413 
        1.33151         29.9384         8.20176         8.20176 
        1.33765          29.864         8.11084         8.11084 
        1.34378         29.7171         8.02149         8.02149 
        1.34992         29.4358         7.93341         7.93341 
        1.35606         29.2034         7.84647         7.84647 
         1.3622         29.1031         7.76098         7.76098 
        1.36833         29.0059         7.67697         7.67697 
        1.37445         28.6946         7.59424         7.59424 
        1.38059         28.5711         7.51248         7.51248 
        1.38675         28.3536         7.43173         7.43173 
        1.39288         28.2486         7.35249         7.35249 
        1.39901         28.0184         7.27443         7.27443 
        1.40515          27.903         7.19733         7.19733 
         1.4113         27.8358         7.12138         7.12138 
        1.41742         27.6183         7.04682         7.04682 
        1.42355         27.3635         6.97318         6.97318 
         1.4297         27.3014         6.90037         6.90037 
        1.43585         27.1075         6.82863         6.82863 
        1.44198         26.9244         6.75818         6.75818 
        1.44809         26.7239         6.68885         6.68885 
        1.45423         26.6384         6.62025         6.62025 
        1.46036         26.5404         6.55272         6.55272 
        1.46649         26.3259         6.48611         6.48611 
        1.47263         26.1678         6.42037         6.42037 
        1.47877          26.029         6.35557         6.35557 
        1.48491         25.8946         6.29156         6.29156 
        1.49104         25.6942         6.22856         6.22856 
        1.49718         25.6632         6.16638         6.16638 
        1.50333         25.5248         6.10494         6.10494 
        1.50947         25.2861         6.04446         6.04446 
         1.5156         25.2225         5.98489         5.98489 
        1.52172         25.0274         5.92613         5.92613 
        1.52787         24.9728         5.86803         5.86803 
          1.534         24.7395         5.81078         5.81078 
        1.54013         24.7633         5.75435         5.75435 
        1.54627         24.5128         5.69856         5.69856 
        1.55241         24.3825         5.64351         5.64351 
        1.55855         24.2816         5.58926         5.58926 
        1.56467         24.1151         5.53587         5.53587 
         1.5708         24.0349         5.48303         5.48303 
        1.57695         23.9343          5.4308          5.4308 
        1.58308         23.7048         5.37936         5.37936 
        1.58922          23.597         5.32856         5.32856 
        1.59535         23.5064         5.27843         5.27843 
         1.6015         23.4561         5.22887         5.22887 
        1.60764         23.2357         5.17997         5.17997 
        1.61376         23.1144         5.13183         5.13183 
        1.61989         22.9572         5.08426         5.08426 
        1.62604         22.8507         5.03719         5.03719 
        1.63218         22.7199         4.99074         4.99074 
        1.63831         22.6494         4.94498         4.94498 
        1.64444         22.5307         4.89978         4.89978 
        1.65059          22.395         4.85503         4.85503 
        1.65673         22.3107         4.81089         4.81089 
        1.66285         22.2209         4.76742         4.76742 
        1.66898         22.0619         4.72447         4.72447 
        1.67512          22.007         4.68197         4.68197 
        1.68127         21.8572         4.63995         4.63995 
         1.6874          21.757         4.59854         4.59854 
        1.69353         21.6597         4.55765         4.55765 
        1.69967         21.5523         4.51717         4.51717 
        1.70581         21.4219         4.47719         4.47719 
        1.71193         21.3131         4.43785         4.43785 
        1.71806         21.2488          4.3989          4.3989 
        1.72421         21.1247         4.36034         4.36034 
        1.73035         21.0033         4.32228         4.32228 
        1.73649         20.8695         4.28468         4.28468 
        1.74262         20.7511         4.24756         4.24756 
        1.74876         20.7452         4.21086         4.21086 
        1.75489         20.5761         4.17466         4.17466 
        1.76101         20.5098          4.1389          4.1389 
        1.76715         20.3909          4.1035          4.1035 
        1.77329         20.2401         4.06848         4.06848 
        1.77943         20.2128         4.03384         4.03384 
        1.78557         20.1452         3.99966         3.99966 
        1.79171         20.0272         3.96587         3.96587 
        1.79785         19.9189         3.93246         3.93246 
        1.80399         19.7918         3.89944         3.89944 
        1.81012         19.7603         3.86685         3.86685 
        1.81625         19.5759         3.83464         3.83464 
        1.82239         19.5123         3.80274         3.80274 
        1.82853          19.428         3.77123         3.77123 
        1.83466          19.332          3.7401          3.7401 
        1.84078         19.2276         3.70936         3.70936 
        1.84692         19.1553          3.6789          3.6789 
        1.85306         19.0434         3.64876         3.64876 
         1.8592         19.0176           3.619           3.619 
        1.86533         18.8907         3.58958         3.58958 
        1.87147         18.7756         3.56046         3.56046 
        1.87761         18.6796         3.53165         3.53165 
