# k  (h/Mpc)    Pcb(k)  (Mpc/h)^3    Pcb_linear(k) (Mpc/h)^3    Pcb_NL(k) (Mpc/h)^3   ShotnoiseSubtracted = false
     0.00783031         24485.7         24604.3         24604.3 
       0.013688         27751.5         28635.8         28635.8 
       0.019231           27097         27611.4         27611.4 
      0.0249154         24479.5           24373           24373 
      0.0312784         19970.9           20189           20189 
      0.0375637         16368.6         16676.6         16676.6 
      0.0433917         14252.9         14322.9         14322.9 
      0.0492413         12594.3         12745.1         12745.1 
      0.0555754         11552.9         11614.3         11614.3 
      0.0619321         10310.9         10722.6         10722.6 
       0.067871         9639.93         9866.62         9866.62 
      0.0738098         8835.77         8897.52         8897.52 
      0.0800417         7813.61          7803.8          7803.8 
      0.0862327         6796.95         6762.98         6762.98 
      0.0921407         6063.43         5922.01         5922.01 
      0.0982031         5518.68         5269.57         5269.57 
       0.104506         4959.08         4809.04         4809.04 
       0.110769         4676.67         4511.39         4511.39 
       0.116806         4499.79         4297.53         4297.53 
       0.122832         4248.23         4085.99         4085.99 
       0.129052         3954.25         3825.52         3825.52 
       0.135211         3789.14         3519.39         3519.39 
       0.141259         3436.19         3197.25         3197.25 
       0.147318         3153.98         2890.23         2890.23 
       0.153489         2939.87         2625.28         2625.28 
       0.159709         2827.18         2421.85         2421.85 
       0.165845         2608.82         2279.51         2279.51 
       0.171974         2544.06         2177.68         2177.68 
       0.178125         2474.54         2093.02         2093.02 
       0.184229         2276.55         2006.25         2006.25 
        0.19034         2239.29         1905.22         1905.22 
       0.196428         2161.97         1789.89         1789.89 
       0.202534         2023.85         1667.44         1667.44 
       0.208729          1971.1         1547.97         1547.97 
       0.214876         1867.43         1444.08         1444.08 
       0.220989          1785.3         1360.03         1360.03 
       0.227147         1731.49         1294.01         1294.01 
        0.23329         1663.93         1241.79         1241.79 
       0.239377          1657.5         1196.66         1196.66 
       0.245482         1580.55          1151.8          1151.8 
       0.251667         1522.89         1102.97         1102.97 
       0.257832         1490.46         1050.29         1050.29 
       0.263955         1423.29          996.03          996.03 
       0.270079         1384.32         943.223         943.223 
        0.27624          1327.3         894.637         894.637 
       0.282372         1312.96         852.604         852.604 
        0.28843         1279.68         817.361         817.361 
       0.294538         1226.55          786.86          786.86 
       0.300721         1205.46         759.139         759.139 
        0.30691         1169.16         732.477         732.477 
       0.313033         1128.15         705.853         705.853 
       0.319153         1117.35         678.505         678.505 
       0.325316         1100.21         650.692         650.692 
        0.33145         1072.22         623.595         623.595 
       0.337538         1038.46         598.234         598.234 
       0.343633         1015.37         575.004         575.004 
       0.349808          997.64          553.83          553.83 
       0.355968         975.498          534.81          534.81 
       0.362074         947.179         517.426         517.426 
       0.368217         941.461         500.829         500.829 
       0.374374         926.322         484.558         484.558 
       0.380519         895.124         468.455         468.455 
       0.386598          889.44         452.705         452.705 
       0.392688         865.507         437.268         437.268 
        0.39888         852.012         422.224         422.224 
       0.405048         831.287         408.113         408.113 
       0.411186           830.1         394.998         394.998 
       0.417313         819.179         382.816         382.816 
       0.423458         798.685         371.354         371.354 
       0.429607         778.518         360.427         360.427 
       0.435692         769.342         349.999         349.999 
       0.441815         754.842         339.791         339.791 
       0.447964         746.254         329.764         329.764 
       0.454126         735.884         319.986         319.986 
       0.460267         727.764         310.587         310.587 
       0.466387         711.372          301.62          301.62 
        0.47254         705.084         293.021         293.021 
       0.478662         691.562         284.895         284.895 
       0.484765          682.62         277.191         277.191 
       0.490885         677.968           269.8           269.8 
       0.497035         662.374         262.639         262.639 
       0.503198          661.05         255.691         255.691 
       0.509342          648.37         248.977         248.977 
       0.515458         636.783         242.498         242.498 
       0.521598         635.904         236.195         236.195 
       0.527764         620.966          230.08          230.08 
       0.533884         611.826         224.237         224.237 
           0.54         609.575         218.632         218.632 
       0.546137          600.19          213.23          213.23 
       0.552299         594.793         208.007         208.007 
       0.558452         587.186          202.97          202.97 
       0.564573         586.136         198.118         198.118 
       0.570708         576.823         193.406         193.406 
       0.576825         566.645         188.854         188.854 
       0.582926          564.42         184.456         184.456 
       0.589034         556.024          180.19          180.19 
       0.595184         549.953          176.03          176.03 
       0.601379         541.532         171.974         171.974 
       0.607522          533.98         168.082         168.082 
       0.613639         532.436         164.332         164.332 
       0.619772         527.161         160.694         160.694 
       0.625918         520.256         157.163         157.163 
       0.632068         518.115         153.737         153.737 
       0.638161         510.088         150.444         150.444 
         0.6443         504.581         147.221         147.221 
       0.650464         500.354         144.078         144.078 
       0.656582         495.553         141.048         141.048 
       0.662703         491.288         138.103         138.103 
       0.668861         484.775         135.226         135.226 
       0.675024         482.807         132.429         132.429 
       0.681124         471.966         129.742         129.742 
       0.687237         471.886         127.126         127.126 
       0.693381         465.254         124.572         124.572 
       0.699536         465.603         122.084         122.084 
       0.705665         457.362         119.676         119.676 
       0.711789         456.299         117.334         117.334 
       0.717957         450.838         115.039         115.039 
        0.72409         446.419         112.818         112.818 
       0.730186         445.937         110.669         110.669 
       0.736317         439.349         108.564         108.564 
       0.742472         434.931         106.506         106.506 
       0.748622         434.761         104.503         104.503 
        0.75476         426.114         102.556         102.556 
       0.760888         426.106         100.662         100.662 
       0.767043         422.515         98.8089         98.8089 
       0.773185         418.451         97.0062         97.0062 
       0.779291         414.679          95.259          95.259 
       0.785407          411.59         93.5526         93.5526 
       0.791564         409.733         91.8774         91.8774 
       0.797719         403.357         90.2442         90.2442 
       0.803834         402.586         88.6613         88.6613 
       0.809972         396.924         87.1107         87.1107 
       0.816124         394.538          85.594          85.594 
       0.822261         391.595         84.1176         84.1176 
       0.828378         389.783         82.6805         82.6805 
       0.834502         384.703         81.2759         81.2759 
       0.840667         381.678         79.8949         79.8949 
       0.846816         379.276           78.55           78.55 
       0.852925         379.436         77.2447         77.2447 
       0.859047         373.009         75.9664         75.9664 
       0.865192         371.827         74.7129         74.7129 
       0.871341         368.176         73.4869         73.4869 
       0.877463         366.394         72.2941         72.2941 
       0.883569         364.405         71.1309         71.1309 
       0.889708         359.557         69.9874         69.9874 
       0.895864         355.942         68.8662         68.8662 
       0.902008         354.978          67.772          67.772 
       0.908149         351.161         66.7022         66.7022 
       0.914301         349.952         65.6539         65.6539 
       0.920448         345.335         64.6291         64.6291 
       0.926574         343.706         63.6299         63.6299 
       0.932687         341.754         62.6539         62.6539 
       0.938823         338.963          61.695          61.695 
       0.944975         338.159         60.7539         60.7539 
       0.951105         335.233         59.8359         59.8359 
       0.957225         331.352         58.9384         58.9384 
       0.963368          330.85         58.0564         58.0564 
       0.969511         327.307         57.1923         57.1923 
       0.975621         324.287         56.3505         56.3505 
       0.981748         323.211         55.5236         55.5236 
       0.987916         320.906          54.708          54.708 
        0.99406         317.444          53.912          53.912 
        1.00019         314.345         53.1333         53.1333 
        1.00632          313.53         52.3708         52.3708 
        1.01246         310.965         51.6221         51.6221 
        1.01859         309.094         50.8892         50.8892 
        1.02471         307.279         50.1715         50.1715 
        1.03085           305.4         49.4652         49.4652 
        1.03698         302.461         48.7739         48.7739 
        1.04314         300.885          48.093          48.093 
        1.04929         299.442         47.4266         47.4266 
        1.05541         297.539         46.7755         46.7755 
        1.06154         293.843         46.1351         46.1351 
        1.06769         292.375         45.5057         45.5057 
        1.07382         289.966         44.8901         44.8901 
        1.07993         289.801         44.2873         44.2873 
        1.08607          287.24         43.6931         43.6931 
        1.09222         284.972         43.1093         43.1093 
        1.09836         283.171         42.5368         42.5368 
        1.10449         281.276         41.9754         41.9754 
        1.11063         279.989         41.4235         41.4235 
        1.11677         277.265         40.8817         40.8817 
         1.1229         275.876         40.3506         40.3506 
        1.12903         273.487         39.8285         39.8285 
        1.13518         271.934         39.3151         39.3151 
        1.14131         269.823         38.8112         38.8112 
        1.14745         268.077         38.3163         38.3163 
        1.15359         265.792           37.83           37.83 
        1.15973         264.769         37.3519         37.3519 
        1.16584         263.564         36.8842         36.8842 
        1.17197         261.381         36.4239         36.4239 
        1.17811         258.486           35.97           35.97 
        1.18424         257.457         35.5252         35.5252 
        1.19038         256.516         35.0866         35.0866 
        1.19652         253.683         34.6556         34.6556 
        1.20267         252.238         34.2319         34.2319 
        1.20881         251.255         33.8153         33.8153 
        1.21495         248.793         33.4063         33.4063 
        1.22108         247.772         33.0041         33.0041 
         1.2272         245.403         32.6094         32.6094 
        1.23334          243.48         32.2203         32.2203 
        1.23949         242.647         31.8367         31.8367 
        1.24562         240.499         31.4603         31.4603 
        1.25174         239.667         31.0905         31.0905 
        1.25789         237.631         30.7256         30.7256 
        1.26402         236.306         30.3671         30.3671 
        1.27014         234.875         30.0153         30.0153 
        1.27628         233.307          29.668          29.668 
        1.28244         230.963         29.3255         29.3255 
        1.28858         230.258         28.9888         28.9888 
        1.29471         228.722         28.6582         28.6582 
        1.30084         227.949         28.3331         28.3331 
        1.30697         225.715         28.0125         28.0125 
        1.31312          224.87         27.6964         27.6964 
        1.31925          223.16         27.3861         27.3861 
        1.32537          222.48          27.081          27.081 
        1.33151         219.909         26.7794         26.7794 
        1.33765         219.423         26.4825         26.4825 
        1.34378         217.925         26.1908         26.1908 
        1.34992         216.042         25.9032         25.9032 
        1.35606         214.338         25.6193         25.6193 
         1.3622         212.726         25.3402         25.3402 
        1.36833         212.504         25.0659         25.0659 
        1.37445         211.354         24.7958         24.7958 
        1.38059         208.906         24.5288         24.5288 
        1.38675         207.205         24.2652         24.2652 
        1.39288         206.887         24.0064         24.0064 
        1.39901         205.334         23.7516         23.7516 
        1.40515          203.95         23.4998         23.4998 
         1.4113           202.7         23.2519         23.2519 
        1.41742         201.405         23.0084         23.0084 
        1.42355         199.677          22.768          22.768 
         1.4297         198.769         22.5302         22.5302 
        1.43585         197.466          22.296          22.296 
        1.44198         196.213          22.066          22.066 
        1.44809          195.43         21.8396         21.8396 
        1.45423         193.853         21.6156         21.6156 
        1.46036         193.415         21.3951         21.3951 
        1.46649         191.736         21.1776         21.1776 
        1.47263         190.496          20.963          20.963 
        1.47877         189.041         20.7514         20.7514 
        1.48491         188.168         20.5424         20.5424 
        1.49104          186.42         20.3367         20.3367 
        1.49718         185.105         20.1337         20.1337 
        1.50333         184.307         19.9331         19.9331 
        1.50947         182.771         19.7356         19.7356 
         1.5156         182.018         19.5411         19.5411 
        1.52172         180.752         19.3492         19.3492 
        1.52787         179.597         19.1595         19.1595 
          1.534         178.855         18.9726         18.9726 
        1.54013         177.673         18.7884         18.7884 
        1.54627         176.289         18.6062         18.6062 
        1.55241         175.674         18.4265         18.4265 
        1.55855         174.242         18.2494         18.2494 
        1.56467         173.139          18.075          18.075 
         1.5708         172.334         17.9025         17.9025 
        1.57695         171.383          17.732          17.732 
        1.58308         170.247          17.564          17.564 
        1.58922         168.712         17.3981         17.3981 
        1.59535          167.93         17.2345         17.2345 
         1.6015         166.962         17.0727         17.0727 
        1.60764          165.85          16.913          16.913 
        1.61376         164.788         16.7558         16.7558 
        1.61989          163.82         16.6005         16.6005 
        1.62604         163.148         16.4468         16.4468 
        1.63218           161.8         16.2951         16.2951 
        1.63831         160.864         16.1457         16.1457 
        1.64444         159.987         15.9981         15.9981 
        1.65059         158.779          15.852          15.852 
        1.65673         157.725         15.7079         15.7079 
        1.66285         157.037          15.566          15.566 
        1.66898         155.825         15.4257         15.4257 
        1.67512         154.951          15.287          15.287 
        1.68127         153.892         15.1498         15.1498 
         1.6874          153.02         15.0146         15.0146 
        1.69353          152.43         14.8811         14.8811 
        1.69967         151.187         14.7489         14.7489 
        1.70581         150.176         14.6184         14.6184 
        1.71193         149.436         14.4899         14.4899 
        1.71806         148.486         14.3627         14.3627 
        1.72421         147.692         14.2368         14.2368 
        1.73035         146.818         14.1126         14.1126 
        1.73649         145.624         13.9898         13.9898 
        1.74262         145.015         13.8686         13.8686 
        1.74876         143.783         13.7488         13.7488 
        1.75489         143.134         13.6306         13.6306 
        1.76101         142.305         13.5138         13.5138 
        1.76715         141.596         13.3982         13.3982 
        1.77329         140.815         13.2839         13.2839 
        1.77943         139.738         13.1708         13.1708 
        1.78557         138.711         13.0592         13.0592 
        1.79171         137.785         12.9489         12.9489 
        1.79785         136.861         12.8398         12.8398 
        1.80399         136.268          12.732          12.732 
        1.81012         135.744         12.6255         12.6255 
        1.81625          134.53         12.5204         12.5204 
        1.82239         134.169         12.4162         12.4162 
        1.82853         132.999         12.3133         12.3133 
        1.83466          132.24         12.2117         12.2117 
        1.84078          131.63         12.1113         12.1113 
        1.84692         130.843         12.0119         12.0119 
        1.85306         129.872         11.9135         11.9135 
         1.8592         129.108         11.8163         11.8163 
        1.86533         128.165         11.7202         11.7202 
        1.87147         127.627         11.6252         11.6252 
