# k  (h/Mpc)    P(k)  (Mpc/h)^3    P_linear(k)  (Mpc/h)^3     P_NL(k)  ShotnoiseSubtracted = false
     0.00783031         22731.6         22843.7         22843.7 
       0.013688         25790.3         26587.3         26587.3 
       0.019231         25177.3         25636.5         25636.5 
      0.0249154         22731.1         22629.9         22629.9 
      0.0312784         18556.9         18745.2         18745.2 
      0.0375637         15212.3           15484           15484 
      0.0433917         13242.3         13298.7         13298.7 
      0.0492413         11702.2         11833.7         11833.7 
      0.0555754         10736.2         10783.8         10783.8 
      0.0619321         9588.88         9955.87         9955.87 
       0.067871         8964.38          9161.1          9161.1 
      0.0738098         8209.16          8261.3          8261.3 
      0.0800417          7259.3         7245.79         7245.79 
      0.0862327         6311.26          6279.4          6279.4 
      0.0921407          5623.9         5498.56         5498.56 
      0.0982031         5114.82         4892.78         4892.78 
       0.104506         4596.05         4465.17         4465.17 
       0.110769         4333.54         4188.81         4188.81 
       0.116806         4171.61         3990.25         3990.25 
       0.122832         3935.75         3793.82         3793.82 
       0.129052         3667.05         3551.99         3551.99 
       0.135211         3508.37         3267.74         3267.74 
       0.141259         3180.47         2968.64         2968.64 
       0.147318         2914.12         2683.57         2683.57 
       0.153489         2714.14         2437.56         2437.56 
       0.159709         2606.82         2248.68         2248.68 
       0.165845         2403.64         2116.52         2116.52 
       0.171974         2346.67         2021.97         2021.97 
       0.178125         2280.45         1943.37         1943.37 
       0.184229          2099.7          1862.8          1862.8 
        0.19034         2062.77            1769            1769 
       0.196428         1990.08         1661.91         1661.91 
       0.202534         1858.67         1548.21         1548.21 
       0.208729         1810.82         1437.29         1437.29 
       0.214876         1715.02         1340.83         1340.83 
       0.220989         1635.61         1262.78         1262.78 
       0.227147         1587.08         1201.48         1201.48 
        0.23329         1525.22         1152.99         1152.99 
       0.239377         1518.55          1111.1          1111.1 
       0.245482         1446.66         1069.44         1069.44 
       0.251667         1393.45         1024.11         1024.11 
       0.257832         1364.18         975.188         975.188 
       0.263955         1300.93         924.812         924.812 
       0.270079         1263.54         875.781         875.781 
        0.27624         1210.81         830.667         830.667 
       0.282372         1196.25          791.64          791.64 
        0.28843         1168.13         758.918         758.918 
       0.294538         1117.52         730.597         730.597 
       0.300721         1097.33         704.858         704.858 
        0.30691         1065.65         680.103         680.103 
       0.313033         1026.18         655.382         655.382 
       0.319153         1015.54         629.989         629.989 
       0.325316         1000.26         604.167         604.167 
        0.33145         974.761         579.007         579.007 
       0.337538         942.894         555.458         555.458 
       0.343633         921.393         533.891         533.891 
       0.349808         904.287          514.23          514.23 
       0.355968         884.817          496.57          496.57 
       0.362074         857.123         480.429         480.429 
       0.368217         852.497         465.017         465.017 
       0.374374         839.228         449.912         449.912 
       0.380519         809.637          434.96          434.96 
       0.386598         804.135         420.335         420.335 
       0.392688         782.533         406.002         406.002 
        0.39888         768.777         392.032         392.032 
       0.405048         750.291         378.932         378.932 
       0.411186         749.475         366.753         366.753 
       0.417313         740.045         355.444         355.444 
       0.423458         720.864         344.802         344.802 
       0.429607         701.591         334.656         334.656 
       0.435692         693.454         324.973         324.973 
       0.441815         680.314         315.495         315.495 
       0.447964         671.453         306.185         306.185 
       0.454126          662.47         297.106         297.106 
       0.460267         654.443         288.379         288.379 
       0.466387         639.785         280.053         280.053 
        0.47254         633.551          272.07          272.07 
       0.478662         621.571         264.524         264.524 
       0.484765          613.25         257.372         257.372 
       0.490885          609.01         250.509         250.509 
       0.497035         594.793          243.86          243.86 
       0.503198         593.567         237.408         237.408 
       0.509342         582.203         231.175         231.175 
       0.515458         571.226         225.159         225.159 
       0.521598         569.949         219.307         219.307 
       0.527764         556.551         213.629         213.629 
       0.533884         548.983         208.204         208.204 
           0.54         546.061             203             203 
       0.546137         537.327         197.984         197.984 
       0.552299         533.093         193.134         193.134 
       0.558452         525.737         188.458         188.458 
       0.564573         524.153         183.952         183.952 
       0.570708         516.063         179.577         179.577 
       0.576825         506.695         175.351         175.351 
       0.582926         504.976         171.267         171.267 
       0.589034         496.787         167.306         167.306 
       0.595184         491.909         163.443         163.443 
       0.601379         484.098         159.677         159.677 
       0.607522         476.656         156.064         156.064 
       0.613639          475.43         152.582         152.582 
       0.619772         471.405         149.204         149.204 
       0.625918         463.879         145.925         145.925 
       0.632068         462.328         142.745         142.745 
       0.638161         455.567         139.687         139.687 
         0.6443         450.093         136.695         136.695 
       0.650464         446.419         133.777         133.777 
       0.656582         442.019         130.963         130.963 
       0.662703         438.416         128.228         128.228 
       0.668861         432.159         125.557         125.557 
       0.675024         430.579          122.96          122.96 
       0.681124         420.758         120.465         120.465 
       0.687237         420.832         118.037         118.037 
       0.693381         414.619         115.665         115.665 
       0.699536         414.857         113.355         113.355 
       0.705665         407.691         111.118         111.118 
       0.711789         406.356         108.945         108.945 
       0.717957         401.716         106.814         106.814 
        0.72409         397.532         104.752         104.752 
       0.730186         397.209         102.756         102.756 
       0.736317         390.997         100.801         100.801 
       0.742472         387.395         98.8905         98.8905 
       0.748622         386.725          97.031          97.031 
        0.75476         380.074         95.2234         95.2234 
       0.760888         379.264         93.4647         93.4647 
       0.767043         375.741         91.7438         91.7438 
       0.773185         372.202         90.0701         90.0701 
       0.779291         368.989         88.4478         88.4478 
       0.785407          366.09         86.8634         86.8634 
       0.791564         364.432         85.3079         85.3079 
       0.797719         358.727         83.7916         83.7916 
       0.803834          358.36         82.3218         82.3218 
       0.809972         352.914         80.8821         80.8821 
       0.816124         350.797         79.4739         79.4739 
       0.822261         348.239          78.103          78.103 
       0.828378         346.401         76.7687         76.7687 
       0.834502         341.435         75.4645         75.4645 
       0.840667         339.735         74.1823         74.1823 
       0.846816         336.698         72.9335         72.9335 
       0.852925          336.95         71.7215         71.7215 
       0.859047           331.7         70.5346         70.5346 
       0.865192         330.286         69.3708         69.3708 
       0.871341         326.863         68.2325         68.2325 
       0.877463         325.485          67.125          67.125 
       0.883569         323.394         66.0449         66.0449 
       0.889708         319.551         64.9832         64.9832 
       0.895864         315.899         63.9421         63.9421 
       0.902008         314.996         62.9261         62.9261 
       0.908149         311.472         61.9329         61.9329 
       0.914301         310.665         60.9595         60.9595 
       0.920448         306.496          60.008          60.008 
       0.926574          304.84         59.0802         59.0802 
       0.932687         303.703         58.1741         58.1741 
       0.938823          300.79         57.2837         57.2837 
       0.944975         300.255         56.4099         56.4099 
       0.951105         297.454         55.5575         55.5575 
       0.957225         293.982         54.7242         54.7242 
       0.963368         293.832         53.9052         53.9052 
       0.969511         290.133         53.1029         53.1029 
       0.975621         287.356         52.3214         52.3214 
       0.981748         286.648         51.5535         51.5535 
       0.987916         284.691         50.7963         50.7963 
        0.99406         281.559         50.0571         50.0571 
        1.00019         278.916         49.3342         49.3342 
        1.00632         278.246         48.6261         48.6261 
        1.01246         276.082          47.931          47.931 
        1.01859         273.943         47.2505         47.2505 
        1.02471         272.139         46.5842         46.5842 
        1.03085         270.761         45.9283         45.9283 
        1.03698         268.511         45.2865         45.2865 
        1.04314         267.085         44.6542         44.6542 
        1.04929         265.464         44.0355         44.0355 
        1.05541         264.008          43.431          43.431 
        1.06154         260.871         42.8363         42.8363 
        1.06769          259.44         42.2519         42.2519 
        1.07382         257.043         41.6804         41.6804 
        1.07993         256.773         41.1207         41.1207 
        1.08607         254.781          40.569          40.569 
        1.09222         252.575         40.0269         40.0269 
        1.09836         250.996         39.4953         39.4953 
        1.10449          249.56         38.9741         38.9741 
        1.11063         248.263         38.4616         38.4616 
        1.11677          245.63         37.9586         37.9586 
         1.1229         244.967         37.4655         37.4655 
        1.12903         242.471         36.9807         36.9807 
        1.13518         240.928          36.504          36.504 
        1.14131         239.354         36.0361         36.0361 
        1.14745         237.647         35.5766         35.5766 
        1.15359         235.875          35.125          35.125 
        1.15973          234.79         34.6812         34.6812 
        1.16584         233.485         34.2469         34.2469 
        1.17197         231.896         33.8195         33.8195 
        1.17811         229.194         33.3981         33.3981 
        1.18424         228.269         32.9851         32.9851 
        1.19038         227.341         32.5779         32.5779 
        1.19652         224.878         32.1777         32.1777 
        1.20267         223.792         31.7842         31.7842 
        1.20881         222.634         31.3974         31.3974 
        1.21495          220.75         31.0177         31.0177 
        1.22108         219.677         30.6442         30.6442 
         1.2272          217.69         30.2778         30.2778 
        1.23334         215.988         29.9165         29.9165 
        1.23949         215.246         29.5603         29.5603 
        1.24562         213.374         29.2108         29.2108 
        1.25174         212.855         28.8675         28.8675 
        1.25789         210.739         28.5286         28.5286 
        1.26402          209.76         28.1958         28.1958 
        1.27014         208.411         27.8691         27.8691 
        1.27628         207.197         27.5466         27.5466 
        1.28244         205.061         27.2286         27.2286 
        1.28858         204.431          26.916          26.916 
        1.29471         202.913         26.6091         26.6091 
        1.30084         202.422         26.3072         26.3072 
        1.30697         200.428         26.0095         26.0095 
        1.31312         199.695          25.716          25.716 
        1.31925         198.296          25.428          25.428 
        1.32537         197.576         25.1446         25.1446 
        1.33151         195.268         24.8646         24.8646 
        1.33765         194.738          24.589          24.589 
        1.34378         193.555         24.3181         24.3181 
        1.34992         191.784         24.0511         24.0511 
        1.35606         190.695         23.7875         23.7875 
         1.3622         188.976         23.5283         23.5283 
        1.36833         188.927         23.2736         23.2736 
        1.37445         187.812         23.0228         23.0228 
        1.38059         185.606          22.775          22.775 
        1.38675         184.089         22.5302         22.5302 
        1.39288         183.821         22.2899         22.2899 
        1.39901         182.411         22.0533         22.0533 
        1.40515         181.165         21.8195         21.8195 
         1.4113          180.28         21.5893         21.5893 
        1.41742         178.972         21.3632         21.3632 
        1.42355         177.453           21.14           21.14 
         1.4297         176.626         20.9193         20.9193 
        1.43585         175.748         20.7018         20.7018 
        1.44198         174.499         20.4882         20.4882 
        1.44809          173.82          20.278          20.278 
        1.45423         172.563           20.07           20.07 
        1.46036          171.98         19.8653         19.8653 
        1.46649         170.419         19.6634         19.6634 
        1.47263         169.486         19.4641         19.4641 
        1.47877          168.23         19.2676         19.2676 
        1.48491         167.328         19.0736         19.0736 
        1.49104          165.78         18.8826         18.8826 
        1.49718         164.817         18.6941         18.6941 
        1.50333         163.978         18.5078         18.5078 
        1.50947          162.77         18.3245         18.3245 
         1.5156         161.943         18.1439         18.1439 
        1.52172         160.945         17.9657         17.9657 
        1.52787         159.979         17.7896         17.7896 
          1.534         159.363          17.616          17.616 
        1.54013         158.248          17.445          17.445 
        1.54627         157.175         17.2759         17.2759 
        1.55241         156.464          17.109          17.109 
        1.55855           155.3         16.9445         16.9445 
        1.56467         154.265         16.7826         16.7826 
         1.5708         153.581         16.6224         16.6224 
        1.57695         152.725         16.4641         16.4641 
        1.58308         151.679         16.3082         16.3082 
        1.58922         150.408         16.1541         16.1541 
        1.59535         149.574         16.0022         16.0022 
         1.6015         148.764         15.8519         15.8519 
        1.60764         147.777         15.7037         15.7037 
        1.61376         146.963         15.5577         15.5577 
        1.61989         146.004         15.4135         15.4135 
        1.62604         145.566         15.2708         15.2708 
        1.63218         144.188           15.13           15.13 
        1.63831         143.508         14.9913         14.9913 
        1.64444         142.669         14.8542         14.8542 
        1.65059          141.66         14.7186         14.7186 
        1.65673         140.697         14.5848         14.5848 
        1.66285         140.023          14.453          14.453 
        1.66898         139.165         14.3228         14.3228 
        1.67512         138.153         14.1939         14.1939 
        1.68127          137.38         14.0665         14.0665 
         1.6874         136.574          13.941          13.941 
        1.69353         135.995          13.817          13.817 
        1.69967         135.005         13.6943         13.6943 
        1.70581         134.156         13.5731         13.5731 
        1.71193         133.538         13.4539         13.4539 
        1.71806         132.641         13.3358         13.3358 
        1.72421         131.771         13.2189         13.2189 
        1.73035         131.157         13.1035         13.1035 
        1.73649         130.192         12.9895         12.9895 
        1.74262         129.367          12.877          12.877 
        1.74876         128.469         12.7657         12.7657 
        1.75489         128.002          12.656          12.656 
        1.76101         127.162         12.5475         12.5475 
        1.76715          126.48         12.4402         12.4402 
        1.77329         125.814          12.334          12.334 
        1.77943         124.747         12.2291         12.2291 
        1.78557          123.87         12.1254         12.1254 
        1.79171         123.155          12.023          12.023 
        1.79785         122.375         11.9217         11.9217 
        1.80399         121.765         11.8216         11.8216 
        1.81012         121.367         11.7228         11.7228 
        1.81625         120.233         11.6251         11.6251 
        1.82239         119.931         11.5285         11.5285 
        1.82853         118.953         11.4329         11.4329 
        1.83466         118.237         11.3385         11.3385 
        1.84078         117.665         11.2453         11.2453 
        1.84692         116.858          11.153          11.153 
        1.85306         116.171         11.0616         11.0616 
         1.8592         115.455         10.9714         10.9714 
        1.86533         114.617         10.8822         10.8822 
        1.87147         113.969         10.7939         10.7939 
        1.87761         113.491         10.7066         10.7066 
