# k  (h/Mpc)    Pcb(k)  (Mpc/h)^3    Pcb_linear(k) (Mpc/h)^3    Pcb_NL(k) (Mpc/h)^3   ShotnoiseSubtracted = false
     0.00783031         20139.3         20242.2         20242.2 
       0.013688         22894.5         23560.7         23560.7 
       0.019231         22342.3         22718.6         22718.6 
      0.0249154         20147.2         20054.4         20054.4 
      0.0312784         16468.3           16612           16612 
      0.0375637           13505           13722           13722 
      0.0433917         11749.4         11785.4         11785.4 
      0.0492413         10384.8         10487.1         10487.1 
      0.0555754         9529.64         9556.76         9556.76 
      0.0619321         8523.56         8823.03         8823.03 
       0.067871         7966.89          8118.7          8118.7 
      0.0738098         7283.76         7321.29         7321.29 
      0.0800417         6440.33         6421.34         6421.34 
      0.0862327         5593.81         5564.91         5564.91 
      0.0921407         4974.24         4872.92         4872.92 
      0.0982031         4517.56         4336.06         4336.06 
       0.104506         4059.45         3957.11         3957.11 
       0.110769         3826.37         3712.19         3712.19 
       0.116806         3686.25         3536.23         3536.23 
       0.122832         3473.82         3362.16         3362.16 
       0.129052         3242.58         3147.84         3147.84 
       0.135211         3092.72         2895.93         2895.93 
       0.141259         2802.11         2630.87         2630.87 
       0.147318         2559.27         2378.23         2378.23 
       0.153489          2379.9         2160.21         2160.21 
       0.159709         2280.04         1992.82         1992.82 
       0.165845         2099.86          1875.7          1875.7 
       0.171974         2054.05         1791.91         1791.91 
       0.178125         1992.57         1722.25         1722.25 
       0.184229         1838.07         1650.85         1650.85 
        0.19034          1801.4         1567.72         1567.72 
       0.196428          1735.3         1472.82         1472.82 
       0.202534         1614.05         1372.06         1372.06 
       0.208729         1572.86         1273.76         1273.76 
       0.214876         1489.08         1188.27         1188.27 
       0.220989         1413.41          1119.1          1119.1 
       0.227147            1373         1064.78         1064.78 
        0.23329         1319.62         1021.81         1021.81 
       0.239377         1312.11         984.678         984.678 
       0.245482         1247.93         947.762         947.762 
       0.251667         1201.24         907.585         907.585 
       0.257832         1176.78         864.231         864.231 
       0.263955          1119.2         819.586         819.586 
       0.270079         1083.92         776.134         776.134 
        0.27624         1037.76         736.155         736.155 
       0.282372         1022.74         701.568         701.568 
        0.28843         1002.25         672.569         672.569 
       0.294538         955.641         647.471         647.471 
       0.300721         936.567          624.66          624.66 
        0.30691         911.851         602.721         602.721 
       0.313033         874.891         580.813         580.813 
       0.319153         864.425          558.31          558.31 
       0.325316         851.527         535.424         535.424 
        0.33145         829.753         513.128         513.128 
       0.337538         800.901         492.259         492.259 
       0.343633         781.533         473.144         473.144 
       0.349808         765.462         455.721         455.721 
       0.355968         749.713         440.071         440.071 
       0.362074         723.671         425.766         425.766 
       0.368217         720.316         412.109         412.109 
       0.374374         709.327          398.72          398.72 
       0.380519         682.484          385.47          385.47 
       0.386598          677.11          372.51          372.51 
       0.392688          659.12         359.807         359.807 
        0.39888         645.232         347.428         347.428 
       0.405048         630.126         335.817         335.817 
       0.411186         629.479         325.025         325.025 
       0.417313         621.851         315.001         315.001 
       0.423458         604.962          305.57          305.57 
       0.429607          587.46         296.579         296.579 
       0.435692         580.416         287.998         287.998 
       0.441815         569.489         279.598         279.598 
       0.447964          560.25         271.348         271.348 
       0.454126         553.375         263.301         263.301 
       0.460267         545.309         255.568         255.568 
       0.466387         533.495         248.189         248.189 
        0.47254         527.438         241.114         241.114 
       0.478662          517.43         234.427         234.427 
       0.484765         510.174         228.088         228.088 
       0.490885         506.335         222.006         222.006 
       0.497035          494.22         216.113         216.113 
       0.503198         493.306         210.396         210.396 
       0.509342         483.612         204.872         204.872 
       0.515458         473.919         199.541         199.541 
       0.521598         471.398         194.354         194.354 
       0.527764         461.029         189.323         189.323 
       0.533884         455.689         184.515         184.515 
           0.54         451.887         179.902         179.902 
       0.546137         443.841         175.458         175.458 
       0.552299         441.278         171.159         171.159 
       0.558452         434.377         167.015         167.015 
       0.564573         432.084         163.022         163.022 
       0.570708         425.561         159.145         159.145 
       0.576825         417.635           155.4           155.4 
       0.582926         416.405         151.781         151.781 
       0.589034          408.77          148.27          148.27 
       0.595184         405.444         144.847         144.847 
       0.601379         398.672         141.509         141.509 
       0.607522         391.595         138.307         138.307 
       0.613639         390.561         135.221         135.221 
       0.619772         388.247         132.228         132.228 
       0.625918         380.492         129.322         129.322 
       0.632068         379.226         126.503         126.503 
       0.638161         374.532         123.794         123.794 
         0.6443         369.275         121.142         121.142 
       0.650464         366.084         118.556         118.556 
       0.656582         362.281         116.062         116.062 
       0.662703         359.834         113.638         113.638 
       0.668861          353.74         111.271         111.271 
       0.675024         352.499          108.97          108.97 
       0.681124         345.076         106.759         106.759 
       0.687237         344.696         104.607         104.607 
       0.693381         339.293         102.504         102.504 
       0.699536         339.114         100.457         100.457 
       0.705665         333.752         98.4755         98.4755 
       0.711789         331.714         96.5489         96.5489 
       0.717957         328.405         94.6606         94.6606 
        0.72409         324.356          92.833          92.833 
       0.730186         324.718         91.0644         91.0644 
       0.736317         319.146         89.3323         89.3323 
       0.742472         316.644         87.6388         87.6388 
       0.748622         314.997         85.9909         85.9909 
        0.75476         311.408         84.3889         84.3889 
       0.760888         309.214         82.8304         82.8304 
       0.767043         305.886         81.3053         81.3053 
       0.773185         303.171          79.822          79.822 
       0.779291         300.508         78.3843         78.3843 
       0.785407         298.173         76.9801         76.9801 
       0.791564         296.568         75.6017         75.6017 
       0.797719         291.824         74.2578         74.2578 
       0.803834         292.088         72.9553         72.9553 
       0.809972         287.384         71.6794         71.6794 
       0.816124         285.151         70.4314         70.4314 
       0.822261         282.961         69.2165         69.2165 
       0.828378         281.455          68.034          68.034 
       0.834502         277.228         66.8782         66.8782 
       0.840667         276.908         65.7419         65.7419 
       0.846816         272.947         64.6352         64.6352 
       0.852925         273.163         63.5611         63.5611 
       0.859047         269.675         62.5092         62.5092 
       0.865192         268.362         61.4778         61.4778 
       0.871341         265.276          60.469          60.469 
       0.877463         263.985         59.4875         59.4875 
       0.883569         262.185         58.5304         58.5304 
       0.889708         259.685         57.5894         57.5894 
       0.895864         256.177         56.6668         56.6668 
       0.902008          255.19         55.7664         55.7664 
       0.908149         252.511         54.8862         54.8862 
       0.914301         251.568         54.0236         54.0236 
       0.920448         248.963         53.1804         53.1804 
       0.926574         247.081         52.3581         52.3581 
       0.932687          246.76         51.5551         51.5551 
       0.938823         243.855          50.766          50.766 
       0.944975         243.511         49.9916         49.9916 
       0.951105         240.842         49.2362         49.2362 
       0.957225         238.323         48.4977         48.4977 
       0.963368         238.445         47.7719         47.7719 
       0.969511         234.682         47.0609         47.0609 
       0.975621         232.326         46.3683         46.3683 
       0.981748         232.147         45.6878         45.6878 
       0.987916         230.652         45.0167         45.0167 
        0.99406         228.141         44.3617         44.3617 
        1.00019         226.477          43.721          43.721 
        1.00632         225.643         43.0935         43.0935 
        1.01246          223.96         42.4774         42.4774 
        1.01859         221.557         41.8744         41.8744 
        1.02471          219.98         41.2838         41.2838 
        1.03085         218.804         40.7026         40.7026 
        1.03698         217.875         40.1338         40.1338 
        1.04314         216.615         39.5735         39.5735 
        1.04929         214.937         39.0251         39.0251 
        1.05541          214.01         38.4894         38.4894 
        1.06154          211.76         37.9624         37.9624 
        1.06769         210.269         37.4445         37.4445 
        1.07382         208.272          36.938          36.938 
        1.07993         207.604          36.442          36.442 
        1.08607          206.41         35.9531         35.9531 
        1.09222         204.396         35.4727         35.4727 
        1.09836         203.322         35.0016         35.0016 
        1.10449         202.243         34.5396         34.5396 
        1.11063         200.739         34.0855         34.0855 
        1.11677         198.749         33.6397         33.6397 
         1.1229         198.728         33.2027         33.2027 
        1.12903         196.183          32.773          32.773 
        1.13518         195.131         32.3506         32.3506 
        1.14131         194.125         31.9359         31.9359 
        1.14745         192.321         31.5287         31.5287 
        1.15359         191.195         31.1285         31.1285 
        1.15973         190.361         30.7352         30.7352 
        1.16584         189.014         30.3503         30.3503 
        1.17197         188.129         29.9716         29.9716 
        1.17811         186.041         29.5981         29.5981 
        1.18424         185.074         29.2321         29.2321 
        1.19038         184.359         28.8712         28.8712 
        1.19652         182.146         28.5165         28.5165 
        1.20267         181.502         28.1678         28.1678 
        1.20881         180.224          27.825          27.825 
        1.21495         179.459         27.4885         27.4885 
        1.22108         178.156         27.1575         27.1575 
         1.2272          176.93         26.8328         26.8328 
        1.23334         175.554         26.5126         26.5126 
        1.23949         174.772         26.1969         26.1969 
        1.24562         173.485         25.8872         25.8872 
        1.25174         172.919          25.583          25.583 
        1.25789         171.199         25.2827         25.2827 
        1.26402         170.546         24.9877         24.9877 
        1.27014         169.501         24.6982         24.6982 
        1.27628          168.68         24.4124         24.4124 
        1.28244         166.953         24.1306         24.1306 
        1.28858         166.168         23.8536         23.8536 
        1.29471         164.823         23.5815         23.5815 
        1.30084         164.457          23.314          23.314 
        1.30697         163.102         23.0502         23.0502 
        1.31312         162.271         22.7901         22.7901 
        1.31925         161.087         22.5348         22.5348 
        1.32537         160.539         22.2837         22.2837 
        1.33151         158.866         22.0355         22.0355 
        1.33765         158.286         21.7912         21.7912 
        1.34378         157.563         21.5512         21.5512 
        1.34992         156.047         21.3145         21.3145 
        1.35606         155.457          21.081          21.081 
         1.3622         154.061         20.8513         20.8513 
        1.36833         153.657         20.6256         20.6256 
        1.37445         152.873         20.4033         20.4033 
        1.38059         151.271         20.1836         20.1836 
        1.38675         150.293         19.9667         19.9667 
        1.39288         149.615         19.7538         19.7538 
        1.39901         148.428         19.5441         19.5441 
        1.40515         147.661         19.3369         19.3369 
         1.4113         147.088         19.1329         19.1329 
        1.41742         145.992         18.9325         18.9325 
        1.42355         144.862         18.7347         18.7347 
         1.4297         144.134         18.5391         18.5391 
        1.43585         143.673         18.3463         18.3463 
        1.44198         142.308         18.1571         18.1571 
        1.44809         141.822         17.9708         17.9708 
        1.45423         140.968         17.7865         17.7865 
        1.46036         140.184         17.6051         17.6051 
        1.46649         138.895         17.4261         17.4261 
        1.47263         138.484         17.2495         17.2495 
        1.47877         137.567         17.0754         17.0754 
        1.48491         136.445         16.9034         16.9034 
        1.49104         135.442         16.7342         16.7342 
        1.49718         134.895         16.5671         16.5671 
        1.50333         133.703          16.402          16.402 
        1.50947         133.254         16.2395         16.2395 
         1.5156         132.291         16.0795         16.0795 
        1.52172          131.52         15.9216         15.9216 
        1.52787         130.964         15.7655         15.7655 
          1.534         130.288         15.6117         15.6117 
        1.54013         129.354         15.4601         15.4601 
        1.54627         128.629         15.3102         15.3102 
        1.55241          127.89         15.1623         15.1623 
        1.55855         127.031         15.0166         15.0166 
        1.56467         126.332         14.8731         14.8731 
         1.5708          125.56         14.7311         14.7311 
        1.57695         124.966         14.5908         14.5908 
        1.58308         123.897         14.4526         14.4526 
        1.58922         123.247         14.3161         14.3161 
        1.59535         122.548         14.1814         14.1814 
         1.6015         121.713         14.0483         14.0483 
        1.60764         120.944         13.9169         13.9169 
        1.61376         120.413         13.7876         13.7876 
        1.61989         119.692         13.6598         13.6598 
        1.62604         119.044         13.5333         13.5333 
        1.63218         118.238         13.4085         13.4085 
        1.63831         117.581         13.2856         13.2856 
        1.64444         116.628         13.1641         13.1641 
        1.65059         116.113         13.0439         13.0439 
        1.65673         115.438         12.9253         12.9253 
        1.66285          114.95         12.8085         12.8085 
        1.66898         114.201         12.6931         12.6931 
        1.67512         113.088         12.5789         12.5789 
        1.68127         112.894         12.4661         12.4661 
         1.6874         112.152         12.3548         12.3548 
        1.69353         111.497          12.245          12.245 
        1.69967         110.848         12.1362         12.1362 
        1.70581         110.157         12.0288         12.0288 
        1.71193         109.685         11.9231         11.9231 
        1.71806         108.629         11.8184         11.8184 
        1.72421         108.025         11.7148         11.7148 
        1.73035          107.68         11.6126         11.6126 
        1.73649         107.053         11.5116         11.5116 
        1.74262         106.171         11.4118         11.4118 
        1.74876         105.523         11.3132         11.3132 
        1.75489         105.444          11.216          11.216 
        1.76101         104.469         11.1199         11.1199 
        1.76715         103.835         11.0248         11.0248 
        1.77329         103.235         10.9307         10.9307 
        1.77943         102.516         10.8376         10.8376 
        1.78557         101.908         10.7458         10.7458 
        1.79171         101.282          10.655          10.655 
        1.79785         100.675         10.5653         10.5653 
        1.80399         100.066         10.4766         10.4766 
        1.81012         99.7135          10.389          10.389 
        1.81625         98.8749         10.3024         10.3024 
        1.82239         98.5721         10.2168         10.2168 
        1.82853         97.7652         10.1321         10.1321 
        1.83466         97.0269         10.0485         10.0485 
        1.84078         96.7749         9.96585         9.96585 
        1.84692          96.183         9.88404         9.88404 
        1.85306          95.536         9.80304         9.80304 
         1.8592         95.0575         9.72308         9.72308 
        1.86533         94.4662         9.64405         9.64405 
        1.87147         93.8271         9.56581         9.56581 
