# k  (h/Mpc)    P(k)  (Mpc/h)^3    P_linear(k)  (Mpc/h)^3     P_NL(k)  ShotnoiseSubtracted = false
     0.00783031         15000.7         15083.1         15083.1 
       0.013688         17119.2         17557.6         17557.6 
       0.019231         16693.5         16930.9         16930.9 
      0.0249154         15016.9         14945.8         14945.8 
      0.0312784         12304.7         12380.5         12380.5 
      0.0375637         10098.5         10226.8         10226.8 
      0.0433917         8775.05         8783.54         8783.54 
      0.0492413         7759.26         7815.99         7815.99 
      0.0555754         7121.66         7122.61         7122.61 
      0.0619321         6389.86         6575.78         6575.78 
       0.067871         5968.22         6050.86         6050.86 
      0.0738098         5440.44         5456.56         5456.56 
      0.0800417         4808.49         4785.84         4785.84 
      0.0862327         4169.92         4147.54         4147.54 
      0.0921407         3693.69         3631.81         3631.81 
      0.0982031         3345.19         3231.69         3231.69 
       0.104506          3006.9         2949.26         2949.26 
       0.110769         2832.66         2766.72         2766.72 
       0.116806         2731.46         2635.57         2635.57 
       0.122832         2569.95         2505.84         2505.84 
       0.129052         2406.48          2346.1          2346.1 
       0.135211         2280.86         2158.36         2158.36 
       0.141259         2065.12          1960.8          1960.8 
       0.147318          1875.8         1772.51         1772.51 
       0.153489         1738.71         1610.02         1610.02 
       0.159709         1656.59         1485.27         1485.27 
       0.165845         1523.88         1397.97         1397.97 
       0.171974         1494.48         1335.53         1335.53 
       0.178125         1444.77         1283.61         1283.61 
       0.184229         1339.29         1230.39         1230.39 
        0.19034         1306.26         1168.43         1168.43 
       0.196428         1253.77          1097.7          1097.7 
       0.202534         1158.48         1022.61         1022.61 
       0.208729         1127.18         949.342         949.342 
       0.214876         1067.09         885.628         885.628 
       0.220989         1003.87         834.077         834.077 
       0.227147         977.282         793.587         793.587 
        0.23329         939.762         761.562         761.562 
       0.239377         930.482         733.889         733.889 
       0.245482         883.064         706.374         706.374 
       0.251667         848.445          676.43          676.43 
       0.257832         832.553         644.119         644.119 
       0.263955         787.279         610.845         610.845 
       0.270079         758.232          578.46          578.46 
        0.27624         724.876         548.662         548.662 
       0.282372         710.489         522.885         522.885 
        0.28843         700.444         501.272         501.272 
       0.294538         664.847         482.565         482.565 
       0.300721         648.365         465.565         465.565 
        0.30691          634.19         449.213         449.213 
       0.313033         605.471         432.885         432.885 
       0.319153          596.16         416.113         416.113 
       0.325316          585.95         399.058         399.058 
        0.33145         570.724         382.439         382.439 
       0.337538         549.256         366.885         366.885 
       0.343633         533.947          352.64          352.64 
       0.349808         521.104         339.653         339.653 
       0.355968         510.723         327.989         327.989 
       0.362074         491.716         317.328         317.328 
       0.368217         488.971         307.148         307.148 
       0.374374         480.314          297.17          297.17 
       0.380519         460.628         287.295         287.295 
       0.386598          455.63         277.635         277.635 
       0.392688         443.627         268.168         268.168 
        0.39888         432.395         258.941         258.941 
       0.405048         422.645         250.288         250.288 
       0.411186         421.632         242.244         242.244 
       0.417313         415.486         234.774         234.774 
       0.423458         404.014         227.744         227.744 
       0.429607         391.658         221.043         221.043 
       0.435692         385.895         214.648         214.648 
       0.441815          378.98         208.387         208.387 
       0.447964         370.403         202.238         202.238 
       0.454126         366.151         196.241         196.241 
       0.460267         359.828         190.477         190.477 
       0.466387         352.189         184.978         184.978 
        0.47254         347.524         179.705         179.705 
       0.478662         339.903          174.72          174.72 
       0.484765         334.951         169.996         169.996 
       0.490885         331.603         165.463         165.463 
       0.497035         324.116         161.072         161.072 
       0.503198         323.176          156.81          156.81 
       0.509342         315.811         152.693         152.693 
       0.515458         309.819          148.72          148.72 
       0.521598         305.223         144.854         144.854 
       0.527764         300.565         141.104         141.104 
       0.533884          297.97          137.52          137.52 
           0.54         293.739         134.083         134.083 
       0.546137          287.22          130.77          130.77 
       0.552299         285.848         127.567         127.567 
       0.558452         280.831         124.478         124.478 
       0.564573         278.836         121.502         121.502 
       0.570708         273.778         118.612         118.612 
       0.576825         268.848         115.821         115.821 
       0.582926         267.298         113.124         113.124 
       0.589034         262.327         110.507         110.507 
       0.595184         260.449         107.956         107.956 
       0.601379         256.211         105.468         105.468 
       0.607522         250.481         103.081         103.081 
       0.613639         249.535         100.782         100.782 
       0.619772         248.364         98.5506         98.5506 
       0.625918         243.466         96.3849         96.3849 
       0.632068         240.942         94.2843         94.2843 
       0.638161         239.083         92.2646         92.2646 
         0.6443          235.59         90.2881         90.2881 
       0.650464          232.38         88.3606         88.3606 
       0.656582         229.948          86.502          86.502 
       0.662703         228.626         84.6959         84.6959 
       0.668861         223.881         82.9313         82.9313 
       0.675024         223.097         81.2164         81.2164 
       0.681124         219.842         79.5685         79.5685 
       0.687237         218.385         77.9643         77.9643 
       0.693381         214.639         76.3976         76.3976 
       0.699536         213.822         74.8719         74.8719 
       0.705665         211.139         73.3947         73.3947 
       0.711789         208.482         71.9589         71.9589 
       0.717957         206.856         70.5515         70.5515 
        0.72409         203.845         69.1893         69.1893 
       0.730186         204.889         67.8712         67.8712 
       0.736317         201.374         66.5802         66.5802 
       0.742472         199.104         65.3181         65.3181 
       0.748622         196.698         64.0898         64.0898 
        0.75476         196.509         62.8959         62.8959 
       0.760888         193.828         61.7343         61.7343 
       0.767043         190.977         60.5976         60.5976 
       0.773185         189.367         59.4921         59.4921 
       0.779291         187.505         58.4206         58.4206 
       0.785407          186.21          57.374          57.374 
       0.791564         184.698         56.3467         56.3467 
       0.797719          181.54         55.3451         55.3451 
       0.803834         182.283         54.3743         54.3743 
       0.809972         179.723         53.4234         53.4234 
       0.816124          176.84         52.4932         52.4932 
       0.822261         175.795         51.5877         51.5877 
       0.828378         175.106         50.7064         50.7064 
       0.834502         172.933          49.845          49.845 
       0.840667         172.799         48.9981         48.9981 
       0.846816         169.379         48.1733         48.1733 
       0.852925         169.129         47.3727         47.3727 
       0.859047         167.363         46.5888         46.5888 
       0.865192           166.7           45.82           45.82 
       0.871341         164.742         45.0682         45.0682 
       0.877463          163.27         44.3367         44.3367 
       0.883569         162.881         43.6233         43.6233 
       0.889708          161.28          42.922          42.922 
       0.895864         159.348         42.2343         42.2343 
       0.902008         157.933         41.5633         41.5633 
       0.908149         156.532         40.9072         40.9072 
       0.914301         155.371         40.2643         40.2643 
       0.920448         155.127         39.6358         39.6358 
       0.926574         153.012          39.023          39.023 
       0.932687         152.715         38.4245         38.4245 
       0.938823         151.234         37.8364         37.8364 
       0.944975         150.583         37.2593         37.2593 
       0.951105         148.783         36.6962         36.6962 
       0.957225         147.748         36.1458         36.1458 
       0.963368         147.178         35.6049         35.6049 
       0.969511         145.153          35.075          35.075 
       0.975621         143.503         34.5587         34.5587 
       0.981748         143.225         34.0516         34.0516 
       0.987916         142.433         33.5514         33.5514 
        0.99406         141.186         33.0632         33.0632 
        1.00019          140.42         32.5857         32.5857 
        1.00632         139.311          32.118          32.118 
        1.01246         138.236         31.6589         31.6589 
        1.01859         137.007         31.2094         31.2094 
        1.02471         135.994         30.7693         30.7693 
        1.03085         135.041         30.3361         30.3361 
        1.03698         134.249         29.9121         29.9121 
        1.04314         133.781         29.4945         29.4945 
        1.04929         132.806         29.0858         29.0858 
        1.05541          132.08         28.6865         28.6865 
        1.06154         130.567         28.2938         28.2938 
        1.06769         129.955         27.9078         27.9078 
        1.07382         129.092         27.5303         27.5303 
        1.07993         127.955         27.1606         27.1606 
        1.08607         127.692         26.7962         26.7962 
        1.09222         126.262         26.4381         26.4381 
        1.09836          125.64          26.087          26.087 
        1.10449         124.855         25.7427         25.7427 
        1.11063         123.646         25.4043         25.4043 
        1.11677         123.145          25.072          25.072 
         1.1229         122.211         24.7463         24.7463 
        1.12903          121.16         24.4261         24.4261 
        1.13518         120.335         24.1113         24.1113 
        1.14131         119.967         23.8022         23.8022 
        1.14745         118.789         23.4987         23.4987 
        1.15359         118.009         23.2004         23.2004 
        1.15973         117.545         22.9072         22.9072 
        1.16584         116.653         22.6204         22.6204 
        1.17197         116.143         22.3381         22.3381 
        1.17811         115.087         22.0598         22.0598 
        1.18424         114.352          21.787          21.787 
        1.19038         113.755          21.518          21.518 
        1.19652         112.863         21.2537         21.2537 
        1.20267         112.098         20.9938         20.9938 
        1.20881          111.25         20.7383         20.7383 
        1.21495         111.042         20.4874         20.4874 
        1.22108         110.068         20.2408         20.2408 
         1.2272         109.537         19.9988         19.9988 
        1.23334         108.827         19.7601         19.7601 
        1.23949         108.231         19.5248         19.5248 
        1.24562         107.302          19.294          19.294 
        1.25174         107.154         19.0672         19.0672 
        1.25789         106.069         18.8434         18.8434 
        1.26402         105.658         18.6236         18.6236 
        1.27014          104.81         18.4078         18.4078 
        1.27628         104.359         18.1948         18.1948 
        1.28244         103.715         17.9848         17.9848 
        1.28858         103.038         17.7783         17.7783 
        1.29471         102.312         17.5755         17.5755 
        1.30084         101.564         17.3761         17.3761 
        1.30697         100.942         17.1795         17.1795 
        1.31312         100.411         16.9857         16.9857 
        1.31925         99.5368         16.7954         16.7954 
        1.32537         99.1099         16.6083         16.6083 
        1.33151         98.8014         16.4233         16.4233 
        1.33765         97.9648         16.2412         16.2412 
        1.34378         97.6972         16.0623         16.0623 
        1.34992         96.9722         15.8859         15.8859 
        1.35606         96.4918         15.7118         15.7118 
         1.3622         96.0442         15.5407         15.5407 
        1.36833          95.151         15.3724         15.3724 
        1.37445         94.8924         15.2068         15.2068 
        1.38059         94.1953         15.0431         15.0431 
        1.38675         93.6084         14.8814         14.8814 
        1.39288         92.9755         14.7227         14.7227 
        1.39901         92.4852         14.5664         14.5664 
        1.40515         91.9989          14.412          14.412 
         1.4113         91.3926         14.2599         14.2599 
        1.41742         91.0875         14.1106         14.1106 
        1.42355         90.5993         13.9632         13.9632 
         1.4297         89.9272         13.8174         13.8174 
        1.43585         89.4681         13.6737         13.6737 
        1.44198         88.6981         13.5326         13.5326 
        1.44809         88.2807         13.3938         13.3938 
        1.45423          88.109         13.2564         13.2564 
        1.46036         87.2363         13.1212         13.1212 
        1.46649          86.815         12.9879         12.9879 
        1.47263         86.1542         12.8562         12.8562 
        1.47877         85.8376         12.7265         12.7265 
        1.48491         85.3644         12.5983         12.5983 
        1.49104         84.6302         12.4721         12.4721 
        1.49718         84.2528         12.3476         12.3476 
        1.50333         83.8218         12.2246         12.2246 
        1.50947         83.5354         12.1035         12.1035 
         1.5156         82.9733         11.9842         11.9842 
        1.52172         82.2596         11.8665         11.8665 
        1.52787         82.0765         11.7502         11.7502 
          1.534         81.5601         11.6356         11.6356 
        1.54013         81.0557         11.5226         11.5226 
        1.54627         80.5211         11.4109         11.4109 
        1.55241          80.366         11.3006         11.3006 
        1.55855         79.5732          11.192          11.192 
        1.56467         79.1788         11.0851         11.0851 
         1.5708         78.4437         10.9793         10.9793 
        1.57695         78.3529         10.8747         10.8747 
        1.58308         77.8674         10.7717         10.7717 
        1.58922         77.6083           10.67           10.67 
        1.59535         77.3344         10.5696         10.5696 
         1.6015         76.5474         10.4703         10.4703 
        1.60764         76.1592         10.3724         10.3724 
        1.61376         75.9536          10.276          10.276 
        1.61989         75.4402         10.1808         10.1808 
        1.62604         75.0177         10.0865         10.0865 
        1.63218         74.5292         9.99351         9.99351 
        1.63831         74.1266         9.90188         9.90188 
        1.64444         73.6636         9.81136         9.81136 
        1.65059         73.2876         9.72176         9.72176 
        1.65673         73.1413         9.63337         9.63337 
        1.66285         72.6583         9.54633         9.54633 
        1.66898         72.0429         9.46033         9.46033 
        1.67512         71.5812         9.37522         9.37522 
        1.68127         71.3713         9.29108         9.29108 
         1.6874         70.8939         9.20815         9.20815 
        1.69353         70.5189         9.12629         9.12629 
        1.69967         70.0671         9.04522         9.04522 
        1.70581          69.804         8.96518         8.96518 
        1.71193          69.327          8.8864          8.8864 
        1.71806         69.0165          8.8084          8.8084 
        1.72421         68.5628         8.73118         8.73118 
        1.73035         68.1613         8.65498         8.65498 
        1.73649         67.8085         8.57969         8.57969 
        1.74262         67.5248         8.50536         8.50536 
        1.74876         67.0044         8.43186         8.43186 
        1.75489         66.7846         8.35938         8.35938 
        1.76101         66.5347         8.28777         8.28777 
        1.76715          66.023         8.21689         8.21689 
        1.77329         65.6154         8.14676         8.14676 
        1.77943         65.4001         8.07741         8.07741 
        1.78557         65.0823         8.00896         8.00896 
        1.79171         64.5478          7.9413          7.9413 
        1.79785         64.2325          7.8744          7.8744 
        1.80399         64.0661         7.80828         7.80828 
        1.81012         63.4836         7.74301         7.74301 
        1.81625         63.2168         7.67851         7.67851 
        1.82239         62.7664         7.61465         7.61465 
        1.82853         62.5807         7.55155         7.55155 
        1.83466         62.1128         7.48921         7.48921 
        1.84078         61.8609         7.42765         7.42765 
        1.84692         61.6592         7.36667         7.36667 
        1.85306         61.4093         7.30631         7.30631 
         1.8592         60.9941         7.24671         7.24671 
        1.86533         60.5863         7.18781         7.18781 
        1.87147         60.2702          7.1295          7.1295 
        1.87761         59.7188          7.0718          7.0718 
