# k  (h/Mpc)    Pcb(k)  (Mpc/h)^3    Pcb_linear(k) (Mpc/h)^3    Pcb_NL(k) (Mpc/h)^3   ShotnoiseSubtracted = false
     0.00783031         6912.44         6956.99         6956.99 
       0.013688         7952.32         8100.49         8100.49 
       0.019231         7740.53          7812.2          7812.2 
      0.0249154         6925.34         6896.69         6896.69 
      0.0312784         5701.99         5713.18         5713.18 
      0.0375637         4688.85         4719.44         4719.44 
      0.0433917         4061.82         4053.47         4053.47 
      0.0492413          3596.4            3607            3607 
      0.0555754         3298.07         3287.04         3287.04 
      0.0619321         2982.13         3034.71         3034.71 
       0.067871         2776.92         2792.47         2792.47 
      0.0738098         2518.58         2518.21         2518.21 
      0.0800417         2222.42         2208.68         2208.68 
      0.0862327         1923.42         1914.11         1914.11 
      0.0921407         1692.12          1676.1          1676.1 
      0.0982031         1523.47         1491.44         1491.44 
       0.104506         1372.37          1361.1          1361.1 
       0.110769         1291.15         1276.86         1276.86 
       0.116806         1243.72         1216.34         1216.34 
       0.122832          1170.1         1156.47         1156.47 
       0.129052         1100.16         1082.75         1082.75 
       0.135211            1029         996.103         996.103 
       0.141259         931.269         904.929         904.929 
       0.147318         839.869         818.032         818.032 
       0.153489         772.805         743.042         743.042 
       0.159709         726.697         685.466         685.466 
       0.165845         670.173         645.179         645.179 
       0.171974         656.495          616.36          616.36 
       0.178125         630.883         592.398         592.398 
       0.184229         592.758         567.839         567.839 
        0.19034         572.668         539.245         539.245 
       0.196428         544.075         506.602         506.602 
       0.202534         499.725         471.944         471.944 
       0.208729         480.273         438.132         438.132 
       0.214876         454.558         408.727         408.727 
       0.220989         422.265         384.937         384.937 
       0.227147         411.331         366.251         366.251 
        0.23329         395.854          351.47          351.47 
       0.239377         387.012         338.699         338.699 
       0.245482         367.953         326.001         326.001 
       0.251667         351.553         312.181         312.181 
       0.257832         344.513         297.269         297.269 
       0.263955         322.987         281.913         281.913 
       0.270079         308.212         266.966         266.966 
        0.27624          293.55         253.215         253.215 
       0.282372         284.116         241.318         241.318 
        0.28843         280.673         231.343         231.343 
       0.294538         266.843          222.71          222.71 
       0.300721         256.832         214.864         214.864 
        0.30691         252.204         207.318         207.318 
       0.313033         240.549         199.782         199.782 
       0.319153         235.649         192.042         192.042 
       0.325316         227.853          184.17          184.17 
        0.33145         220.442           176.5           176.5 
       0.337538         212.119         169.322         169.322 
       0.343633         204.952         162.747         162.747 
       0.349808         198.629         156.754         156.754 
       0.355968         193.705         151.371         151.371 
       0.362074         188.508         146.451         146.451 
       0.368217         184.886         141.753         141.753 
       0.374374         180.016         137.148         137.148 
       0.380519         172.364          132.59          132.59 
       0.386598          168.77         128.132         128.132 
       0.392688         163.502         123.763         123.763 
        0.39888         160.061         119.505         119.505 
       0.405048         156.067         115.511         115.511 
       0.411186         153.569         111.799         111.799 
       0.417313         149.698         108.351         108.351 
       0.423458         145.775         105.107         105.107 
       0.429607         142.142         102.014         102.014 
       0.435692          139.64         99.0627         99.0627 
       0.441815         135.866         96.1734         96.1734 
       0.447964         131.433         93.3355         93.3355 
       0.454126         129.024         90.5678         90.5678 
       0.460267          127.62         87.9077         87.9077 
       0.466387         124.355         85.3696         85.3696 
        0.47254         122.736          82.936          82.936 
       0.478662          118.46         80.6358         80.6358 
       0.484765         116.621         78.4555         78.4555 
       0.490885         114.125         76.3635         76.3635 
       0.497035         112.872         74.3366         74.3366 
       0.503198         110.581           72.37           72.37 
       0.509342         107.607         70.4698         70.4698 
       0.515458         105.886         68.6361         68.6361 
       0.521598         103.187         66.8521         66.8521 
       0.527764         102.117         65.1213         65.1213 
       0.533884         101.178         63.4676         63.4676 
           0.54         98.3107         61.8811         61.8811 
       0.546137         95.9175         60.3522         60.3522 
       0.552299         94.3547         58.8737         58.8737 
       0.558452         92.5952         57.4482         57.4482 
       0.564573         92.0173         56.0749         56.0749 
       0.570708         89.3589         54.7411         54.7411 
       0.576825         88.3166         53.4528         53.4528 
       0.582926         87.2505          52.208          52.208 
       0.589034         85.5764         51.0005         51.0005 
       0.595184         84.4091         49.8229         49.8229 
       0.601379         82.4888          48.675          48.675 
       0.607522         80.8405         47.5734         47.5734 
       0.613639         80.1127         46.5122         46.5122 
       0.619772         78.6246         45.4824         45.4824 
       0.625918         77.8641         44.4829         44.4829 
       0.632068         76.2662         43.5134         43.5134 
       0.638161         75.0439         42.5813         42.5813 
         0.6443         74.5373         41.6692         41.6692 
       0.650464         72.7745         40.7796         40.7796 
       0.656582         72.4522         39.9218         39.9218 
       0.662703         71.3344         39.0883         39.0883 
       0.668861         69.7433         38.2739         38.2739 
       0.675024           69.54         37.4825         37.4825 
       0.681124         68.3878         36.7219         36.7219 
       0.687237         67.1178         35.9815         35.9815 
       0.693381         66.4593         35.2585         35.2585 
       0.699536         65.6292         34.5544         34.5544 
       0.705665         64.6555         33.8727         33.8727 
       0.711789         63.6373           33.21           33.21 
       0.717957         62.7618         32.5604         32.5604 
        0.72409         62.1106         31.9318         31.9318 
       0.730186         61.7154         31.3235         31.3235 
       0.736317         60.6286         30.7277         30.7277 
       0.742472          59.697         30.1452         30.1452 
       0.748622         58.7658         29.5783         29.5783 
        0.75476          58.354         29.0273         29.0273 
       0.760888         58.0084         28.4912         28.4912 
       0.767043          56.752         27.9666         27.9666 
       0.773185         55.9612         27.4564         27.4564 
       0.779291         55.3368         26.9619         26.9619 
       0.785407         54.6546         26.4789         26.4789 
       0.791564         54.4873         26.0047         26.0047 
       0.797719          53.507         25.5425         25.5425 
       0.803834         53.1319         25.0945         25.0945 
       0.809972         52.5684         24.6556         24.6556 
       0.816124         51.8662         24.2263         24.2263 
       0.822261         51.1116         23.8084         23.8084 
       0.828378         50.9602         23.4017         23.4017 
       0.834502         50.2249         23.0041         23.0041 
       0.840667         49.7914         22.6133         22.6133 
       0.846816         49.1997         22.2326         22.2326 
       0.852925         48.6149         21.8631         21.8631 
       0.859047         48.4179         21.5013         21.5013 
       0.865192         47.6047         21.1466         21.1466 
       0.871341         47.0833         20.7996         20.7996 
       0.877463         46.6426          20.462          20.462 
       0.883569         46.4901         20.1327         20.1327 
       0.889708         45.9356         19.8091         19.8091 
       0.895864         45.5218         19.4917         19.4917 
       0.902008         44.9895          19.182          19.182 
       0.908149         44.4462         18.8792         18.8792 
       0.914301         44.1152         18.5825         18.5825 
       0.920448         43.9539         18.2925         18.2925 
       0.926574         43.0751         18.0097         18.0097 
       0.932687         42.7885         17.7334         17.7334 
       0.938823         42.3467          17.462          17.462 
       0.944975         41.8376         17.1956         17.1956 
       0.951105         41.5376         16.9358         16.9358 
       0.957225         41.2731         16.6818         16.6818 
       0.963368         40.8492         16.4321         16.4321 
       0.969511         40.4804         16.1876         16.1876 
       0.975621         40.1282         15.9493         15.9493 
       0.981748         39.7168         15.7153         15.7153 
       0.987916         39.3642         15.4844         15.4844 
        0.99406         39.0897         15.2591         15.2591 
        1.00019         38.6579         15.0387         15.0387 
        1.00632          38.355         14.8229         14.8229 
        1.01246         38.0375          14.611          14.611 
        1.01859         37.7761         14.4036         14.4036 
        1.02471         37.3499         14.2004         14.2004 
        1.03085          37.082         14.0005         14.0005 
        1.03698         36.8493         13.8049         13.8049 
        1.04314         36.5146         13.6121         13.6121 
        1.04929         36.0658         13.4235         13.4235 
        1.05541         35.9728         13.2392         13.2392 
        1.06154         35.6563          13.058          13.058 
        1.06769         35.1865         12.8798         12.8798 
        1.07382          34.962         12.7056         12.7056 
        1.07993         34.7584          12.535          12.535 
        1.08607         34.4419         12.3668         12.3668 
        1.09222         34.2423         12.2016         12.2016 
        1.09836         33.9333         12.0395         12.0395 
        1.10449          33.744         11.8806         11.8806 
        1.11063         33.3822         11.7244         11.7244 
        1.11677         33.2934         11.5711         11.5711 
         1.1229         32.9237         11.4207         11.4207 
        1.12903         32.7075          11.273          11.273 
        1.13518         32.6002         11.1277         11.1277 
        1.14131          32.246          10.985          10.985 
        1.14745         31.9566          10.845          10.845 
        1.15359         31.5986         10.7073         10.7073 
        1.15973         31.5526          10.572          10.572 
        1.16584         31.2853         10.4396         10.4396 
        1.17197         30.9217         10.3093         10.3093 
        1.17811         30.7759         10.1809         10.1809 
        1.18424         30.3345          10.055          10.055 
        1.19038         30.2431         9.93084         9.93084 
        1.19652         30.0695         9.80885         9.80885 
        1.20267         29.8689         9.68891         9.68891 
        1.20881         29.6374           9.571           9.571 
        1.21495         29.5377         9.45524         9.45524 
        1.22108         29.4062          9.3414          9.3414 
         1.2272         29.0701          9.2297          9.2297 
        1.23334         28.9126         9.11957         9.11957 
        1.23949         28.7076         9.01097         9.01097 
        1.24562         28.4764         8.90444         8.90444 
        1.25174         28.2828         8.79979         8.79979 
        1.25789         28.1666          8.6965          8.6965 
        1.26402          27.966         8.59505         8.59505 
        1.27014         27.8277         8.49546         8.49546 
        1.27628         27.5184         8.39715         8.39715 
        1.28244         27.5188         8.30021         8.30021 
        1.28858         27.2116         8.20493         8.20493 
        1.29471         26.9853         8.11135         8.11135 
        1.30084         26.7955         8.01932         8.01932 
        1.30697         26.7421         7.92858         7.92858 
        1.31312          26.492         7.83912         7.83912 
        1.31925          26.281         7.75131         7.75131 
        1.32537         26.1134         7.66494         7.66494 
        1.33151         25.9164         7.57957         7.57957 
        1.33765         25.8707         7.49555         7.49555 
        1.34378         25.7387         7.41297         7.41297 
        1.34992         25.4779         7.33158         7.33158 
        1.35606         25.2896         7.25123         7.25123 
         1.3622         25.1871         7.17223         7.17223 
        1.36833         25.0975         7.09459         7.09459 
        1.37445         24.8458         7.01814         7.01814 
        1.38059         24.7158         6.94258         6.94258 
        1.38675         24.5458         6.86796         6.86796 
        1.39288         24.4187         6.79472         6.79472 
        1.39901         24.2363         6.72259         6.72259 
        1.40515         24.1257         6.65134         6.65134 
         1.4113         24.0625         6.58115         6.58115 
        1.41742         23.8878         6.51224         6.51224 
        1.42355         23.6515         6.44419         6.44419 
         1.4297         23.5805         6.37691         6.37691 
        1.43585         23.4184         6.31061         6.31061 
        1.44198         23.2857          6.2455          6.2455 
        1.44809         23.1105         6.18144         6.18144 
        1.45423         23.0207         6.11803         6.11803 
        1.46036         22.9303         6.05563         6.05563 
        1.46649         22.7508         5.99407         5.99407 
        1.47263         22.5986         5.93332         5.93332 
        1.47877         22.4767         5.87344         5.87344 
        1.48491         22.3678         5.81428         5.81428 
        1.49104         22.1964         5.75606         5.75606 
        1.49718         22.1806         5.69859         5.69859 
        1.50333         22.0462         5.64182         5.64182 
        1.50947         21.8392         5.58593         5.58593 
         1.5156         21.7795         5.53088         5.53088 
        1.52172         21.6193         5.47657         5.47657 
        1.52787         21.5605         5.42288         5.42288 
          1.534         21.3725         5.36997         5.36997 
        1.54013         21.3715         5.31782         5.31782 
        1.54627         21.1584         5.26627         5.26627 
        1.55241         21.0473         5.21539         5.21539 
        1.55855         20.9584         5.16526         5.16526 
        1.56467          20.829         5.11592         5.11592 
         1.5708         20.7322         5.06709         5.06709 
        1.57695         20.6568         5.01881         5.01881 
        1.58308         20.4503         4.97128         4.97128 
        1.58922         20.3627         4.92433         4.92433 
        1.59535          20.271           4.878           4.878 
         1.6015         20.2153         4.83221         4.83221 
        1.60764         20.0524         4.78702         4.78702 
        1.61376          19.948         4.74253         4.74253 
        1.61989         19.7935         4.69857         4.69857 
        1.62604         19.7099         4.65507         4.65507 
        1.63218         19.6151         4.61214         4.61214 
        1.63831         19.5294         4.56985         4.56985 
        1.64444         19.4288         4.52808         4.52808 
        1.65059         19.3193         4.48673         4.48673 
        1.65673         19.2375         4.44593         4.44593 
        1.66285         19.1537         4.40576         4.40576 
        1.66898         19.0238         4.36607         4.36607 
        1.67512         18.9906         4.32679         4.32679 
        1.68127         18.8552         4.28796         4.28796 
         1.6874         18.7614         4.24969         4.24969 
        1.69353         18.6671         4.21191         4.21191 
        1.69967         18.5643          4.1745          4.1745 
        1.70581         18.4697         4.13755         4.13755 
        1.71193         18.3693          4.1012          4.1012 
        1.71806         18.3087          4.0652          4.0652 
        1.72421         18.2144         4.02956         4.02956 
        1.73035         18.1037         3.99439         3.99439 
        1.73649         17.9922         3.95965         3.95965 
        1.74262         17.9017         3.92534         3.92534 
        1.74876         17.8612         3.89142         3.89142 
        1.75489         17.7354         3.85797         3.85797 
        1.76101         17.6612         3.82492         3.82492 
        1.76715         17.5804         3.79221         3.79221 
        1.77329         17.4536         3.75984         3.75984 
        1.77943          17.414         3.72783         3.72783 
        1.78557          17.353         3.69625         3.69625 
        1.79171         17.2498         3.66502         3.66502 
        1.79785         17.1517         3.63415         3.63415 
        1.80399         17.0424         3.60363         3.60363 
        1.81012         17.0191         3.57351         3.57351 
        1.81625         16.8806         3.54374         3.54374 
        1.82239         16.8107         3.51427         3.51427 
        1.82853         16.7372         3.48514         3.48514 
        1.83466         16.6521         3.45638         3.45638 
        1.84078         16.5687         3.42796         3.42796 
        1.84692         16.5185         3.39982         3.39982 
        1.85306         16.4195         3.37196         3.37196 
         1.8592         16.3902         3.34446         3.34446 
        1.86533         16.2742         3.31727         3.31727 
        1.87147         16.1705         3.29036         3.29036 
