# k  (h/Mpc)    Pcb(k)  (Mpc/h)^3    Pcb_linear(k) (Mpc/h)^3    Pcb_NL(k) (Mpc/h)^3   ShotnoiseSubtracted = false
     0.00783031         10161.1         10222.1         10222.1 
       0.013688         11648.5         11900.7         11900.7 
       0.019231         11347.8         11476.6         11476.6 
      0.0249154         10177.7         10131.4         10131.4 
      0.0312784         8362.45         8392.61         8392.61 
      0.0375637         6870.33         6932.73         6932.73 
      0.0433917         5960.18          5954.4          5954.4 
      0.0492413         5273.81         5298.52         5298.52 
      0.0555754         4839.19          4828.5          4828.5 
      0.0619321         4359.96         4457.82         4457.82 
       0.067871         4066.44         4101.98         4101.98 
      0.0738098          3695.7          3699.1          3699.1 
      0.0800417         3263.85         3244.41         3244.41 
      0.0862327         2826.64          2811.7          2811.7 
      0.0921407          2493.6         2462.08         2462.08 
      0.0982031         2250.93         2190.83         2190.83 
       0.104506         2025.16         1999.37         1999.37 
       0.110769          1906.5         1875.62         1875.62 
       0.116806         1838.26         1786.72         1786.72 
       0.122832         1728.55         1698.77         1698.77 
       0.129052         1623.13         1590.48         1590.48 
       0.135211         1526.82          1463.2          1463.2 
       0.141259          1381.9         1329.28         1329.28 
       0.147318         1249.24         1201.63         1201.63 
       0.153489         1153.28         1091.48         1091.48 
       0.159709         1090.97          1006.9          1006.9 
       0.165845         1004.12         947.721         947.721 
       0.171974         985.318         905.387         905.387 
       0.178125         949.047         870.189         870.189 
       0.184229         886.158         834.114         834.114 
        0.19034         859.614         792.111         792.111 
       0.196428         820.601         744.161         744.161 
       0.202534         754.655         693.251         693.251 
       0.208729         730.295         643.583         643.583 
       0.214876         691.533          600.39          600.39 
       0.220989         645.056         565.443         565.443 
       0.227147         628.814         537.995         537.995 
        0.23329         605.079         516.283         516.283 
       0.239377         594.964         497.523         497.523 
       0.245482         564.664         478.871         478.871 
       0.251667         540.872         458.571         458.571 
       0.257832         531.066         436.665         436.665 
       0.263955         499.221         414.108         414.108 
       0.270079         478.052         392.153         392.153 
        0.27624         456.232         371.953         371.953 
       0.282372         444.057         354.478         354.478 
        0.28843         439.203         339.825         339.825 
       0.294538         416.579         327.144         327.144 
       0.300721         403.283         315.619         315.619 
        0.30691         395.833         304.534         304.534 
       0.313033         377.158         293.465         293.465 
       0.319153         370.049         282.095         282.095 
       0.325316         361.076         270.531         270.531 
        0.33145          350.76         259.266         259.266 
       0.337538         337.265         248.721         248.721 
       0.343633         326.362         239.063         239.063 
       0.349808         317.327          230.26          230.26 
       0.355968         310.489         222.352         222.352 
       0.362074         300.249         215.125         215.125 
       0.368217         296.732         208.224         208.224 
       0.374374          289.74          201.46          201.46 
       0.380519         277.636         194.765         194.765 
       0.386598         273.235         188.216         188.216 
       0.392688         265.463         181.798         181.798 
        0.39888         259.058         175.544         175.544 
       0.405048         253.042         169.677         169.677 
       0.411186         250.964         164.224         164.224 
       0.417313          245.81         159.159         159.159 
       0.423458         239.206         154.394         154.394 
       0.429607         232.412         149.851         149.851 
       0.435692         228.391         145.516         145.516 
       0.441815         223.806         141.271         141.271 
       0.447964         217.182         137.103         137.103 
       0.454126         213.944         133.037         133.037 
       0.460267         210.924          129.13          129.13 
       0.466387         205.968         125.401         125.401 
        0.47254         203.262         121.827         121.827 
       0.478662         197.317         118.448         118.448 
       0.484765         194.458         115.245         115.245 
       0.490885           191.5         112.172         112.172 
       0.497035         188.494         109.195         109.195 
       0.503198          186.34         106.306         106.306 
       0.509342         181.424         103.515         103.515 
       0.515458         178.534         100.821         100.821 
       0.521598         174.338         98.2006         98.2006 
       0.527764         172.631         95.6582         95.6582 
       0.533884         171.315         93.2289         93.2289 
           0.54         167.332         90.8985         90.8985 
       0.546137          163.39         88.6527         88.6527 
       0.552299         161.617         86.4809         86.4809 
       0.558452         158.754         84.3869         84.3869 
       0.564573         157.744         82.3697         82.3697 
       0.570708         153.779         80.4104         80.4104 
       0.576825         151.606         78.5181         78.5181 
       0.582926         150.005         76.6896         76.6896 
       0.589034          147.44         74.9157         74.9157 
       0.595184         145.933          73.186          73.186 
       0.601379         143.185         71.4998         71.4998 
       0.607522         140.026         69.8817         69.8817 
       0.613639         139.026         68.3228         68.3228 
       0.619772         137.366         66.8101         66.8101 
       0.625918         135.969          65.342          65.342 
       0.632068         132.846         63.9179         63.9179 
       0.638161         131.668         62.5487         62.5487 
         0.6443         130.549         61.2088         61.2088 
       0.650464         127.815         59.9021         59.9021 
       0.656582         126.999         58.6421         58.6421 
       0.662703         125.591         57.4176         57.4176 
       0.668861         122.919         56.2214         56.2214 
       0.675024         122.774         55.0588         55.0588 
       0.681124          120.74         53.9417         53.9417 
       0.687237         119.235         52.8541         52.8541 
       0.693381         117.657          51.792          51.792 
       0.699536         116.501         50.7577         50.7577 
       0.705665         115.053         49.7563         49.7563 
       0.711789         113.352         48.7829         48.7829 
       0.717957         112.087         47.8288         47.8288 
        0.72409         110.796         46.9053         46.9053 
       0.730186         110.702         46.0118         46.0118 
       0.736317         108.975         45.1366         45.1366 
       0.742472         107.107         44.2809         44.2809 
       0.748622          105.47         43.4482         43.4482 
        0.75476         105.783         42.6388         42.6388 
       0.760888         104.464         41.8514         41.8514 
       0.767043         102.463         41.0808         41.0808 
       0.773185         101.246         40.3313         40.3313 
       0.779291         100.179         39.6049         39.6049 
       0.785407         99.3174         38.8954         38.8954 
       0.791564         98.5092          38.199          38.199 
       0.797719         96.9753           37.52           37.52 
       0.803834         96.8411         36.8618         36.8618 
       0.809972          95.867         36.2172         36.2172 
       0.816124         94.2644         35.5866         35.5866 
       0.822261         93.4342         34.9727         34.9727 
       0.828378          93.111         34.3753         34.3753 
       0.834502         91.9294         33.7913         33.7913 
       0.840667         91.2891         33.2171         33.2171 
       0.846816         90.1586          32.658          32.658 
       0.852925         89.2405         32.1153         32.1153 
       0.859047          88.527         31.5838         31.5838 
       0.865192         87.7003         31.0626         31.0626 
       0.871341          86.845         30.5529         30.5529 
       0.877463         86.0753          30.057          30.057 
       0.883569         85.8975         29.5734         29.5734 
       0.889708         84.9986          29.098          29.098 
       0.895864         84.2043         28.6318         28.6318 
       0.902008         83.1339         28.1769         28.1769 
       0.908149         82.1338         27.7321         27.7321 
       0.914301         81.9064         27.2963         27.2963 
       0.920448         81.7803         26.8702         26.8702 
       0.926574         79.9958         26.4548         26.4548 
       0.932687         79.8612          26.049          26.049 
       0.938823         79.2532         25.6503         25.6503 
       0.944975         78.3662         25.2591         25.2591 
       0.951105         77.6148         24.8774         24.8774 
       0.957225         77.3699         24.5043         24.5043 
       0.963368         76.5014         24.1375         24.1375 
       0.969511         76.0036         23.7783         23.7783 
       0.975621         75.0335         23.4283         23.4283 
       0.981748         74.5603         23.0845         23.0845 
       0.987916         73.9785         22.7454         22.7454 
        0.99406         73.7264         22.4144         22.4144 
        1.00019         72.8115         22.0907         22.0907 
        1.00632         72.1716         21.7737         21.7737 
        1.01246         71.7634         21.4624         21.4624 
        1.01859         71.3873         21.1577         21.1577 
        1.02471          70.803         20.8593         20.8593 
        1.03085         70.0885         20.5657         20.5657 
        1.03698         69.5537         20.2783         20.2783 
        1.04314         69.0585         19.9951         19.9951 
        1.04929         68.6313         19.7181         19.7181 
        1.05541         68.0583         19.4474         19.4474 
        1.06154         67.5412         19.1811         19.1811 
        1.06769         67.1017         18.9195         18.9195 
        1.07382         66.4806         18.6635         18.6635 
        1.07993         66.2093         18.4129         18.4129 
        1.08607         65.6898         18.1659         18.1659 
        1.09222         65.3173         17.9231         17.9231 
        1.09836          64.722         17.6851         17.6851 
        1.10449         64.3031         17.4517         17.4517 
        1.11063         63.8073         17.2222         17.2222 
        1.11677         63.4742          16.997          16.997 
         1.1229         62.8181         16.7762         16.7762 
        1.12903         62.5505         16.5591         16.5591 
        1.13518         62.1299         16.3457         16.3457 
        1.14131         61.6578         16.1361         16.1361 
        1.14745         61.3726         15.9304         15.9304 
        1.15359         60.5706         15.7282         15.7282 
        1.15973         60.5036         15.5294         15.5294 
        1.16584         60.0571          15.335          15.335 
        1.17197         59.6502         15.1436         15.1436 
        1.17811         59.1855         14.9549         14.9549 
        1.18424         58.5996           14.77           14.77 
        1.19038         58.4678         14.5876         14.5876 
        1.19652         58.0956         14.4084         14.4084 
        1.20267         57.6162         14.2323         14.2323 
        1.20881         57.2303         14.0591         14.0591 
        1.21495          56.857          13.889          13.889 
        1.22108         56.7114         13.7218         13.7218 
         1.2272         56.1145         13.5577         13.5577 
        1.23334         55.9465         13.3959         13.3959 
        1.23949         55.5112         13.2364         13.2364 
        1.24562         55.0351         13.0799         13.0799 
        1.25174         54.8205         12.9262         12.9262 
        1.25789         54.5732         12.7745         12.7745 
        1.26402         54.1865         12.6255         12.6255 
        1.27014         53.8826         12.4792         12.4792 
        1.27628         53.4441         12.3348         12.3348 
        1.28244         53.3954         12.1924         12.1924 
        1.28858         52.8778         12.0524         12.0524 
        1.29471         52.4727         11.9149         11.9149 
        1.30084         51.9873         11.7798         11.7798 
        1.30697         52.0217         11.6465         11.6465 
        1.31312         51.6592         11.5151         11.5151 
        1.31925         51.1928         11.3861         11.3861 
        1.32537         50.9492         11.2592         11.2592 
        1.33151          50.686         11.1338         11.1338 
        1.33765         50.3781         11.0104         11.0104 
        1.34378         50.0447         10.8891         10.8891 
        1.34992         49.8345         10.7695         10.7695 
        1.35606         49.4259         10.6515         10.6515 
         1.3622         49.2682         10.5354         10.5354 
        1.36833         48.9578         10.4214         10.4214 
        1.37445         48.5366         10.3091         10.3091 
        1.38059         48.3764         10.1981         10.1981 
        1.38675         47.9236         10.0885         10.0885 
        1.39288         47.8002         9.98092         9.98092 
        1.39901         47.3993         9.87496         9.87496 
        1.40515         47.2213          9.7703          9.7703 
         1.4113         47.0133          9.6672          9.6672 
        1.41742         46.6572         9.56598         9.56598 
        1.42355           46.51         9.46601         9.46601 
         1.4297         46.2512         9.36718         9.36718 
        1.43585         45.9438         9.26979         9.26979 
        1.44198         45.6272         9.17415         9.17415 
        1.44809         45.2643         9.08005         9.08005 
        1.45423         45.1687         8.98691         8.98691 
        1.46036         44.9387         8.89525         8.89525 
        1.46649         44.5909         8.80482         8.80482 
        1.47263         44.3688         8.71559         8.71559 
        1.47877         44.1616         8.62762         8.62762 
        1.48491         43.8417         8.54072         8.54072 
        1.49104         43.5952          8.4552          8.4552 
        1.49718         43.4169         8.37079         8.37079 
        1.50333         43.2189         8.28739         8.28739 
        1.50947         42.9371         8.20529         8.20529 
         1.5156         42.8132         8.12443         8.12443 
        1.52172         42.4287         8.04465         8.04465 
        1.52787         42.2448         7.96578         7.96578 
          1.534         41.9483         7.88806         7.88806 
        1.54013         41.9465         7.81146         7.81146 
        1.54627          41.509         7.73574         7.73574 
        1.55241         41.3838           7.661           7.661 
        1.55855          41.102         7.58736         7.58736 
        1.56467         40.7779         7.51489         7.51489 
         1.5708         40.7772         7.44315         7.44315 
        1.57695         40.4801         7.37225         7.37225 
        1.58308         40.2683         7.30243         7.30243 
        1.58922         40.0272         7.23346         7.23346 
        1.59535         39.9916         7.16541         7.16541 
         1.6015         39.8043         7.09813         7.09813 
        1.60764         39.4838         7.03175         7.03175 
        1.61376         39.2824         6.96641         6.96641 
        1.61989         38.9493         6.90183         6.90183 
        1.62604         38.8425         6.83793         6.83793 
        1.63218         38.5487         6.77487         6.77487 
        1.63831         38.4582         6.71276         6.71276 
        1.64444         38.3074         6.65139         6.65139 
        1.65059         37.9992         6.59065         6.59065 
        1.65673         37.8281         6.53073         6.53073 
        1.66285         37.6733         6.47172         6.47172 
        1.66898         37.4097         6.41342         6.41342 
        1.67512         37.1852         6.35572         6.35572 
        1.68127         37.1167         6.29868         6.29868 
         1.6874         36.9347         6.24246         6.24246 
        1.69353          36.691         6.18696         6.18696 
        1.69967          36.544         6.13201         6.13201 
        1.70581         36.3068         6.07774         6.07774 
        1.71193         36.1335         6.02434         6.02434 
        1.71806         35.9948         5.97146         5.97146 
        1.72421         35.7618         5.91911         5.91911 
        1.73035         35.6215         5.86745         5.86745 
        1.73649         35.3694         5.81641         5.81641 
        1.74262          35.136         5.76602         5.76602 
        1.74876         35.2046         5.71619         5.71619 
        1.75489         34.8715         5.66705         5.66705 
        1.76101         34.7682         5.61851         5.61851 
        1.76715         34.5542         5.57046         5.57046 
        1.77329         34.2902         5.52291         5.52291 
        1.77943         34.3126          5.4759          5.4759 
        1.78557         34.0738          5.4295          5.4295 
        1.79171         33.8645         5.38363         5.38363 
        1.79785         33.7502         5.33827         5.33827 
        1.80399         33.5245         5.29345         5.29345 
        1.81012         33.3542          5.2492          5.2492 
        1.81625         33.1865         5.20548         5.20548 
        1.82239         33.0123         5.16218         5.16218 
        1.82853         32.9013          5.1194          5.1194 
        1.83466         32.7247         5.07715         5.07715 
        1.84078         32.5581         5.03541         5.03541 
        1.84692         32.4039         4.99407         4.99407 
        1.85306         32.2295         4.95315         4.95315 
         1.8592          32.038         4.91275         4.91275 
        1.86533         31.9469         4.87282         4.87282 
        1.87147         31.7808         4.83328         4.83328 
