# k  (h/Mpc)    Pcb(k)  (Mpc/h)^3    Pcb_linear(k) (Mpc/h)^3    Pcb_NL(k) (Mpc/h)^3   ShotnoiseSubtracted = false
     0.00783031         15791.1         15876.9         15876.9 
       0.013688         18011.5         18481.4         18481.4 
       0.019231         17565.6         17821.6         17821.6 
      0.0249154         15806.7           15732           15732 
      0.0312784         12947.6         13031.7         13031.7 
      0.0375637           10625         10764.7         10764.7 
      0.0433917         9234.14         9245.54         9245.54 
      0.0492413         8164.65          8227.1          8227.1 
      0.0555754          7493.7         7497.24         7497.24 
      0.0619321         6720.59         6921.65         6921.65 
       0.067871         6277.92         6369.12         6369.12 
      0.0738098         5724.97         5743.56         5743.56 
      0.0800417         5060.33         5037.55         5037.55 
      0.0862327         4389.16         4365.69         4365.69 
      0.0921407         3889.91         3822.83         3822.83 
      0.0982031         3524.26         3401.66         3401.66 
       0.104506         3167.66         3104.37         3104.37 
       0.110769         2984.33         2912.24         2912.24 
       0.116806         2877.48         2774.19         2774.19 
       0.122832         2707.78         2637.63         2637.63 
       0.129052         2534.53          2469.5          2469.5 
       0.135211         2404.36         2271.88         2271.88 
       0.141259         2177.09         2063.93         2063.93 
       0.147318         1978.87         1865.74         1865.74 
       0.153489         1835.08          1694.7          1694.7 
       0.159709         1749.82         1563.39         1563.39 
       0.165845         1609.76          1471.5          1471.5 
       0.171974          1578.3         1405.77         1405.77 
       0.178125         1526.52         1351.12         1351.12 
       0.184229         1413.99          1295.1          1295.1 
        0.19034         1380.03         1229.89         1229.89 
       0.196428         1325.32         1155.44         1155.44 
       0.202534         1225.56         1076.39         1076.39 
       0.208729          1192.9         999.271         999.271 
       0.214876         1129.27         932.207         932.207 
       0.220989         1063.61         877.945         877.945 
       0.227147         1035.16         835.328         835.328 
        0.23329         995.327         801.616         801.616 
       0.239377         986.198         772.488         772.488 
       0.245482         936.115         743.527         743.527 
       0.251667          899.69         712.008         712.008 
       0.257832         882.646         677.996         677.996 
       0.263955         835.313         642.972         642.972 
       0.270079         805.089         608.884         608.884 
        0.27624         769.827          577.52          577.52 
       0.282372         755.144         550.386         550.386 
        0.28843         743.952         527.636         527.636 
       0.294538         706.438         507.946         507.946 
       0.300721         689.459         490.051         490.051 
        0.30691             674          472.84          472.84 
       0.313033         643.796         455.653         455.653 
       0.319153         634.201         437.999         437.999 
       0.325316         623.665         420.045         420.045 
        0.33145         607.537         402.553         402.553 
       0.337538         584.854         386.181         386.181 
       0.343633         568.886         371.186         371.186 
       0.349808         555.452         357.517         357.517 
       0.355968         544.398         345.239         345.239 
       0.362074          524.12         334.017         334.017 
       0.368217         521.398         323.303         323.303 
       0.374374         512.457           312.8           312.8 
       0.380519         491.589         302.405         302.405 
       0.386598         486.488         292.237         292.237 
       0.392688         473.695         282.272         282.272 
        0.39888         461.853         272.561         272.561 
       0.405048         451.408         263.452         263.452 
       0.411186         450.479         254.985         254.985 
       0.417313          444.17         247.121         247.121 
       0.423458         431.894         239.723         239.723 
       0.429607         418.686         232.669         232.669 
       0.435692         412.708         225.937         225.937 
       0.441815         405.274         219.347         219.347 
       0.447964          396.46         212.875         212.875 
       0.454126         391.945         206.562         206.562 
       0.460267         385.195         200.495         200.495 
       0.466387         377.069         194.706         194.706 
        0.47254         372.124         189.156         189.156 
       0.478662         364.195          183.91          183.91 
       0.484765         358.896         178.937         178.937 
       0.490885         355.465         174.166         174.166 
       0.497035         347.274         169.543         169.543 
       0.503198         346.418         165.058         165.058 
       0.509342         338.701         160.724         160.724 
       0.515458         332.146         156.542         156.542 
       0.521598         327.677         152.473         152.473 
       0.527764          322.35         148.525         148.525 
       0.533884         319.469         144.753         144.753 
           0.54          315.22         141.135         141.135 
       0.546137         308.376         137.648         137.648 
       0.552299         306.985         134.276         134.276 
       0.558452         301.623         131.025         131.025 
       0.564573         299.489         127.893         127.893 
       0.570708         294.287         124.851         124.851 
       0.576825         288.893         121.912         121.912 
       0.582926          287.42         119.073         119.073 
       0.589034         282.002         116.319         116.319 
       0.595184         280.012         113.633         113.633 
       0.601379         275.428         111.015         111.015 
       0.607522         269.407         108.503         108.503 
       0.613639          268.45         106.082         106.082 
       0.619772         267.264         103.734         103.734 
       0.625918         261.797         101.454         101.454 
       0.632068         259.494         99.2431         99.2431 
       0.638161         257.361         97.1172         97.1172 
         0.6443         253.517         95.0368         95.0368 
       0.650464         250.309         93.0079         93.0079 
       0.656582         247.635         91.0516         91.0516 
       0.662703          246.26         89.1504         89.1504 
       0.668861         241.209          87.293          87.293 
       0.675024         240.337          85.488          85.488 
       0.681124         236.685         83.7534         83.7534 
       0.687237         235.294         82.0648         82.0648 
       0.693381         231.286         80.4157         80.4157 
       0.699536         230.517         78.8097         78.8097 
       0.705665         227.548         77.2549         77.2549 
       0.711789         224.844         75.7435         75.7435 
       0.717957         223.078         74.2621         74.2621 
        0.72409         219.844         72.8283         72.8283 
       0.730186         220.932         71.4409         71.4409 
       0.736317         217.094          70.082          70.082 
       0.742472         214.834         68.7535         68.7535 
       0.748622         212.407         67.4606         67.4606 
        0.75476         211.938         66.2039         66.2039 
       0.760888         209.147         64.9812         64.9812 
       0.767043         206.207         63.7847         63.7847 
       0.773185         204.494         62.6211         62.6211 
       0.779291         202.499         61.4932         61.4932 
       0.785407         201.091         60.3916         60.3916 
       0.791564         199.525         59.3102         59.3102 
       0.797719         196.131         58.2559         58.2559 
       0.803834         196.911         57.2341         57.2341 
       0.809972          194.05         56.2332         56.2332 
       0.816124         191.109         55.2541         55.2541 
       0.822261         189.919          54.301          54.301 
       0.828378         189.167         53.3733         53.3733 
       0.834502         186.749         52.4665         52.4665 
       0.840667         186.686         51.5751         51.5751 
       0.846816         182.969         50.7069         50.7069 
       0.852925         182.847         49.8643         49.8643 
       0.859047         180.926         49.0391         49.0391 
       0.865192         180.206         48.2299         48.2299 
       0.871341          178.06         47.4385         47.4385 
       0.877463          176.54         46.6685         46.6685 
       0.883569         176.016         45.9176         45.9176 
       0.889708         174.324         45.1794         45.1794 
       0.895864         172.171         44.4556         44.4556 
       0.902008         170.763         43.7493         43.7493 
       0.908149         169.266         43.0587         43.0587 
       0.914301         168.021          42.382          42.382 
       0.920448         167.604         41.7205         41.7205 
       0.926574         165.503         41.0754         41.0754 
       0.932687         165.184         40.4454         40.4454 
       0.938823         163.502         39.8264         39.8264 
       0.944975          162.91         39.2189         39.2189 
       0.951105         160.912         38.6263         38.6263 
       0.957225         159.729         38.0469         38.0469 
       0.963368         159.307         37.4775         37.4775 
       0.969511         156.959         36.9197         36.9197 
       0.975621         155.217         36.3763         36.3763 
       0.981748         154.987         35.8425         35.8425 
       0.987916         154.124          35.316          35.316 
        0.99406           152.7         34.8021         34.8021 
        1.00019         151.884         34.2995         34.2995 
        1.00632         150.772         33.8073         33.8073 
        1.01246         149.588         33.3239         33.3239 
        1.01859         148.162         32.8509         32.8509 
        1.02471          147.07         32.3876         32.3876 
        1.03085         146.068         31.9316         31.9316 
        1.03698         145.343         31.4854         31.4854 
        1.04314         144.773         31.0458         31.0458 
        1.04929         143.695         30.6156         30.6156 
        1.05541         142.965         30.1953         30.1953 
        1.06154         141.348         29.7819         29.7819 
        1.06769          140.65         29.3756         29.3756 
        1.07382         139.635         28.9782         28.9782 
        1.07993         138.439         28.5891         28.5891 
        1.08607         138.169         28.2055         28.2055 
        1.09222         136.615         27.8286         27.8286 
        1.09836         135.981         27.4591         27.4591 
        1.10449         135.131         27.0966         27.0966 
        1.11063         133.825         26.7404         26.7404 
        1.11677         133.218         26.3907         26.3907 
         1.1229         132.365         26.0478         26.0478 
        1.12903          131.13         25.7107         25.7107 
        1.13518         130.285         25.3794         25.3794 
        1.14131         129.866          25.054          25.054 
        1.14745         128.512         24.7346         24.7346 
        1.15359         127.729         24.4206         24.4206 
        1.15973          127.23          24.112          24.112 
        1.16584         126.291         23.8101         23.8101 
        1.17197         125.729          23.513          23.513 
        1.17811          124.56           23.22           23.22 
        1.18424         123.777         22.9328         22.9328 
        1.19038         123.161         22.6497         22.6497 
        1.19652         122.067         22.3715         22.3715 
        1.20267         121.313         22.0979         22.0979 
        1.20881         120.409          21.829          21.829 
        1.21495         120.231          21.565          21.565 
        1.22108         119.132         21.3053         21.3053 
         1.2272         118.553         21.0506         21.0506 
        1.23334         117.716         20.7994         20.7994 
        1.23949         117.117         20.5517         20.5517 
        1.24562         116.125         20.3088         20.3088 
        1.25174         115.941         20.0701         20.0701 
        1.25789         114.797         19.8345         19.8345 
        1.26402         114.313         19.6031         19.6031 
        1.27014         113.488          19.376          19.376 
        1.27628         112.976         19.1518         19.1518 
        1.28244         112.165         18.9307         18.9307 
        1.28858         111.501         18.7133         18.7133 
        1.29471         110.669         18.4999         18.4999 
        1.30084         109.942           18.29           18.29 
        1.30697         109.206         18.0831         18.0831 
        1.31312         108.674          17.879          17.879 
        1.31925         107.698         17.6788         17.6788 
        1.32537         107.278         17.4818         17.4818 
        1.33151         106.802         17.2871         17.2871 
        1.33765         105.999         17.0954         17.0954 
        1.34378         105.706         16.9071         16.9071 
        1.34992         104.866         16.7215         16.7215 
        1.35606         104.382         16.5382         16.5382 
         1.3622         103.805          16.358          16.358 
        1.36833         102.912         16.1809         16.1809 
        1.37445         102.616         16.0066         16.0066 
        1.38059         101.832         15.8343         15.8343 
        1.38675         101.226         15.6641         15.6641 
        1.39288          100.54          15.497          15.497 
        1.39901         99.9359         15.3325         15.3325 
        1.40515         99.4865           15.17           15.17 
         1.4113         98.8054         15.0099         15.0099 
        1.41742         98.4545         14.8528         14.8528 
        1.42355         97.9263         14.6976         14.6976 
         1.4297          97.205         14.5441         14.5441 
        1.43585         96.6963         14.3929         14.3929 
        1.44198         95.8894         14.2444         14.2444 
        1.44809         95.4703         14.0983         14.0983 
        1.45423          95.202         13.9537         13.9537 
        1.46036         94.2737         13.8113         13.8113 
        1.46649          93.817         13.6709         13.6709 
        1.47263         93.1439         13.5324         13.5324 
        1.47877         92.7435         13.3958         13.3958 
        1.48491         92.2382         13.2609         13.2609 
        1.49104         91.4547         13.1281         13.1281 
        1.49718         91.0375          12.997          12.997 
        1.50333         90.5268         12.8675         12.8675 
        1.50947         90.2488         12.7401         12.7401 
         1.5156         89.5721         12.6145         12.6145 
        1.52172         88.8701         12.4906         12.4906 
        1.52787         88.6603         12.3682         12.3682 
          1.534          88.111         12.2475         12.2475 
        1.54013         87.4929         12.1286         12.1286 
        1.54627         86.9799          12.011          12.011 
        1.55241         86.7536          11.895          11.895 
        1.55855         85.9804         11.7806         11.7806 
        1.56467         85.5501         11.6681         11.6681 
         1.5708         84.7085         11.5567         11.5567 
        1.57695         84.6312         11.4466         11.4466 
        1.58308         84.0587         11.3382         11.3382 
        1.58922         83.7449         11.2311         11.2311 
        1.59535         83.4663         11.1255         11.1255 
         1.6015          82.644          11.021          11.021 
        1.60764         82.2018          10.918          10.918 
        1.61376         81.9689         10.8165         10.8165 
        1.61989         81.4553         10.7162         10.7162 
        1.62604         80.9402          10.617          10.617 
        1.63218         80.4292         10.5191         10.5191 
        1.63831         79.9586         10.4227         10.4227 
        1.64444         79.4626         10.3274         10.3274 
        1.65059          79.069         10.2331         10.2331 
        1.65673         78.9275           10.14           10.14 
        1.66285         78.4366         10.0484         10.0484 
        1.66898         77.7459         9.95789         9.95789 
        1.67512         77.2111          9.8683          9.8683 
        1.68127         77.0135         9.77974         9.77974 
         1.6874         76.4924         9.69245         9.69245 
        1.69353         76.0601         9.60628         9.60628 
        1.69967         75.5647         9.52095         9.52095 
        1.70581         75.2945          9.4367          9.4367 
        1.71193          74.792         9.35378         9.35378 
        1.71806         74.3691         9.27168         9.27168 
        1.72421         73.9014          9.1904          9.1904 
        1.73035         73.4916         9.11018         9.11018 
        1.73649         73.1161         9.03094         9.03094 
        1.74262         72.8017          8.9527          8.9527 
        1.74876         72.2005         8.87533         8.87533 
        1.75489         72.0177         8.79903         8.79903 
        1.76101         71.7339         8.72366         8.72366 
        1.76715         71.1492         8.64905         8.64905 
        1.77329         70.7103         8.57523         8.57523 
        1.77943         70.4375         8.50223         8.50223 
        1.78557         70.1233         8.43019         8.43019 
        1.79171         69.5793         8.35897         8.35897 
        1.79785         69.1988         8.28855         8.28855 
        1.80399         68.9784         8.21896         8.21896 
        1.81012         68.3697         8.15025         8.15025 
        1.81625         68.0804         8.08236         8.08236 
        1.82239         67.6451         8.01514         8.01514 
        1.82853         67.3556         7.94872         7.94872 
        1.83466          66.878          7.8831          7.8831 
        1.84078         66.6432          7.8183          7.8183 
        1.84692         66.3887         7.75412         7.75412 
        1.85306         66.1126         7.69058         7.69058 
         1.8592         65.6889         7.62785         7.62785 
        1.86533         65.2271         7.56585         7.56585 
        1.87147         64.8794         7.50447         7.50447 
