# k  (h/Mpc)    Pcb(k)  (Mpc/h)^3    Pcb_linear(k) (Mpc/h)^3    Pcb_NL(k) (Mpc/h)^3   ShotnoiseSubtracted = false
     0.00783031         14520.7         14601.2         14601.2 
       0.013688           16580           16997           16997 
       0.019231           16166         16390.4         16390.4 
      0.0249154         14537.5         14468.7         14468.7 
      0.0312784         11915.7         11985.3         11985.3 
      0.0375637         9780.43          9900.4          9900.4 
      0.0433917         8497.13         8503.21         8503.21 
      0.0492413         7514.03         7566.54         7566.54 
      0.0555754         6896.57         6895.29         6895.29 
      0.0619321         6190.68         6365.92         6365.92 
       0.067871         5781.43         5857.76         5857.76 
      0.0738098         5268.22         5282.42         5282.42 
      0.0800417         4655.93          4633.1          4633.1 
      0.0862327          4036.9         4015.18         4015.18 
      0.0921407         3574.08         3515.91         3515.91 
      0.0982031         3235.65         3128.56         3128.56 
       0.104506         2908.65         2855.14         2855.14 
       0.110769          2739.9         2678.43         2678.43 
       0.116806         2642.16         2551.46         2551.46 
       0.122832         2485.59         2425.87         2425.87 
       0.129052         2328.36         2271.23         2271.23 
       0.135211         2204.91         2089.48         2089.48 
       0.141259         1996.24         1898.23         1898.23 
       0.147318         1812.05         1715.95         1715.95 
       0.153489         1678.87         1558.64         1558.64 
       0.159709         1598.33         1437.87         1437.87 
       0.165845          1470.2         1353.36         1353.36 
       0.171974         1442.15         1292.91         1292.91 
       0.178125         1393.55         1242.64         1242.64 
       0.184229          1292.8         1191.13         1191.13 
        0.19034         1260.11         1131.15         1131.15 
       0.196428         1208.79         1062.67         1062.67 
       0.202534         1116.12         989.972         989.972 
       0.208729         1085.51         919.045         919.045 
       0.214876         1027.68         857.365         857.365 
       0.220989         965.725          807.46          807.46 
       0.227147         940.368         768.264         768.264 
        0.23329         904.348         737.259         737.259 
       0.239377         894.773         710.469         710.469 
       0.245482         849.053         683.834         683.834 
       0.251667         815.517         654.845         654.845 
       0.257832         800.395         623.564         623.564 
       0.263955         756.292         591.352         591.352 
       0.270079         727.875             560             560 
        0.27624          695.72         531.154         531.154 
       0.282372         681.382         506.199         506.199 
        0.28843         672.162         485.275         485.275 
       0.294538         637.789         467.166         467.166 
       0.300721         621.496         450.708         450.708 
        0.30691          608.23         434.878         434.878 
       0.313033         580.439         419.071         419.071 
       0.319153         571.248         402.835         402.835 
       0.325316         561.143         386.322         386.322 
        0.33145         546.475         370.234         370.234 
       0.337538         525.794         355.177         355.177 
       0.343633         510.842         341.385         341.385 
       0.349808         498.344         328.814         328.814 
       0.355968         488.387         317.522         317.522 
       0.362074          470.28         307.201         307.201 
       0.368217         467.443         297.347         297.347 
       0.374374         458.888         287.687         287.687 
       0.380519         439.989         278.126         278.126 
       0.386598         434.999         268.775         268.775 
       0.392688         423.504          259.61          259.61 
        0.39888         412.692         250.678         250.678 
       0.405048         403.402         242.301         242.301 
       0.411186         402.277         234.514         234.514 
       0.417313         396.171         227.281         227.281 
       0.423458         385.247         220.477         220.477 
       0.429607         373.491         213.989         213.989 
       0.435692          367.84         207.798         207.798 
       0.441815         361.267         201.737         201.737 
       0.447964         352.781         195.784         195.784 
       0.454126         348.675         189.979         189.979 
       0.460267         342.673         184.399         184.399 
       0.466387         335.337         179.075         179.075 
        0.47254         330.864          173.97          173.97 
       0.478662         323.391         169.145         169.145 
       0.484765         318.677         164.571         164.571 
       0.490885         315.347         160.183         160.183 
       0.497035         308.398         155.931         155.931 
       0.503198         307.336         151.806         151.806 
       0.509342         300.179          147.82          147.82 
       0.515458         294.607         143.974         143.974 
       0.521598          289.85         140.232         140.232 
       0.527764         285.696         136.601         136.601 
       0.533884         283.303         133.132         133.132 
           0.54         279.019         129.804         129.804 
       0.546137         272.716         126.597         126.597 
       0.552299         271.312         123.496         123.496 
       0.558452         266.536         120.505         120.505 
       0.564573         264.647         117.625         117.625 
       0.570708         259.631         114.827         114.827 
       0.576825         255.054         112.125         112.125 
       0.582926          253.41         109.514         109.514 
       0.589034          248.77         106.981         106.981 
       0.595184         246.946          104.51          104.51 
       0.601379         242.936         102.103         102.103 
       0.607522         237.411         99.7919         99.7919 
       0.613639          236.45         97.5658         97.5658 
       0.619772         235.246         95.4056         95.4056 
       0.625918         230.817         93.3091         93.3091 
       0.632068          228.04         91.2755         91.2755 
       0.638161         226.373         89.3202         89.3202 
         0.6443         223.164         87.4068         87.4068 
       0.650464         219.908         85.5408         85.5408 
       0.656582         217.668         83.7416         83.7416 
       0.662703          216.35         81.9931         81.9931 
       0.668861         211.825         80.2848         80.2848 
       0.675024         211.119         78.6246         78.6246 
       0.681124         208.121         77.0293         77.0293 
       0.687237         206.598         75.4763         75.4763 
       0.693381          203.05         73.9596         73.9596 
       0.699536         202.174         72.4826         72.4826 
       0.705665         199.691         71.0526         71.0526 
       0.711789         197.062         69.6625         69.6625 
       0.717957         195.512            68.3            68.3 
        0.72409         192.672         66.9813         66.9813 
       0.730186         193.654         65.7053         65.7053 
       0.736317         190.379         64.4555         64.4555 
       0.742472         188.067         63.2336         63.2336 
       0.748622         185.666         62.0446         62.0446 
        0.75476         185.694         60.8888         60.8888 
       0.760888         183.101         59.7642         59.7642 
       0.767043         180.292         58.6638         58.6638 
       0.773185         178.736         57.5936         57.5936 
       0.779291         176.965         56.5563         56.5563 
       0.785407         175.745         55.5431         55.5431 
       0.791564         174.265         54.5485         54.5485 
       0.797719         171.286         53.5789         53.5789 
       0.803834         171.978         52.6391         52.6391 
       0.809972         169.644         51.7185         51.7185 
       0.816124         166.811          50.818          50.818 
       0.822261         165.864         49.9415         49.9415 
       0.828378          165.21         49.0882         49.0882 
       0.834502         163.207         48.2543         48.2543 
       0.840667          162.99         47.4344         47.4344 
       0.846816         159.832          46.636          46.636 
       0.852925         159.445          45.861          45.861 
       0.859047         157.784          45.102          45.102 
       0.865192         157.147         44.3578         44.3578 
       0.871341         155.336           43.63           43.63 
       0.877463         153.907         42.9218         42.9218 
       0.883569         153.607         42.2312         42.2312 
       0.889708         152.071         41.5522         41.5522 
       0.895864         150.298         40.8866         40.8866 
       0.902008         148.864         40.2369         40.2369 
       0.908149         147.515         39.6018         39.6018 
       0.914301         146.446         38.9794         38.9794 
       0.920448         146.316          38.371          38.371 
       0.926574         144.156         37.7777         37.7777 
       0.932687         143.889         37.1983         37.1983 
       0.938823         142.553          36.629          36.629 
       0.944975         141.833         36.0702         36.0702 
       0.951105         140.193         35.5252         35.5252 
       0.957225          139.27         34.9924         34.9924 
       0.963368         138.558         34.4687         34.4687 
       0.969511         136.801         33.9557         33.9557 
       0.975621         135.209         33.4559         33.4559 
       0.981748         134.882         32.9649         32.9649 
       0.987916         134.133         32.4807         32.4807 
        0.99406          133.03         32.0081         32.0081 
        1.00019         132.278         31.5458         31.5458 
        1.00632         131.166         31.0931         31.0931 
        1.01246         130.173         30.6486         30.6486 
        1.01859         129.101         30.2135         30.2135 
        1.02471         128.148         29.7874         29.7874 
        1.03085         127.214          29.368          29.368 
        1.03698         126.367         28.9576         28.9576 
        1.04314         125.954         28.5533         28.5533 
        1.04929         125.065         28.1576         28.1576 
        1.05541         124.322         27.7711         27.7711 
        1.06154         122.901         27.3909         27.3909 
        1.06769         122.338         27.0172         27.0172 
        1.07382         121.586         26.6517         26.6517 
        1.07993         120.518         26.2938         26.2938 
        1.08607         120.219         25.9411         25.9411 
        1.09222         118.903         25.5944         25.5944 
        1.09836         118.272         25.2545         25.2545 
        1.10449         117.537         24.9212         24.9212 
        1.11063         116.413         24.5936         24.5936 
        1.11677         115.967         24.2719         24.2719 
         1.1229         114.975         23.9566         23.9566 
        1.12903         114.055         23.6466         23.6466 
        1.13518         113.245         23.3418         23.3418 
        1.14131         112.901         23.0426         23.0426 
        1.14745         111.877         22.7488         22.7488 
        1.15359         111.076           22.46           22.46 
        1.15973          110.64         22.1762         22.1762 
        1.16584         109.781         21.8985         21.8985 
        1.17197         109.305         21.6253         21.6253 
        1.17811         108.329         21.3558         21.3558 
        1.18424         107.631         21.0917         21.0917 
        1.19038         107.057         20.8313         20.8313 
        1.19652         106.304         20.5754         20.5754 
        1.20267         105.539         20.3238         20.3238 
        1.20881         104.728         20.0765         20.0765 
        1.21495         104.477         19.8337         19.8337 
        1.22108         103.617         19.5949         19.5949 
         1.2272         103.105         19.3606         19.3606 
        1.23334         102.504         19.1296         19.1296 
        1.23949         101.893         18.9018         18.9018 
        1.24562         101.009         18.6783         18.6783 
        1.25174         100.875         18.4588         18.4588 
        1.25789         99.8389         18.2421         18.2421 
        1.26402         99.4891         18.0293         18.0293 
        1.27014         98.6177         17.8204         17.8204 
        1.27628          98.206         17.6142         17.6142 
        1.28244         97.6958         17.4108         17.4108 
        1.28858         96.9835          17.211          17.211 
        1.29471         96.3452         17.0147         17.0147 
        1.30084         95.5852         16.8216         16.8216 
        1.30697         95.0657         16.6313         16.6313 
        1.31312         94.5281         16.4436         16.4436 
        1.31925         93.7332         16.2594         16.2594 
        1.32537         93.3057         16.0783         16.0783 
        1.33151         93.1066         15.8992         15.8992 
        1.33765         92.2525         15.7229         15.7229 
        1.34378         91.9805         15.5497         15.5497 
        1.34992         91.3579          15.379          15.379 
        1.35606         90.8689         15.2104         15.2104 
         1.3622         90.5155         15.0447         15.0447 
        1.36833         89.6361         14.8819         14.8819 
        1.37445         89.3879         14.7215         14.7215 
        1.38059         88.7593          14.563          14.563 
        1.38675         88.1797         14.4065         14.4065 
        1.39288         87.5862         14.2529         14.2529 
        1.39901         87.1705         14.1016         14.1016 
        1.40515         86.6495         13.9521         13.9521 
         1.4113          86.114         13.8049         13.8049 
        1.41742           85.82         13.6603         13.6603 
        1.42355         85.3669         13.5176         13.5176 
         1.4297         84.7348         13.3764         13.3764 
        1.43585         84.3215         13.2374         13.2374 
        1.44198         83.5687         13.1008         13.1008 
        1.44809          83.137         12.9664         12.9664 
        1.45423         83.0539         12.8334         12.8334 
        1.46036         82.2429         12.7025         12.7025 
        1.46649         81.8051         12.5734         12.5734 
        1.47263         81.1835          12.446          12.446 
        1.47877         80.9105         12.3203         12.3203 
        1.48491          80.447         12.1962         12.1962 
        1.49104         79.7612         12.0741         12.0741 
        1.49718         79.4185         11.9536         11.9536 
        1.50333         79.0472         11.8345         11.8345 
        1.50947         78.7447         11.7172         11.7172 
         1.5156         78.2834         11.6018         11.6018 
        1.52172         77.5538         11.4878         11.4878 
        1.52787         77.3795         11.3752         11.3752 
          1.534         76.8854         11.2642         11.2642 
        1.54013          76.474         11.1549         11.1549 
        1.54627         75.9119         11.0467         11.0467 
        1.55241         75.8181           10.94           10.94 
        1.55855         75.0029         10.8348         10.8348 
        1.56467         74.6239         10.7313         10.7313 
         1.5708         74.0081         10.6289         10.6289 
        1.57695         73.8731         10.5276         10.5276 
        1.58308          73.457         10.4279         10.4279 
        1.58922          73.227         10.3295         10.3295 
        1.59535         72.9513         10.2323         10.2323 
         1.6015         72.2104         10.1362         10.1362 
        1.60764         71.8588         10.0414         10.0414 
        1.61376         71.6573          9.9481          9.9481 
        1.61989         71.1321         9.85589         9.85589 
        1.62604         70.7982         9.76464         9.76464 
        1.63218         70.3378         9.67459         9.67459 
        1.63831           69.98         9.58589         9.58589 
        1.64444         69.5446         9.49826         9.49826 
        1.65059         69.1812         9.41152         9.41152 
        1.65673         68.9989         9.32595         9.32595 
        1.66285         68.5288         9.24168         9.24168 
        1.66898         67.9786         9.15843         9.15843 
        1.67512         67.5676         9.07604         9.07604 
        1.68127         67.3621         8.99458         8.99458 
         1.6874         66.9135          8.9143          8.9143 
        1.69353         66.5713         8.83505         8.83505 
        1.69967         66.1687         8.75657         8.75657 
        1.70581         65.8962         8.67908         8.67908 
        1.71193          65.431         8.60282         8.60282 
        1.71806         65.2022         8.52731         8.52731 
        1.72421         64.7705         8.45255         8.45255 
        1.73035         64.3751         8.37878         8.37878 
        1.73649          64.041          8.3059          8.3059 
        1.74262         63.7598         8.23394         8.23394 
        1.74876         63.3331         8.16278         8.16278 
        1.75489         63.0712         8.09261         8.09261 
        1.76101         62.8223         8.02329         8.02329 
        1.76715         62.3697         7.95467         7.95467 
        1.77329         61.9979         7.88678         7.88678 
        1.77943         61.8207         7.81964         7.81964 
        1.78557         61.4977         7.75338         7.75338 
        1.79171         60.9684         7.68788         7.68788 
        1.79785         60.7076         7.62311         7.62311 
        1.80399         60.5626         7.55911         7.55911 
        1.81012         60.0196         7.49592         7.49592 
        1.81625          59.771         7.43348         7.43348 
        1.82239         59.3166         7.37165         7.37165 
        1.82853         59.1801         7.31056         7.31056 
        1.83466         58.7215         7.25022         7.25022 
        1.84078         58.4654         7.19062         7.19062 
        1.84692         58.3183         7.13159         7.13159 
        1.85306         58.0585         7.07315         7.07315 
         1.8592         57.6665         7.01545         7.01545 
        1.86533         57.3078         6.95843         6.95843 
        1.87147         56.9982         6.90198         6.90198 
