# k  (h/Mpc)    P(k)  (Mpc/h)^3    P_linear(k)  (Mpc/h)^3     P_NL(k)  ShotnoiseSubtracted = false
     0.00783031         1407.84          1418.8          1418.8 
       0.013688         1634.17         1652.72         1652.72 
       0.019231         1586.77         1594.17         1594.17 
      0.0249154         1410.17         1407.48         1407.48 
      0.0312784         1166.77         1166.01         1166.01 
      0.0375637         961.991         963.232         963.232 
      0.0433917         829.775         827.326         827.326 
      0.0492413         736.218         736.212         736.212 
      0.0555754         673.104         670.915         670.915 
      0.0619321         614.891         619.416         619.416 
       0.067871         569.213         569.977         569.977 
      0.0738098         514.223             514             514 
      0.0800417         452.449         450.822         450.822 
      0.0862327         391.585         390.698         390.698 
      0.0921407         342.949         342.117         342.117 
      0.0982031         306.747         304.427         304.427 
       0.104506         277.827         277.823         277.823 
       0.110769         260.874         260.629         260.629 
       0.116806         249.861         248.275         248.275 
       0.122832         236.144         236.054         236.054 
       0.129052         221.892         221.007         221.007 
       0.135211          205.13         203.322         203.322 
       0.141259         185.827         184.712         184.712 
       0.147318         167.455         166.975         166.975 
       0.153489         152.871         151.668         151.668 
       0.159709         141.754         139.916         139.916 
       0.165845         132.047         131.693         131.693 
       0.171974          127.76          125.81          125.81 
       0.178125          122.52         120.919         120.919 
       0.184229         116.681         115.906         115.906 
        0.19034         111.684          110.07          110.07 
       0.196428         105.001         103.407         103.407 
       0.202534         96.9129         96.3326         96.3326 
       0.208729         91.1517         89.4309         89.4309 
       0.214876         85.7067          83.429          83.429 
       0.220989         79.7998         78.5727         78.5727 
       0.227147         76.9187         74.7585         74.7585 
        0.23329         73.8861         71.7416         71.7416 
       0.239377         71.4104         69.1347         69.1347 
       0.245482         68.4631         66.5428         66.5428 
       0.251667         65.2383          63.722          63.722 
       0.257832         62.9275         60.6782         60.6782 
       0.263955         59.2543         57.5437         57.5437 
       0.270079         56.1997         54.4929         54.4929 
        0.27624         53.1966         51.6859         51.6859 
       0.282372         50.8876         49.2576         49.2576 
        0.28843         49.4446         47.2215         47.2215 
       0.294538          47.444         45.4593         45.4593 
       0.300721         45.4491         43.8578         43.8578 
        0.30691         44.2875         42.3175         42.3175 
       0.313033         42.5331         40.7793         40.7793 
       0.319153          41.403         39.1993         39.1993 
       0.325316         39.2724         37.5926         37.5926 
        0.33145         37.6758         36.0271         36.0271 
       0.337538         36.2942         34.5619         34.5619 
       0.343633         35.0726         33.2199         33.2199 
       0.349808         33.7377         31.9965         31.9965 
       0.355968         32.5604         30.8977         30.8977 
       0.362074         31.7967         29.8934         29.8934 
       0.368217         30.7598         28.9345         28.9345 
       0.374374         29.9819         27.9945         27.9945 
       0.380519         28.7362         27.0642         27.0642 
       0.386598         27.7475         26.1542         26.1542 
       0.392688         26.7736         25.2624         25.2624 
        0.39888         26.0974         24.3932         24.3932 
       0.405048         25.3312         23.5781         23.5781 
       0.411186         24.5076         22.8203         22.8203 
       0.417313         23.7591         22.1166         22.1166 
       0.423458         22.9849         21.4544         21.4544 
       0.429607         22.5234         20.8231         20.8231 
       0.435692         22.0129         20.2206         20.2206 
       0.441815          21.192         19.6309         19.6309 
       0.447964         20.4495         19.0516         19.0516 
       0.454126         20.0483         18.4866         18.4866 
       0.460267          19.673         17.9436         17.9436 
       0.466387         19.0558         17.4256         17.4256 
        0.47254         18.6543         16.9289         16.9289 
       0.478662         18.0547         16.4593         16.4593 
       0.484765         17.6039         16.0143         16.0143 
       0.490885         17.0661         15.5873         15.5873 
       0.497035         16.6511         15.1735         15.1735 
       0.503198         16.3061         14.7721         14.7721 
       0.509342         15.7921         14.3843         14.3843 
       0.515458         15.5098           14.01           14.01 
       0.521598         15.1322         13.6458         13.6458 
       0.527764         14.8535         13.2925         13.2925 
       0.533884         14.3902         12.9549         12.9549 
           0.54          14.097         12.6311         12.6311 
       0.546137         13.6556          12.319          12.319 
       0.552299         13.3892         12.0173         12.0173 
       0.558452         13.0617         11.7263         11.7263 
       0.564573         12.8341          11.446          11.446 
       0.570708         12.5239         11.1737         11.1737 
       0.576825         12.2822         10.9108         10.9108 
       0.582926         11.9965         10.6567         10.6567 
       0.589034         11.7464         10.4102         10.4102 
       0.595184         11.5621         10.1698         10.1698 
       0.601379         11.2293         9.93551         9.93551 
       0.607522         11.0016         9.71066         9.71066 
       0.613639         10.7573         9.49404         9.49404 
       0.619772         10.5618         9.28384         9.28384 
       0.625918         10.3252         9.07983         9.07983 
       0.632068         10.1781         8.88194         8.88194 
       0.638161          9.9429         8.69168         8.69168 
         0.6443         9.74384         8.50549         8.50549 
       0.650464         9.50408         8.32391         8.32391 
       0.656582         9.39682         8.14882         8.14882 
       0.662703         9.23367         7.97868         7.97868 
       0.668861          8.9756         7.81244         7.81244 
       0.675024         8.81364          7.6509          7.6509 
       0.681124         8.76891         7.49566         7.49566 
       0.687237         8.55365         7.34453         7.34453 
       0.693381         8.32949         7.19695         7.19695 
       0.699536         8.25187         7.05322         7.05322 
       0.705665         8.07887         6.91407         6.91407 
       0.711789         7.90203          6.7788          6.7788 
       0.717957          7.7288         6.64622         6.64622 
        0.72409         7.64022          6.5179          6.5179 
       0.730186         7.56637         6.39373         6.39373 
       0.736317         7.37642         6.27212         6.27212 
       0.742472         7.27863         6.15322         6.15322 
       0.748622         7.14692         6.03751         6.03751 
        0.75476         6.95444         5.92504         5.92504 
       0.760888         6.89333         5.81561         5.81561 
       0.767043         6.73183         5.70853         5.70853 
       0.773185         6.63591         5.60439         5.60439 
       0.779291         6.58618         5.50344         5.50344 
       0.785407         6.44444         5.40486         5.40486 
       0.791564         6.34495         5.30808         5.30808 
       0.797719         6.21598         5.21372         5.21372 
       0.803834         6.15217         5.12227         5.12227 
       0.809972         6.02684         5.03269         5.03269 
       0.816124         5.93926         4.94506         4.94506 
       0.822261          5.8544         4.85976         4.85976 
       0.828378         5.76254         4.77674         4.77674 
       0.834502         5.67654         4.69559         4.69559 
       0.840667         5.60853         4.61581         4.61581 
       0.846816         5.48446         4.53811         4.53811 
       0.852925         5.42234          4.4627          4.4627 
       0.859047         5.33618         4.38884         4.38884 
       0.865192         5.25175         4.31642         4.31642 
       0.871341         5.17328          4.2456          4.2456 
       0.877463         5.09213         4.17669         4.17669 
       0.883569         5.03495         4.10948         4.10948 
       0.889708         4.95105         4.04342         4.04342 
       0.895864          4.8803         3.97864         3.97864 
       0.902008             4.8         3.91542         3.91542 
       0.908149         4.73048         3.85362         3.85362 
       0.914301         4.67656         3.79306         3.79306 
       0.920448         4.61409         3.73385         3.73385 
       0.926574         4.56956         3.67612         3.67612 
       0.932687         4.48457         3.61974         3.61974 
       0.938823         4.40534         3.56434         3.56434 
       0.944975         4.37342         3.50997         3.50997 
       0.951105         4.28569         3.45693         3.45693 
       0.957225         4.25484         3.40508         3.40508 
       0.963368         4.19126         3.35412         3.35412 
       0.969511         4.13542          3.3042          3.3042 
       0.975621         4.07306         3.25557         3.25557 
       0.981748         4.00237         3.20779         3.20779 
       0.987916         3.96187         3.16068         3.16068 
        0.99406         3.92237         3.11468         3.11468 
        1.00019         3.87477          3.0697          3.0697 
        1.00632         3.83193         3.02564         3.02564 
        1.01246         3.77273         2.98239         2.98239 
        1.01859         3.72219         2.94005         2.94005 
        1.02471         3.66102         2.89859         2.89859 
        1.03085         3.63363         2.85778         2.85778 
        1.03698         3.58684         2.81784         2.81784 
        1.04314         3.54054          2.7785          2.7785 
        1.04929         3.48792            2.74            2.74 
        1.05541         3.44499         2.70239         2.70239 
        1.06154         3.41153         2.66539         2.66539 
        1.06769         3.38492         2.62902         2.62902 
        1.07382         3.32163         2.59346         2.59346 
        1.07993         3.27985         2.55863         2.55863 
        1.08607         3.25543         2.52431         2.52431 
        1.09222         3.20427         2.49058         2.49058 
        1.09836         3.19202          2.4575          2.4575 
        1.10449         3.11935         2.42507         2.42507 
        1.11063         3.09925         2.39318         2.39318 
        1.11677         3.06514         2.36188         2.36188 
         1.1229         3.02813          2.3312          2.3312 
        1.12903         2.99998         2.30103         2.30103 
        1.13518         2.95245         2.27138         2.27138 
        1.14131         2.91792         2.24226         2.24226 
        1.14745         2.88092         2.21367         2.21367 
        1.15359         2.84926         2.18557         2.18557 
        1.15973         2.81577         2.15795         2.15795 
        1.16584         2.79209         2.13093         2.13093 
        1.17197         2.75346         2.10434         2.10434 
        1.17811         2.72183         2.07812         2.07812 
        1.18424         2.69226         2.05242         2.05242 
        1.19038         2.66751         2.02708         2.02708 
        1.19652          2.6415         2.00218         2.00218 
        1.20267          2.6155          1.9777          1.9777 
        1.20881         2.58057         1.95363         1.95363 
        1.21495         2.55544            1.93            1.93 
        1.22108         2.52724         1.90676         1.90676 
         1.2272         2.49228         1.88396         1.88396 
        1.23334         2.48131         1.86148         1.86148 
        1.23949         2.44487         1.83932         1.83932 
        1.24562         2.42338         1.81757         1.81757 
        1.25174         2.40591         1.79621         1.79621 
        1.25789         2.36443         1.77513         1.77513 
        1.26402         2.34532         1.75442         1.75442 
        1.27014         2.32162         1.73409         1.73409 
        1.27628         2.29529         1.71402         1.71402 
        1.28244         2.27513         1.69424         1.69424 
        1.28858         2.25594         1.67479         1.67479 
        1.29471         2.22315         1.65569         1.65569 
        1.30084         2.20106          1.6369          1.6369 
        1.30697          2.1866         1.61838         1.61838 
        1.31312         2.16211         1.60012         1.60012 
        1.31925         2.13945          1.5822          1.5822 
        1.32537         2.12113         1.56456         1.56456 
        1.33151         2.09627         1.54714         1.54714 
        1.33765         2.07698         1.52999         1.52999 
        1.34378         2.06317         1.51313         1.51313 
        1.34992         2.04087         1.49652         1.49652 
        1.35606         2.02183         1.48012         1.48012 
         1.3622         2.00245         1.46399         1.46399 
        1.36833         1.97765         1.44815         1.44815 
        1.37445         1.95644         1.43254         1.43254 
        1.38059         1.93841         1.41712         1.41712 
        1.38675         1.92121         1.40189         1.40189 
        1.39288         1.91039         1.38694         1.38694 
        1.39901         1.88334         1.37221         1.37221 
        1.40515         1.86848         1.35767         1.35767 
         1.4113         1.85428         1.34334         1.34334 
        1.41742         1.83257         1.32928         1.32928 
        1.42355         1.81551         1.31539         1.31539 
         1.4297         1.80168         1.30165         1.30165 
        1.43585         1.78609         1.28812         1.28812 
        1.44198         1.76687         1.27483         1.27483 
        1.44809         1.75475         1.26175         1.26175 
        1.45423         1.73657         1.24881         1.24881 
        1.46036         1.72342         1.23607         1.23607 
        1.46649         1.70188         1.22351         1.22351 
        1.47263         1.69412         1.21111         1.21111 
        1.47877         1.68053         1.19888         1.19888 
        1.48491         1.65848         1.18681         1.18681 
        1.49104         1.64668         1.17493         1.17493 
        1.49718         1.63307          1.1632          1.1632 
        1.50333         1.61675         1.15161         1.15161 
        1.50947         1.60166          1.1402          1.1402 
         1.5156         1.58956         1.12896         1.12896 
        1.52172         1.57593         1.11788         1.11788 
        1.52787         1.56347         1.10692         1.10692 
          1.534         1.55018         1.09612         1.09612 
        1.54013         1.53637         1.08547         1.08547 
        1.54627         1.52192         1.07495         1.07495 
        1.55241         1.50718         1.06456         1.06456 
        1.55855         1.49713         1.05433         1.05433 
        1.56467         1.48614         1.04426         1.04426 
         1.5708         1.47161         1.03429         1.03429 
        1.57695         1.45639         1.02444         1.02444 
        1.58308         1.44265         1.01474         1.01474 
        1.58922         1.43696         1.00515         1.00515 
        1.59535         1.42055        0.995697        0.995697 
         1.6015         1.40856        0.986349        0.986349 
        1.60764         1.40099        0.977125        0.977125 
        1.61376          1.3846        0.968044        0.968044 
        1.61989         1.37307        0.959071        0.959071 
        1.62604         1.36129        0.950191        0.950191 
        1.63218         1.35453        0.941429        0.941429 
        1.63831         1.34457        0.932798        0.932798 
        1.64444         1.33128        0.924271        0.924271 
        1.65059         1.32371         0.91583         0.91583 
        1.65673         1.30832        0.907503        0.907503 
        1.66285         1.29833        0.899303        0.899303 
        1.66898         1.28856        0.891202        0.891202 
        1.67512         1.27673        0.883184        0.883184 
        1.68127         1.26748        0.875258        0.875258 
         1.6874          1.2612        0.867446        0.867446 
        1.69353         1.24696        0.859734        0.859734 
        1.69967         1.23729        0.852097        0.852097 
        1.70581         1.23175        0.844557        0.844557 
        1.71193         1.21472        0.837136        0.837136 
        1.71806            1.21        0.829788        0.829788 
        1.72421         1.20222        0.822513        0.822513 
        1.73035         1.18893        0.815334        0.815334 
        1.73649         1.18291        0.808242        0.808242 
        1.74262         1.17316         0.80124         0.80124 
        1.74876         1.16417        0.794316        0.794316 
        1.75489         1.15454        0.787488        0.787488 
        1.76101         1.14405        0.780742        0.780742 
        1.76715         1.13921        0.774065        0.774065 
        1.77329         1.12825        0.767458        0.767458 
        1.77943         1.12062        0.760925        0.760925 
        1.78557           1.113        0.754478        0.754478 
        1.79171         1.10518        0.748103        0.748103 
        1.79785         1.09754        0.741801        0.741801 
        1.80399         1.08805        0.735573        0.735573 
        1.81012         1.07992        0.729424        0.729424 
        1.81625         1.06942        0.723348        0.723348 
        1.82239         1.06406        0.717332        0.717332 
        1.82853         1.05628        0.711387        0.711387 
        1.83466         1.04618        0.705515        0.705515 
        1.84078         1.03939        0.699715        0.699715 
        1.84692         1.03193        0.693971        0.693971 
        1.85306         1.02588        0.688285        0.688285 
         1.8592         1.01665         0.68267         0.68267 
        1.86533         1.01076        0.677122        0.677122 
        1.87147         1.00375        0.671628        0.671628 
        1.87761        0.996827        0.666193        0.666193 
