# k  (h/Mpc)    P(k)  (Mpc/h)^3    P_linear(k)  (Mpc/h)^3     P_NL(k)  ShotnoiseSubtracted = false
     0.00783031         24260.5           24378           24378 
       0.013688         27496.2         28372.5         28372.5 
       0.019231         26847.7         27357.5         27357.5 
      0.0249154         24254.3         24148.9         24148.9 
      0.0312784         19787.2         20003.3         20003.3 
      0.0375637           16218         16523.3         16523.3 
      0.0433917         14121.7         14191.2         14191.2 
      0.0492413         12478.4         12627.9         12627.9 
      0.0555754         11446.6         11507.5         11507.5 
      0.0619321           10216           10624           10624 
       0.067871         9551.24         9775.89         9775.89 
      0.0738098         8754.49          8815.7          8815.7 
      0.0800417         7741.73         7732.05         7732.05 
      0.0862327         6734.42         6700.79         6700.79 
      0.0921407         6007.65         5867.56         5867.56 
      0.0982031         5467.91         5221.12         5221.12 
       0.104506         4913.46         4764.82         4764.82 
       0.110769         4633.64          4469.9          4469.9 
       0.116806         4458.39         4258.02         4258.02 
       0.122832         4209.15         4048.41         4048.41 
       0.129052         3917.87         3790.35         3790.35 
       0.135211         3754.28         3487.03         3487.03 
       0.141259         3404.58         3167.85         3167.85 
       0.147318         3124.97         2863.65         2863.65 
       0.153489         2912.83         2601.14         2601.14 
       0.159709         2801.17         2399.58         2399.58 
       0.165845         2584.82         2258.55         2258.55 
       0.171974         2520.65         2157.66         2157.66 
       0.178125         2451.78         2073.78         2073.78 
       0.184229         2255.61          1987.8          1987.8 
        0.19034         2218.69         1887.71         1887.71 
       0.196428         2142.08         1773.43         1773.43 
       0.202534         2005.23         1652.11         1652.11 
       0.208729         1952.96         1533.74         1533.74 
       0.214876         1850.25         1430.81         1430.81 
       0.220989         1768.88         1347.52         1347.52 
       0.227147         1715.56         1282.11         1282.11 
        0.23329         1648.62         1230.37         1230.37 
       0.239377         1642.25         1185.66         1185.66 
       0.245482         1566.01         1141.21         1141.21 
       0.251667         1508.88         1092.83         1092.83 
       0.257832         1476.75         1040.63         1040.63 
       0.263955          1410.2         986.871         986.871 
       0.270079         1371.59          934.55          934.55 
        0.27624         1315.09         886.409         886.409 
       0.282372         1300.88         844.764         844.764 
        0.28843         1267.91         809.845         809.845 
       0.294538         1215.27         779.623         779.623 
       0.300721         1194.37         752.158         752.158 
        0.30691          1158.4         725.741         725.741 
       0.313033         1117.78         699.362         699.362 
       0.319153         1107.07         672.265         672.265 
       0.325316         1090.09          644.71          644.71 
        0.33145         1062.36         617.861         617.861 
       0.337538          1028.9         592.732         592.732 
       0.343633         1006.03         569.718         569.718 
       0.349808         988.462         548.737         548.737 
       0.355968         966.524         529.892         529.892 
       0.362074         938.466         512.669         512.669 
       0.368217           932.8         496.222         496.222 
       0.374374           917.8         480.103         480.103 
       0.380519         886.889         464.148         464.148 
       0.386598         881.258         448.541         448.541 
       0.392688         857.544         433.247         433.247 
        0.39888         844.174          418.34          418.34 
       0.405048          823.64         404.361         404.361 
       0.411186         822.464         391.364         391.364 
       0.417313         811.643         379.296         379.296 
       0.423458         791.337         367.939         367.939 
       0.429607         771.356         357.114         357.114 
       0.435692         762.265         346.781         346.781 
       0.441815         747.897         336.667         336.667 
       0.447964         739.389         326.732         326.732 
       0.454126         729.114         317.043         317.043 
       0.460267         721.069         307.731         307.731 
       0.466387         704.828         298.846         298.846 
        0.47254         698.597         290.327         290.327 
       0.478662           685.2         282.274         282.274 
       0.484765          676.34         274.643         274.643 
       0.490885         671.731         267.319         267.319 
       0.497035          656.28         260.224         260.224 
       0.503198         654.968          253.34          253.34 
       0.509342         642.405         246.688         246.688 
       0.515458         630.925         240.269         240.269 
       0.521598         630.054         234.024         234.024 
       0.527764         615.254         227.965         227.965 
       0.533884         606.197         222.175         222.175 
           0.54         603.967         216.622         216.622 
       0.546137         594.668          211.27          211.27 
       0.552299         589.321         206.094         206.094 
       0.558452         581.784         201.104         201.104 
       0.564573         580.744         196.296         196.296 
       0.570708         571.516         191.628         191.628 
       0.576825         561.432         187.118         187.118 
       0.582926         559.228          182.76          182.76 
       0.589034         550.909         178.533         178.533 
       0.595184         544.893         174.411         174.411 
       0.601379          536.55         170.392         170.392 
       0.607522         529.068         166.536         166.536 
       0.613639         527.538         162.821         162.821 
       0.619772         522.311         159.216         159.216 
       0.625918          515.47         155.718         155.718 
       0.632068         513.348         152.324         152.324 
       0.638161         505.395         149.061         149.061 
         0.6443         499.939         145.868         145.868 
       0.650464         495.751         142.754         142.754 
       0.656582         490.994         139.751         139.751 
       0.662703         486.768         136.833         136.833 
       0.668861         480.315         133.982         133.982 
       0.675024         478.365         131.212         131.212 
       0.681124         467.624         128.549         128.549 
       0.687237         467.545         125.957         125.957 
       0.693381         460.974         123.426         123.426 
       0.699536         461.319         120.961         120.961 
       0.705665         453.154         118.575         118.575 
       0.711789         452.101         116.255         116.255 
       0.717957          446.69         113.982         113.982 
        0.72409         442.312         111.781         111.781 
       0.730186         441.834         109.651         109.651 
       0.736317         435.307         107.566         107.566 
       0.742472          430.93         105.527         105.527 
       0.748622         430.761         103.542         103.542 
        0.75476         422.194         101.613         101.613 
       0.760888         422.186         99.7367         99.7367 
       0.767043         418.628         97.9003         97.9003 
       0.773185         414.601         96.1142         96.1142 
       0.779291         410.864         94.3831         94.3831 
       0.785407         407.804         92.6923         92.6923 
       0.791564         405.963         91.0325         91.0325 
       0.797719         399.646         89.4144         89.4144 
       0.803834         398.882          87.846          87.846 
       0.809972         393.272         86.3097         86.3097 
       0.816124         390.908         84.8069         84.8069 
       0.822261         387.992         83.3441         83.3441 
       0.828378         386.197         81.9202         81.9202 
       0.834502         381.164         80.5285         80.5285 
       0.840667         378.166         79.1602         79.1602 
       0.846816         375.787         77.8277         77.8277 
       0.852925         375.945         76.5344         76.5344 
       0.859047         369.578         75.2678         75.2678 
       0.865192         368.406         74.0259         74.0259 
       0.871341         364.789         72.8112         72.8112 
       0.877463         363.023         71.6294         71.6294 
       0.883569         361.053         70.4768         70.4768 
       0.889708         356.249         69.3439         69.3439 
       0.895864         352.667         68.2329         68.2329 
       0.902008         351.713         67.1488         67.1488 
       0.908149          347.93         66.0889         66.0889 
       0.914301         346.732         65.0502         65.0502 
       0.920448         342.158         64.0349         64.0349 
       0.926574         340.544         63.0448         63.0448 
       0.932687          338.61         62.0778         62.0778 
       0.938823         335.845         61.1277         61.1277 
       0.944975         335.048         60.1953         60.1953 
       0.951105         332.149         59.2857         59.2857 
       0.957225         328.304         58.3965         58.3965 
       0.963368         327.806         57.5225         57.5225 
       0.969511         324.296         56.6664         56.6664 
       0.975621         321.304         55.8324         55.8324 
       0.981748         320.238          55.013          55.013 
       0.987916         317.954          54.205          54.205 
        0.99406         314.523         53.4162         53.4162 
        1.00019         311.453         52.6447         52.6447 
        1.00632         310.646         51.8892         51.8892 
        1.01246         308.104         51.1474         51.1474 
        1.01859          306.25         50.4213         50.4213 
        1.02471         304.452         49.7102         49.7102 
        1.03085         302.591         49.0103         49.0103 
        1.03698         299.678         48.3254         48.3254 
        1.04314         298.117         47.6507         47.6507 
        1.04929         296.687         46.9905         46.9905 
        1.05541         294.802         46.3454         46.3454 
        1.06154          291.14         45.7108         45.7108 
        1.06769         289.685         45.0872         45.0872 
        1.07382         287.299         44.4773         44.4773 
        1.07993         287.135         43.8801         43.8801 
        1.08607         284.597         43.2914         43.2914 
        1.09222          282.35         42.7129         42.7129 
        1.09836         280.566         42.1457         42.1457 
        1.10449         278.688         41.5894         41.5894 
        1.11063         277.414         41.0426         41.0426 
        1.11677         274.715         40.5058         40.5058 
         1.1229         273.338         39.9796         39.9796 
        1.12903         270.971         39.4622         39.4622 
        1.13518         269.432         38.9536         38.9536 
        1.14131         267.341         38.4543         38.4543 
        1.14745         265.611          37.964          37.964 
        1.15359         263.346         37.4821         37.4821 
        1.15973         262.333         37.0084         37.0084 
        1.16584         261.139         36.5451         36.5451 
        1.17197         258.976          36.089          36.089 
        1.17811         256.108         35.6393         35.6393 
        1.18424         255.088         35.1986         35.1986 
        1.19038         254.156          34.764          34.764 
        1.19652         251.349          34.337          34.337 
        1.20267         249.917         33.9171         33.9171 
        1.20881         248.944         33.5043         33.5043 
        1.21495         246.504         33.0991         33.0991 
        1.22108         245.493         32.7006         32.7006 
         1.2272         243.146         32.3096         32.3096 
        1.23334          241.24         31.9241         31.9241 
        1.23949         240.414         31.5439         31.5439 
        1.24562         238.287          31.171          31.171 
        1.25174         237.462         30.8046         30.8046 
        1.25789         235.445          30.443          30.443 
        1.26402         234.132         30.0879         30.0879 
        1.27014         232.714         29.7393         29.7393 
        1.27628          231.16         29.3951         29.3951 
        1.28244         228.838         29.0558         29.0558 
        1.28858          228.14         28.7222         28.7222 
        1.29471         226.618         28.3947         28.3947 
        1.30084         225.852         28.0725         28.0725 
        1.30697         223.639         27.7549         27.7549 
        1.31312         222.801         27.4417         27.4417 
        1.31925         221.107         27.1343         27.1343 
        1.32537         220.433          26.832          26.832 
        1.33151         217.886         26.5331         26.5331 
        1.33765         217.404          26.239          26.239 
        1.34378          215.92         25.9499         25.9499 
        1.34992         214.055          25.665          25.665 
        1.35606         212.366         25.3837         25.3837 
         1.3622         210.769         25.1072         25.1072 
        1.36833         210.549         24.8354         24.8354 
        1.37445          209.41         24.5678         24.5678 
        1.38059         206.984         24.3033         24.3033 
        1.38675         205.298          24.042          24.042 
        1.39288         204.983         23.7857         23.7857 
        1.39901         203.445         23.5332         23.5332 
        1.40515         202.074         23.2837         23.2837 
         1.4113         200.835          23.038          23.038 
        1.41742         199.552         22.7968         22.7968 
        1.42355          197.84         22.5586         22.5586 
         1.4297         196.941          22.323          22.323 
        1.43585          195.65          22.091          22.091 
        1.44198         194.408         21.8631         21.8631 
        1.44809         193.632         21.6388         21.6388 
        1.45423         192.069         21.4168         21.4168 
        1.46036         191.636         21.1984         21.1984 
        1.46649         189.972         20.9829         20.9829 
        1.47263         188.744         20.7702         20.7702 
        1.47877         187.302         20.5606         20.5606 
        1.48491         186.437         20.3535         20.3535 
        1.49104         184.705         20.1497         20.1497 
        1.49718         183.402         19.9485         19.9485 
        1.50333         182.611         19.7498         19.7498 
        1.50947         181.089         19.5541         19.5541 
         1.5156         180.344         19.3614         19.3614 
        1.52172         179.089         19.1713         19.1713 
        1.52787         177.944         18.9834         18.9834 
          1.534          177.21         18.7982         18.7982 
        1.54013         176.039         18.6156         18.6156 
        1.54627         174.667         18.4351         18.4351 
        1.55241         174.058          18.257          18.257 
        1.55855         172.639         18.0815         18.0815 
        1.56467         171.546         17.9088         17.9088 
         1.5708         170.748         17.7379         17.7379 
        1.57695         169.807         17.5689         17.5689 
        1.58308         168.681         17.4025         17.4025 
        1.58922          167.16         17.2382         17.2382 
        1.59535         166.385          17.076          17.076 
         1.6015         165.426         16.9157         16.9157 
        1.60764         164.324         16.7575         16.7575 
        1.61376         163.272         16.6017         16.6017 
        1.61989         162.312         16.4479         16.4479 
        1.62604         161.647         16.2956         16.2956 
        1.63218         160.311         16.1453         16.1453 
        1.63831         159.385         15.9973         15.9973 
        1.64444         158.515          15.851          15.851 
        1.65059         157.318         15.7063         15.7063 
        1.65673         156.274         15.5635         15.5635 
        1.66285         155.592         15.4228         15.4228 
        1.66898         154.392         15.2839         15.2839 
        1.67512         153.525         15.1464         15.1464 
        1.68127         152.476         15.0105         15.0105 
         1.6874         151.612         14.8765         14.8765 
        1.69353         151.028         14.7442         14.7442 
        1.69967         149.796         14.6133         14.6133 
        1.70581         148.795         14.4839         14.4839 
        1.71193         148.062         14.3567         14.3567 
        1.71806          147.12         14.2307         14.2307 
        1.72421         146.334         14.1059         14.1059 
        1.73035         145.467         13.9828         13.9828 
        1.73649         144.284         13.8612         13.8612 
        1.74262         143.681         13.7411         13.7411 
        1.74876         142.461         13.6223         13.6223 
        1.75489         141.817         13.5052         13.5052 
        1.76101         140.996         13.3895         13.3895 
        1.76715         140.293          13.275          13.275 
        1.77329         139.519         13.1617         13.1617 
        1.77943         138.453         13.0497         13.0497 
        1.78557         137.435         12.9391         12.9391 
        1.79171         136.518         12.8298         12.8298 
        1.79785         135.602         12.7217         12.7217 
        1.80399         135.015         12.6149         12.6149 
        1.81012         134.495         12.5094         12.5094 
        1.81625         133.292         12.4052         12.4052 
        1.82239         132.934         12.3021         12.3021 
        1.82853         131.776         12.2001         12.2001 
        1.83466         131.023         12.0994         12.0994 
        1.84078         130.419         11.9999         11.9999 
        1.84692         129.639         11.9014         11.9014 
        1.85306         128.677         11.8039         11.8039 
         1.8592          127.92         11.7076         11.7076 
        1.86533         126.986         11.6125         11.6125 
        1.87147         126.453         11.5183         11.5183 
        1.87761         125.847         11.4251         11.4251 
