# k  (h/Mpc)    Pcb(k)  (Mpc/h)^3    Pcb_linear(k) (Mpc/h)^3    Pcb_NL(k) (Mpc/h)^3   ShotnoiseSubtracted = false
     0.00783031          7550.5         7598.43         7598.43 
       0.013688         8679.89         8847.12         8847.12 
       0.019231         8450.28         8532.15         8532.15 
      0.0249154         7564.35         7532.22         7532.22 
      0.0312784         6225.41         6239.62         6239.62 
      0.0375637         5118.25          5154.3          5154.3 
      0.0433917         4435.21         4426.96         4426.96 
      0.0492413         3926.44         3939.35         3939.35 
      0.0555754         3601.28         3589.91         3589.91 
      0.0619321         3253.75         3314.32         3314.32 
       0.067871         3030.98         3049.76         3049.76 
      0.0738098         2750.14         2750.23         2750.23 
      0.0800417         2427.22         2412.18         2412.18 
      0.0862327          2100.9         2090.47         2090.47 
      0.0921407         1849.27         1830.53         1830.53 
      0.0982031         1665.88         1628.86         1628.86 
       0.104506          1500.2         1486.51         1486.51 
       0.110769         1411.61         1394.51         1394.51 
       0.116806         1360.13         1328.41         1328.41 
       0.122832         1279.39         1263.02         1263.02 
       0.129052         1202.67         1182.51         1182.51 
       0.135211         1126.21         1087.88         1087.88 
       0.141259         1019.24         988.306         988.306 
       0.147318         919.575         893.402         893.402 
       0.153489         846.736         811.503         811.503 
       0.159709         797.238         748.622         748.622 
       0.165845         734.836         704.623         704.623 
       0.171974         720.221         673.148         673.148 
       0.178125         692.415         646.979         646.979 
       0.184229         649.714         620.158         620.158 
        0.19034         628.221         588.929         588.929 
       0.196428         597.466         553.278         553.278 
       0.202534         548.817         515.427         515.427 
       0.208729         528.306         478.499         478.499 
       0.214876         500.112         446.386         446.386 
       0.220989         464.881         420.403         420.403 
       0.227147         452.989         399.995         399.995 
        0.23329         435.952         383.853         383.853 
       0.239377          426.72         369.905         369.905 
       0.245482         405.512         356.037         356.037 
       0.251667         387.638         340.944         340.944 
       0.257832         380.112         324.658         324.658 
       0.263955         356.493         307.887         307.887 
       0.270079          340.41         291.563         291.563 
        0.27624         324.375         276.545         276.545 
       0.282372          314.32         263.552         263.552 
        0.28843         310.685         252.658         252.658 
       0.294538         295.182          243.23          243.23 
       0.300721         284.432          234.66          234.66 
        0.30691          279.33         226.419         226.419 
       0.313033          266.32         218.189         218.189 
       0.319153         260.968         209.736         209.736 
       0.325316         252.864         201.138         201.138 
        0.33145         244.873         192.762         192.762 
       0.337538         235.576         184.923         184.923 
       0.343633         227.643         177.742         177.742 
       0.349808         220.778         171.197         171.197 
       0.355968         215.489         165.318         165.318 
       0.362074         209.424         159.944         159.944 
       0.368217          205.75         154.814         154.814 
       0.374374         200.398         149.784         149.784 
       0.380519         191.919         144.806         144.806 
       0.386598         188.141         139.938         139.938 
       0.392688         182.374         135.166         135.166 
        0.39888         178.429         130.516         130.516 
       0.405048         174.044         126.154         126.154 
       0.411186         171.575           122.1           122.1 
       0.417313         167.406         118.334         118.334 
       0.423458         163.011         114.791         114.791 
       0.429607         158.818         111.413         111.413 
       0.435692         156.015          108.19          108.19 
       0.441815         152.082         105.034         105.034 
       0.447964         147.187         101.935         101.935 
       0.454126         144.566         98.9123         98.9123 
       0.460267         142.925         96.0071         96.0071 
       0.466387         139.336         93.2351         93.2351 
        0.47254         137.534         90.5773         90.5773 
       0.478662         132.869         88.0652         88.0652 
       0.484765         130.862          85.684          85.684 
       0.490885         128.244         83.3993         83.3993 
       0.497035         126.759         81.1856         81.1856 
       0.503198         124.389         79.0378         79.0378 
       0.509342         121.049         76.9626         76.9626 
       0.515458         119.126         74.9599         74.9599 
       0.521598         116.107         73.0115         73.0115 
       0.527764         114.957         71.1213         71.1213 
       0.533884         113.972         69.3151         69.3151 
           0.54         110.806         67.5825         67.5825 
       0.546137         108.158         65.9127         65.9127 
       0.552299         106.494          64.298          64.298 
       0.558452         104.547         62.7412         62.7412 
       0.564573         103.902         61.2413         61.2413 
       0.570708         100.967         59.7847         59.7847 
       0.576825         99.7447         58.3777         58.3777 
       0.582926         98.5807         57.0182         57.0182 
       0.589034         96.7456         55.6994         55.6994 
       0.595184         95.4896         54.4134         54.4134 
       0.601379         93.3941         53.1597         53.1597 
       0.607522         91.4915         51.9566         51.9566 
       0.613639         90.6972         50.7976         50.7976 
       0.619772           89.12         49.6729         49.6729 
       0.625918         88.3184         48.5814         48.5814 
       0.632068         86.3748         47.5226         47.5226 
       0.638161         85.1303         46.5045         46.5045 
         0.6443         84.5793         45.5084         45.5084 
       0.650464         82.6142         44.5368         44.5368 
       0.656582          82.243            43.6            43.6 
       0.662703         81.0252         42.6897         42.6897 
       0.668861         79.2461         41.8002         41.8002 
       0.675024         79.0841         40.9359         40.9359 
       0.681124          77.725         40.1053         40.1053 
       0.687237         76.3704         39.2967         39.2967 
       0.693381         75.6186         38.5071         38.5071 
       0.699536          74.678          37.738          37.738 
       0.705665         73.6166         36.9935         36.9935 
       0.711789         72.4803         36.2698         36.2698 
       0.717957         71.5245         35.5604         35.5604 
        0.72409          70.791         34.8738         34.8738 
       0.730186         70.3933         34.2095         34.2095 
       0.736317         69.1937         33.5588         33.5588 
       0.742472         68.0749         32.9226         32.9226 
       0.748622         67.0239         32.3035         32.3035 
        0.75476         66.7511         31.7017         31.7017 
       0.760888         66.2539         31.1162         31.1162 
       0.767043         64.8443         30.5433         30.5433 
       0.773185         63.9454         29.9861         29.9861 
       0.779291         63.2536          29.446          29.446 
       0.785407         62.5216         28.9185         28.9185 
       0.791564         62.2674         28.4007         28.4007 
       0.797719         61.2074         27.8959         27.8959 
       0.803834         60.8178         27.4065         27.4065 
       0.809972         60.2206         26.9273         26.9273 
       0.816124         59.3667         26.4584         26.4584 
       0.822261         58.5492          26.002          26.002 
       0.828378          58.395         25.5578         25.5578 
       0.834502         57.5615         25.1236         25.1236 
       0.840667         57.0767         24.6967         24.6967 
       0.846816         56.4447          24.281          24.281 
       0.852925         55.7472         23.8775         23.8775 
       0.859047         55.5049         23.4824         23.4824 
       0.865192         54.6407         23.0949         23.0949 
       0.871341         54.0547         22.7159         22.7159 
       0.877463          53.561         22.3472         22.3472 
       0.883569         53.4111         21.9876         21.9876 
       0.889708         52.7941         21.6342         21.6342 
       0.895864         52.3448         21.2876         21.2876 
       0.902008         51.7137         20.9493         20.9493 
       0.908149         51.0715         20.6187         20.6187 
       0.914301         50.7602         20.2946         20.2946 
       0.920448          50.619         19.9779         19.9779 
       0.926574         49.5458          19.669          19.669 
       0.932687          49.277         19.3673         19.3673 
       0.938823         48.8164         19.0709         19.0709 
       0.944975         48.2033           18.78           18.78 
       0.951105         47.8403         18.4962         18.4962 
       0.957225         47.5903         18.2188         18.2188 
       0.963368         47.0967         17.9461         17.9461 
       0.969511         46.6955          17.679          17.679 
       0.975621          46.254         17.4188         17.4188 
       0.981748         45.8144         17.1632         17.1632 
       0.987916         45.4109         16.9111         16.9111 
        0.99406         45.1605          16.665          16.665 
        1.00019         44.6035         16.4243         16.4243 
        1.00632         44.2561         16.1886         16.1886 
        1.01246          43.929         15.9572         15.9572 
        1.01859         43.6631         15.7306         15.7306 
        1.02471         43.1774         15.5088         15.5088 
        1.03085         42.8354         15.2904         15.2904 
        1.03698         42.5681         15.0768         15.0768 
        1.04314         42.1932         14.8663         14.8663 
        1.04929         41.7304         14.6603         14.6603 
        1.05541         41.5754          14.459          14.459 
        1.06154         41.2238         14.2611         14.2611 
        1.06769         40.7441         14.0665         14.0665 
        1.07382         40.4211         13.8762         13.8762 
        1.07993         40.2367         13.6899         13.6899 
        1.08607         39.8782         13.5062         13.5062 
        1.09222         39.6636         13.3257         13.3257 
        1.09836         39.3204         13.1488         13.1488 
        1.10449         39.0809         12.9752         12.9752 
        1.11063         38.6835         12.8046         12.8046 
        1.11677         38.5652         12.6372         12.6372 
         1.1229         38.1384          12.473          12.473 
        1.12903         37.9305         12.3116         12.3116 
        1.13518         37.7813         12.1529         12.1529 
        1.14131         37.3845         11.9971         11.9971 
        1.14745          37.084         11.8442         11.8442 
        1.15359         36.6485         11.6938         11.6938 
        1.15973         36.6312          11.546          11.546 
        1.16584         36.3141         11.4015         11.4015 
        1.17197         35.9183         11.2592         11.2592 
        1.17811         35.7423         11.1189         11.1189 
        1.18424         35.2272         10.9814         10.9814 
        1.19038         35.1284         10.8458         10.8458 
        1.19652          34.957         10.7126         10.7126 
        1.20267         34.6851         10.5816         10.5816 
        1.20881         34.4398         10.4528         10.4528 
        1.21495         34.3133         10.3264         10.3264 
        1.22108         34.1844         10.2021         10.2021 
         1.2272          33.774         10.0801         10.0801 
        1.23334         33.6054          9.9598          9.9598 
        1.23949         33.3811          9.8412          9.8412 
        1.24562          33.126         9.72485         9.72485 
        1.25174         32.8975         9.61056         9.61056 
        1.25789         32.7731         9.49775         9.49775 
        1.26402         32.5332         9.38695         9.38695 
        1.27014         32.4014         9.27819         9.27819 
        1.27628         32.0319         9.17082         9.17082 
        1.28244         32.0314         9.06495         9.06495 
        1.28858         31.6836         8.96089         8.96089 
        1.29471         31.4187         8.85869         8.85869 
        1.30084         31.1782         8.75818         8.75818 
        1.30697          31.173         8.65908         8.65908 
        1.31312          30.878         8.56137         8.56137 
        1.31925         30.6213         8.46548         8.46548 
        1.32537         30.4388         8.37114         8.37114 
        1.33151         30.2164         8.27791         8.27791 
        1.33765         30.1413         8.18615         8.18615 
        1.34378          29.993         8.09597         8.09597 
        1.34992         29.7092         8.00707         8.00707 
        1.35606         29.4745         7.91932         7.91932 
         1.3622         29.3733         7.83304         7.83304 
        1.36833         29.2752         7.74825         7.74825 
        1.37445          28.961         7.66476         7.66476 
        1.38059         28.8364         7.58224         7.58224 
        1.38675         28.6169         7.50074         7.50074 
        1.39288         28.5109         7.42075         7.42075 
        1.39901         28.2786         7.34198         7.34198 
        1.40515         28.1621         7.26416         7.26416 
         1.4113         28.0943         7.18751         7.18751 
        1.41742         27.8748         7.11225         7.11225 
        1.42355         27.6176         7.03793         7.03793 
         1.4297         27.5549         6.96444         6.96444 
        1.43585         27.3592         6.89203         6.89203 
        1.44198         27.1744         6.82093         6.82093 
        1.44809         26.9721         6.75096         6.75096 
        1.45423         26.8857         6.68172         6.68172 
        1.46036         26.7868         6.61356         6.61356 
        1.46649         26.5704         6.54634         6.54634 
        1.47263         26.4108         6.47999         6.47999 
        1.47877         26.2707         6.41458         6.41458 
        1.48491          26.135         6.34998         6.34998 
        1.49104         25.9328         6.28639         6.28639 
        1.49718         25.9015         6.22363         6.22363 
        1.50333         25.7618         6.16163         6.16163 
        1.50947         25.5209         6.10059         6.10059 
         1.5156         25.4567         6.04046         6.04046 
        1.52172         25.2598         5.98115         5.98115 
        1.52787         25.2047         5.92251         5.92251 
          1.534         24.9692         5.86473         5.86473 
        1.54013         24.9932         5.80778         5.80778 
        1.54627         24.7404         5.75148         5.75148 
        1.55241         24.6089         5.69591         5.69591 
        1.55855         24.5071         5.64116         5.64116 
        1.56467         24.3391         5.58727         5.58727 
         1.5708          24.258         5.53394         5.53394 
        1.57695         24.1566         5.48122         5.48122 
        1.58308         23.9249         5.42931         5.42931 
        1.58922         23.8161         5.37804         5.37804 
        1.59535         23.7246         5.32744         5.32744 
         1.6015         23.6739         5.27742         5.27742 
        1.60764         23.4515         5.22807         5.22807 
        1.61376          23.329         5.17948         5.17948 
        1.61989         23.1704         5.13147         5.13147 
        1.62604         23.0629         5.08396         5.08396 
        1.63218         22.9308         5.03708         5.03708 
        1.63831         22.8597          4.9909          4.9909 
        1.64444         22.7399         4.94527         4.94527 
        1.65059         22.6029         4.90011         4.90011 
        1.65673         22.5179         4.85556         4.85556 
        1.66285         22.4272         4.81169         4.81169 
        1.66898         22.2667         4.76834         4.76834 
        1.67512         22.2114         4.72544         4.72544 
        1.68127         22.0602         4.68303         4.68303 
         1.6874          21.959         4.64123         4.64123 
        1.69353         21.8608         4.59997         4.59997 
        1.69967         21.7524         4.55911         4.55911 
        1.70581         21.6208         4.51877         4.51877 
        1.71193          21.511         4.47906         4.47906 
        1.71806         21.4461         4.43975         4.43975 
        1.72421         21.3208         4.40082         4.40082 
        1.73035         21.1984         4.36241         4.36241 
        1.73649         21.0633         4.32447         4.32447 
        1.74262         20.9437           4.287           4.287 
        1.74876         20.9378         4.24996         4.24996 
        1.75489         20.7671         4.21342         4.21342 
        1.76101         20.7002         4.17733         4.17733 
        1.76715         20.5803          4.1416          4.1416 
        1.77329         20.4281         4.10625         4.10625 
        1.77943         20.4005          4.0713          4.0713 
        1.78557         20.3323          4.0368          4.0368 
        1.79171         20.2132          4.0027          4.0027 
        1.79785         20.1039         3.96898         3.96898 
        1.80399         19.9756         3.93565         3.93565 
        1.81012         19.9438         3.90275         3.90275 
        1.81625         19.7576         3.87024         3.87024 
        1.82239         19.6935         3.83805         3.83805 
        1.82853         19.6084         3.80625         3.80625 
        1.83466         19.5115         3.77483         3.77483 
        1.84078         19.4062          3.7438          3.7438 
        1.84692         19.3331         3.71306         3.71306 
        1.85306         19.2202         3.68264         3.68264 
         1.8592         19.1942          3.6526          3.6526 
        1.86533         19.0661         3.62291         3.62291 
        1.87147         18.9499         3.59352         3.59352 
