# k  (h/Mpc)    Pcb(k)  (Mpc/h)^3    Pcb_linear(k) (Mpc/h)^3    Pcb_NL(k) (Mpc/h)^3   ShotnoiseSubtracted = false
     0.00783031         22404.7           22516           22516 
       0.013688           25429         26206.2         26206.2 
       0.019231         24822.9         25269.1         25269.1 
      0.0249154           22406         22305.6         22305.6 
      0.0312784         18295.9         18476.6         18476.6 
      0.0375637         14999.3         15262.2         15262.2 
      0.0433917         13055.6         13108.2         13108.2 
      0.0492413         11537.5         11664.2         11664.2 
      0.0555754         10585.6         10629.3         10629.3 
      0.0619321         9456.88         9813.24         9813.24 
       0.067871         8840.73         9029.86         9029.86 
      0.0738098         8093.38         8142.95         8142.95 
      0.0800417         7156.82         7141.99         7141.99 
      0.0862327         6220.98         6189.44         6189.44 
      0.0921407         5541.28          5419.8          5419.8 
      0.0982031         5038.34         4822.69         4822.69 
       0.104506         4527.31         4401.21         4401.21 
       0.110769         4268.47          4128.8          4128.8 
       0.116806         4109.61         3933.09         3933.09 
       0.122832         3876.37         3739.48         3739.48 
       0.129052         3612.99          3501.1          3501.1 
       0.135211         3454.68         3220.93         3220.93 
       0.141259         3131.44         2926.12         2926.12 
       0.147318         2867.44         2645.13         2645.13 
       0.153489         2669.88         2402.64         2402.64 
       0.159709         2563.14         2216.47         2216.47 
       0.165845         2362.78          2086.2          2086.2 
       0.171974         2307.68         1993.01         1993.01 
       0.178125         2241.82         1915.53         1915.53 
       0.184229         2064.78         1836.12         1836.12 
        0.19034         2027.56         1743.66         1743.66 
       0.196428         1955.58          1638.1          1638.1 
       0.202534         1824.99         1526.04         1526.04 
       0.208729         1778.17          1416.7          1416.7 
       0.214876         1683.93         1321.62         1321.62 
       0.220989         1604.55         1244.69         1244.69 
       0.227147         1557.24         1184.27         1184.27 
        0.23329         1496.56         1136.48         1136.48 
       0.239377         1489.71         1095.18         1095.18 
       0.245482         1418.72         1054.12         1054.12 
       0.251667         1366.38         1009.44         1009.44 
       0.257832         1337.83         961.218         961.218 
       0.263955         1275.18         911.564         911.564 
       0.270079         1237.88         863.235         863.235 
        0.27624         1186.01         818.769         818.769 
       0.282372         1171.21         780.301         780.301 
        0.28843         1144.45         748.047         748.047 
       0.294538         1094.15         720.132         720.132 
       0.300721         1074.02         694.762         694.762 
        0.30691         1043.51         670.361         670.361 
       0.313033         1004.14         645.994         645.994 
       0.319153         993.442         620.966         620.966 
       0.325316         978.569         595.511         595.511 
        0.33145         953.601         570.713         570.713 
       0.337538         922.034         547.502         547.502 
       0.343633         900.797         526.242         526.242 
       0.349808         883.724         506.864         506.864 
       0.355968         864.884         489.457         489.457 
       0.362074          837.18         473.547         473.547 
       0.368217         832.818         458.357         458.357 
       0.374374         819.964         443.466         443.466 
       0.380519         790.618         428.729         428.729 
       0.386598         785.109         414.314         414.314 
       0.392688         764.047         400.186         400.186 
        0.39888         750.089         386.418         386.418 
       0.405048         732.139         373.504         373.504 
       0.411186         731.391         361.501         361.501 
       0.417313         722.303         350.352         350.352 
       0.423458         703.375         339.863         339.863 
       0.429607         684.233         329.862         329.862 
       0.435692           676.3         320.318         320.318 
       0.441815         663.478         310.976         310.976 
       0.447964         654.446         301.799         301.799 
       0.454126         645.824          292.85          292.85 
       0.460267         637.713         284.249         284.249 
       0.466387         623.497         276.041         276.041 
        0.47254          617.22         268.172         268.172 
       0.478662         605.585         260.735         260.735 
       0.484765         597.393         253.685         253.685 
       0.490885         593.221          246.92          246.92 
       0.497035         579.298         240.366         240.366 
       0.503198         578.107         234.008         234.008 
       0.509342         567.027         227.863         227.863 
       0.515458         556.164         221.934         221.934 
       0.521598         554.683         216.166         216.166 
       0.527764         541.714         210.569         210.569 
       0.533884         534.564         205.222         205.222 
           0.54         531.406         200.092         200.092 
       0.546137         522.762         195.148         195.148 
       0.552299         518.856         190.367         190.367 
       0.558452         511.511         185.758         185.758 
       0.564573         509.741         181.317         181.317 
       0.570708         501.935         177.005         177.005 
       0.576825         492.761         172.839         172.839 
       0.582926         491.165         168.814         168.814 
       0.589034         482.976         164.909         164.909 
       0.595184         478.407         161.102         161.102 
       0.601379         470.718          157.39          157.39 
       0.607522         463.262         153.828         153.828 
       0.613639         462.096         150.397         150.397 
       0.619772         458.416         147.067         147.067 
       0.625918         450.677         143.835         143.835 
       0.632068         449.241           140.7           140.7 
       0.638161         442.837         137.686         137.686 
         0.6443         437.334         134.737         134.737 
       0.650464         433.764          131.86          131.86 
       0.656582          429.45         129.087         129.087 
       0.662703         426.045         126.391         126.391 
       0.668861          419.78         123.758         123.758 
       0.675024          418.28         121.199         121.199 
       0.681124         408.781          118.74          118.74 
       0.687237         408.825         116.346         116.346 
       0.693381         402.704         114.008         114.008 
       0.699536         402.882         111.731         111.731 
       0.705665         396.015         109.527         109.527 
       0.711789         394.544         107.384         107.384 
       0.717957         390.131         105.284         105.284 
        0.72409         385.948         103.251         103.251 
       0.730186         385.721         101.284         101.284 
       0.736317          379.57         99.3575         99.3575 
       0.742472         376.193         97.4739         97.4739 
       0.748622         375.329          95.641          95.641 
        0.75476         369.264         93.8593         93.8593 
       0.760888         368.163         92.1259         92.1259 
       0.767043          364.63         90.4296         90.4296 
       0.773185          361.23         88.7799         88.7799 
       0.779291         358.132         87.1808         87.1808 
       0.785407         355.298         85.6191         85.6191 
       0.791564         353.658         84.0859         84.0859 
       0.797719         348.103         82.5913         82.5913 
       0.803834         347.868         81.1426         81.1426 
       0.809972         342.475         79.7235         79.7235 
       0.816124         340.378         78.3354         78.3354 
       0.822261         337.884         76.9842         76.9842 
       0.828378         336.058          75.669          75.669 
       0.834502         331.133         74.3835         74.3835 
       0.840667         329.783         73.1196         73.1196 
       0.846816         326.508         71.8888         71.8888 
       0.852925         326.765         70.6942         70.6942 
       0.859047         321.857         69.5242         69.5242 
       0.865192         320.396         68.3771         68.3771 
       0.871341         317.007         67.2551         67.2551 
       0.877463         315.691         66.1634         66.1634 
       0.883569         313.585         65.0988         65.0988 
       0.889708         310.016         64.0523         64.0523 
       0.895864         306.328         63.0262         63.0262 
       0.902008         305.418         62.0247         62.0247 
       0.908149         301.998         61.0457         61.0457 
       0.914301         301.228         60.0863         60.0863 
       0.920448         297.262         59.1484         59.1484 
       0.926574         295.555         58.2339         58.2339 
       0.932687          294.64         57.3407         57.3407 
       0.938823         291.667         56.4631         56.4631 
       0.944975         291.189         55.6019         55.6019 
       0.951105         288.393         54.7617         54.7617 
       0.957225          285.06         53.9403         53.9403 
       0.963368         284.994          53.133          53.133 
       0.969511          281.21         52.3423         52.3423 
       0.975621          278.49         51.5719         51.5719 
       0.981748         277.898         50.8151         50.8151 
       0.987916         276.029         50.0687         50.0687 
        0.99406         272.977         49.3401         49.3401 
        1.00019         270.502         48.6275         48.6275 
        1.00632         269.816         47.9296         47.9296 
        1.01246         267.759         47.2444         47.2444 
        1.01859         265.509         46.5737         46.5737 
        1.02471         263.715         45.9169         45.9169 
        1.03085         262.424         45.2704         45.2704 
        1.03698         260.418         44.6378         44.6378 
        1.04314         259.022         44.0146         44.0146 
        1.04929         257.342         43.4047         43.4047 
        1.05541         256.001         42.8088         42.8088 
        1.06154         253.026         42.2227         42.2227 
        1.06769         251.557         41.6467         41.6467 
        1.07382         249.187         41.0833         41.0833 
        1.07993         248.861         40.5316         40.5316 
        1.08607         247.021         39.9879         39.9879 
        1.09222         244.821         39.4535         39.4535 
        1.09836         243.313         38.9296         38.9296 
        1.10449         241.984         38.4158         38.4158 
        1.11063         240.633         37.9107         37.9107 
        1.11677         238.044         37.4149         37.4149 
         1.1229         237.589         36.9288         36.9288 
        1.12903         235.029         36.4509         36.4509 
        1.13518         233.531         35.9811         35.9811 
        1.14131         232.095         35.5199         35.5199 
        1.14745         230.363          35.067          35.067 
        1.15359         228.729         34.6219         34.6219 
        1.15973         227.647         34.1844         34.1844 
        1.16584         226.299         33.7564         33.7564 
        1.17197         224.881         33.3351         33.3351 
        1.17811         222.245         32.9197         32.9197 
        1.18424         221.311         32.5126         32.5126 
        1.19038         220.406         32.1112         32.1112 
        1.19652         217.997         31.7168         31.7168 
        1.20267         217.015         31.3289         31.3289 
        1.20881         215.796         30.9477         30.9477 
        1.21495         214.118         30.5733         30.5733 
        1.22108         212.989         30.2053         30.2053 
         1.2272         211.143         29.8441         29.8441 
        1.23334         209.496          29.488          29.488 
        1.23949         208.747         29.1368         29.1368 
        1.24562         206.973         28.7924         28.7924 
        1.25174         206.489          28.454          28.454 
        1.25789         204.379           28.12           28.12 
        1.26402         203.493         27.7919         27.7919 
        1.27014         202.166         27.4699         27.4699 
        1.27628         201.039          27.152          27.152 
        1.28244         198.968         26.8386         26.8386 
        1.28858         198.322         26.5305         26.5305 
        1.29471         196.799         26.2279         26.2279 
        1.30084         196.379         25.9303         25.9303 
        1.30697         194.484         25.6369         25.6369 
        1.31312         193.723         25.3476         25.3476 
        1.31925         192.384         25.0637         25.0637 
        1.32537          191.66         24.7844         24.7844 
        1.33151         189.458         24.5084         24.5084 
        1.33765          188.89         24.2367         24.2367 
        1.34378         187.811         23.9697         23.9697 
        1.34992         186.053         23.7065         23.7065 
        1.35606         185.129         23.4467         23.4467 
         1.3622         183.404         23.1913         23.1913 
        1.36833         183.334         22.9402         22.9402 
        1.37445         182.254          22.693          22.693 
        1.38059         180.132         22.4487         22.4487 
        1.38675         178.685         22.2074         22.2074 
        1.39288         178.372         21.9706         21.9706 
        1.39901         176.993         21.7374         21.7374 
        1.40515         175.813          21.507          21.507 
         1.4113         175.028           21.28           21.28 
        1.41742         173.716         21.0572         21.0572 
        1.42355          172.25         20.8372         20.8372 
         1.4297         171.453         20.6196         20.6196 
        1.43585         170.684         20.4052         20.4052 
        1.44198         169.396         20.1947         20.1947 
        1.44809         168.762         19.9876         19.9876 
        1.45423         167.584         19.7825         19.7825 
        1.46036          166.93         19.5808         19.5808 
        1.46649         165.396         19.3817         19.3817 
        1.47263         164.585         19.1853         19.1853 
        1.47877         163.399         18.9916         18.9916 
        1.48491         162.428         18.8004         18.8004 
        1.49104         160.968         18.6121         18.6121 
        1.49718         160.105         18.4263         18.4263 
        1.50333         159.184         18.2427         18.2427 
        1.50947         158.121          18.062          18.062 
         1.5156         157.255          17.884          17.884 
        1.52172         156.298         17.7084         17.7084 
        1.52787         155.407         17.5348         17.5348 
          1.534           154.8         17.3637         17.3637 
        1.54013          153.72         17.1951         17.1951 
        1.54627         152.725         17.0284         17.0284 
        1.55241         151.973         16.8639         16.8639 
        1.55855          150.87         16.7018         16.7018 
        1.56467          149.87         16.5422         16.5422 
         1.5708         149.189         16.3843         16.3843 
        1.57695         148.356         16.2282         16.2282 
        1.58308         147.302         16.0745         16.0745 
        1.58922          146.15         15.9227         15.9227 
        1.59535         145.314         15.7729         15.7729 
         1.6015         144.518         15.6249         15.6249 
        1.60764         143.555         15.4787         15.4787 
        1.61376         142.817         15.3349         15.3349 
        1.61989         141.851         15.1927         15.1927 
        1.62604         141.442         15.0521         15.0521 
        1.63218         140.102         14.9133         14.9133 
        1.63831         139.467         14.7765         14.7765 
        1.64444         138.592         14.6415         14.6415 
        1.65059         137.668         14.5077         14.5077 
        1.65673         136.743         14.3758         14.3758 
        1.66285          136.07         14.2459         14.2459 
        1.66898         135.285         14.1176         14.1176 
        1.67512         134.217         13.9906         13.9906 
        1.68127         133.566          13.865          13.865 
         1.6874         132.756         13.7413         13.7413 
        1.69353         132.146         13.6191         13.6191 
        1.69967         131.241         13.4982         13.4982 
        1.70581         130.423         13.3787         13.3787 
        1.71193         129.841         13.2611         13.2611 
        1.71806         128.913         13.1447         13.1447 
        1.72421         128.021         13.0295         13.0295 
        1.73035         127.511         12.9158         12.9158 
        1.73649         126.611         12.8034         12.8034 
        1.74262         125.725         12.6925         12.6925 
        1.74876         124.906         12.5828         12.5828 
        1.75489         124.505         12.4747         12.4747 
        1.76101         123.631         12.3678         12.3678 
        1.76715         122.964          12.262          12.262 
        1.77329         122.299         12.1574         12.1574 
        1.77943         121.255         12.0539         12.0539 
        1.78557         120.417         11.9517         11.9517 
        1.79171         119.745         11.8508         11.8508 
        1.79785         119.005         11.7509         11.7509 
        1.80399         118.388         11.6523         11.6523 
        1.81012         118.013         11.5549         11.5549 
        1.81625         116.904         11.4586         11.4586 
        1.82239         116.598         11.3633         11.3633 
        1.82853         115.672         11.2691         11.2691 
        1.83466         114.944         11.1761         11.1761 
        1.84078         114.403         11.0842         11.0842 
        1.84692         113.594         10.9933         10.9933 
        1.85306         112.944         10.9032         10.9032 
         1.8592         112.269         10.8142         10.8142 
        1.86533         111.466         10.7263         10.7263 
        1.87147         110.787         10.6393         10.6393 
