# k  (h/Mpc)    P(k)  (Mpc/h)^3    P_linear(k)  (Mpc/h)^3     P_NL(k)  ShotnoiseSubtracted = false
     0.00783031         21098.5         21204.7         21204.7 
       0.013688         23965.1         24680.5         24680.5 
       0.019231         23390.6         23798.2         23798.2 
      0.0249154         21103.2         21007.3         21007.3 
      0.0312784         17240.6         17401.2         17401.2 
      0.0375637         14136.2         14373.9         14373.9 
      0.0433917         12301.6         12345.3         12345.3 
      0.0492413         10871.9         10985.3         10985.3 
      0.0555754         9975.86         10010.7         10010.7 
      0.0619321         8917.14         9242.15         9242.15 
       0.067871         8335.57         8504.36         8504.36 
      0.0738098         7625.97         7669.06         7669.06 
      0.0800417         6743.25         6726.36         6726.36 
      0.0862327         5859.22         5829.25         5829.25 
      0.0921407         5214.76         5104.39         5104.39 
      0.0982031         4738.82         4542.03         4542.03 
       0.104506         4258.19         4145.08         4145.08 
       0.110769         4014.23         3888.53         3888.53 
       0.116806         3866.05          3704.2          3704.2 
       0.122832         3644.94         3521.86         3521.86 
       0.129052         3399.75         3297.36         3297.36 
       0.135211         3246.86         3033.49         3033.49 
       0.141259         2942.39         2755.83         2755.83 
       0.147318         2690.92         2491.19         2491.19 
       0.153489            2504         2262.83         2262.83 
       0.159709         2401.52         2087.49         2087.49 
       0.165845         2212.73         1964.79         1964.79 
       0.171974         2162.81         1877.03         1877.03 
       0.178125         2099.62         1804.06         1804.06 
       0.184229         1935.21         1729.26         1729.26 
        0.19034         1898.53         1642.19         1642.19 
       0.196428         1830.06         1542.78         1542.78 
       0.202534         1705.05         1437.23         1437.23 
       0.208729          1661.5         1334.26         1334.26 
       0.214876         1573.19         1244.71         1244.71 
       0.220989         1496.23         1172.26         1172.26 
       0.227147         1452.75         1115.35         1115.35 
        0.23329         1396.19         1070.34         1070.34 
       0.239377         1389.11         1031.45         1031.45 
       0.245482         1322.03         992.779         992.779 
       0.251667         1272.94         950.693         950.693 
       0.257832         1246.66         905.282         905.282 
       0.263955         1187.03         858.517         858.517 
       0.270079         1151.02         813.001         813.001 
        0.27624         1102.38         771.121         771.121 
       0.282372         1087.58         734.892         734.892 
        0.28843         1064.22         704.515         704.515 
       0.294538         1016.09         678.224         678.224 
       0.300721         996.665         654.331         654.331 
        0.30691         969.318          631.35          631.35 
       0.313033         931.393         608.401         608.401 
       0.319153         920.891         584.829         584.829 
       0.325316         907.183         560.858         560.858 
        0.33145         884.006         537.501         537.501 
       0.337538         854.006         515.641         515.641 
       0.343633         833.886         495.619         495.619 
       0.349808          817.42         477.367         477.367 
       0.355968         800.316         460.974         460.974 
       0.362074         773.554          445.99          445.99 
       0.368217         769.774         431.683         431.683 
       0.374374         758.024          417.66          417.66 
       0.380519         730.103          403.78          403.78 
       0.386598         724.721         390.203         390.203 
       0.392688         705.359         376.898         376.898 
        0.39888         691.482          363.93          363.93 
       0.405048          675.11         351.769         351.769 
       0.411186         674.454         340.463         340.463 
       0.417313          666.23         329.964         329.964 
       0.423458          648.42         320.085         320.085 
       0.429607         630.189         310.667         310.667 
       0.435692         622.813         301.678         301.678 
       0.441815         611.021         292.879         292.879 
       0.447964         601.938         284.237         284.237 
       0.454126         594.276         275.808         275.808 
       0.460267         586.231         267.707         267.707 
       0.466387         573.329         259.978         259.978 
        0.47254         567.184         252.567         252.567 
       0.478662         556.506         245.561         245.561 
       0.484765         548.832         238.922         238.922 
       0.490885         544.882         232.551         232.551 
       0.497035         531.955         226.379         226.379 
       0.503198         530.901          220.39          220.39 
       0.509342         520.647         214.603         214.603 
       0.515458         510.398         209.019         209.019 
       0.521598         508.464         203.586         203.586 
       0.527764         496.831         198.315         198.315 
       0.533884         490.675         193.279         193.279 
           0.54         487.188         188.448         188.448 
       0.546137         478.934         183.792         183.792 
       0.552299         475.762         179.289         179.289 
       0.558452         468.675         174.948         174.948 
       0.564573         466.624         170.766         170.766 
       0.570708         459.559         166.704         166.704 
       0.576825         451.069         162.781         162.781 
       0.582926         449.711          158.99          158.99 
       0.589034         441.814         155.313         155.313 
       0.595184         437.939         151.727         151.727 
       0.601379         430.742         148.231         148.231 
       0.607522         423.515         144.876         144.876 
       0.613639         422.454         141.644         141.644 
       0.619772         419.524         138.508         138.508 
       0.625918         411.731         135.465         135.465 
       0.632068         410.464         132.512         132.512 
       0.638161         404.964         129.674         129.674 
         0.6443         399.599         126.896         126.896 
       0.650464         396.284         124.187         124.187 
       0.656582         392.266         121.575         121.575 
       0.662703         389.368         119.036         119.036 
       0.668861          383.24         116.556         116.556 
       0.675024         381.902         114.146         114.146 
       0.681124         373.449          111.83          111.83 
       0.687237         373.331         109.575         109.575 
       0.693381         367.602         107.373         107.373 
       0.699536          367.62         105.229         105.229 
       0.705665         361.558         103.153         103.153 
       0.711789         359.828         101.135         101.135 
       0.717957         356.002         99.1569         99.1569 
        0.72409         351.917         97.2425         97.2425 
       0.730186         351.954         95.3899         95.3899 
       0.736317          346.12         93.5755         93.5755 
       0.742472         343.255         91.8016         91.8016 
       0.748622          342.01         90.0754         90.0754 
        0.75476         337.263         88.3973         88.3973 
       0.760888         335.605         86.7648         86.7648 
       0.767043         332.186         85.1672         85.1672 
       0.773185          329.16         83.6135         83.6135 
       0.779291          326.33         82.1075         82.1075 
       0.785407         323.748         80.6366         80.6366 
       0.791564         322.153         79.1927         79.1927 
       0.797719         317.055          77.785          77.785 
       0.803834         317.076         76.4206         76.4206 
       0.809972         312.024         75.0841         75.0841 
       0.816124         309.942         73.7768         73.7768 
       0.822261         307.617         72.5042         72.5042 
       0.828378         305.928         71.2655         71.2655 
       0.834502         301.331         70.0548         70.0548 
       0.840667         300.592         68.8645         68.8645 
       0.846816         296.969         67.7053         67.7053 
       0.852925         297.205         66.5802         66.5802 
       0.859047         293.087         65.4784         65.4784 
       0.865192         291.659          64.398          64.398 
       0.871341         288.442         63.3413         63.3413 
       0.877463         287.198         62.3131         62.3131 
       0.883569         285.202         61.3105         61.3105 
       0.889708         282.241         60.3249         60.3249 
       0.895864         278.625         59.3585         59.3585 
       0.902008         277.705         58.4153         58.4153 
       0.908149         274.656         57.4932         57.4932 
       0.914301         273.862         56.5897         56.5897 
       0.920448         270.547         55.7064         55.7064 
       0.926574         268.771         54.8451         54.8451 
       0.932687         268.232         54.0039         54.0039 
       0.938823         265.267         53.1773         53.1773 
       0.944975         264.883         52.3662         52.3662 
       0.951105         262.174         51.5749         51.5749 
       0.957225         259.257         50.8013         50.8013 
       0.963368         259.318          50.041          50.041 
       0.969511         255.523         49.2963         49.2963 
       0.975621         253.001         48.5707         48.5707 
       0.981748         252.646         47.8579         47.8579 
       0.987916         250.985          47.155          47.155 
        0.99406         248.208         46.4688         46.4688 
        1.00019         246.169         45.7977         45.7977 
        1.00632         245.422         45.1404         45.1404 
        1.01246         243.604         44.4951         44.4951 
        1.01859          241.24         43.8634         43.8634 
        1.02471         239.556         43.2448         43.2448 
        1.03085         238.372          42.636          42.636 
        1.03698         236.946         42.0402         42.0402 
        1.04314          235.63         41.4532         41.4532 
        1.04929         233.925         40.8788         40.8788 
        1.05541         232.829         40.3176         40.3176 
        1.06154         230.261         39.7656         39.7656 
        1.06769         228.753         39.2231         39.2231 
        1.07382         226.568         38.6925         38.6925 
        1.07993         226.099          38.173          38.173 
        1.08607         224.594         37.6608         37.6608 
        1.09222         222.495         37.1576         37.1576 
        1.09836           221.2         36.6641         36.6641 
        1.10449         220.051         36.1802         36.1802 
        1.11063         218.626         35.7045         35.7045 
        1.11677         216.292         35.2376         35.2376 
         1.1229         216.159         34.7798         34.7798 
        1.12903         213.577         34.3297         34.3297 
        1.13518          212.29         33.8873         33.8873 
        1.14131          211.11         33.4529         33.4529 
        1.14745          209.36         33.0263         33.0263 
        1.15359         208.015         32.6071         32.6071 
        1.15973         207.042         32.1951         32.1951 
        1.16584         205.674          31.792          31.792 
        1.17197         204.583         31.3952         31.3952 
        1.17811         202.213          31.004          31.004 
        1.18424         201.263         30.6206         30.6206 
        1.19038         200.459         30.2426         30.2426 
        1.19652         198.179         29.8711         29.8711 
        1.20267         197.404         29.5058         29.5058 
        1.20881         196.131         29.1467         29.1467 
        1.21495         194.934         28.7942         28.7942 
        1.22108         193.718         28.4475         28.4475 
         1.2272         192.216         28.1074         28.1074 
        1.23334         190.717          27.772          27.772 
        1.23949         189.961         27.4413         27.4413 
        1.24562         188.455         27.1168         27.1168 
        1.25174         187.956         26.7981         26.7981 
        1.25789          186.02         26.4836         26.4836 
        1.26402         185.291         26.1746         26.1746 
        1.27014         184.087         25.8714         25.8714 
        1.27628         183.142          25.572          25.572 
        1.28244         181.265         25.2768         25.2768 
        1.28858         180.557         24.9866         24.9866 
        1.29471         179.112         24.7016         24.7016 
        1.30084          178.77         24.4214         24.4214 
        1.30697         177.165          24.145          24.145 
        1.31312         176.345         23.8726         23.8726 
        1.31925         175.125         23.6052         23.6052 
        1.32537         174.463         23.3421         23.3421 
        1.33151         172.549         23.0822         23.0822 
        1.33765         171.952         22.8263         22.8263 
        1.34378         171.087         22.5748         22.5748 
        1.34992         169.438          22.327          22.327 
        1.35606         168.764         22.0823         22.0823 
         1.3622         167.165         21.8417         21.8417 
        1.36833         166.963         21.6053         21.6053 
        1.37445         166.023         21.3725         21.3725 
        1.38059         164.167         21.1424         21.1424 
        1.38675         162.949         20.9151         20.9151 
        1.39288         162.478         20.6921         20.6921 
        1.39901         161.201         20.4724         20.4724 
        1.40515         160.229         20.2554         20.2554 
         1.4113         159.609         20.0417         20.0417 
        1.41742         158.376         19.8318         19.8318 
        1.42355         157.073         19.6246         19.6246 
         1.4297          156.34         19.4197         19.4197 
        1.43585         155.771         19.2178         19.2178 
        1.44198         154.429         19.0195         19.0195 
        1.44809         153.888         18.8244         18.8244 
        1.45423          152.89         18.6313         18.6313 
        1.46036         152.144         18.4413         18.4413 
        1.46649         150.729         18.2538         18.2538 
        1.47263         150.165         18.0688         18.0688 
        1.47877          149.15         17.8865         17.8865 
        1.48491         148.063         17.7063         17.7063 
        1.49104         146.859          17.529          17.529 
        1.49718         146.185          17.354          17.354 
        1.50333           145.1         17.1811         17.1811 
        1.50947         144.377         17.0109         17.0109 
         1.5156         143.457         16.8433         16.8433 
        1.52172           142.6         16.6779         16.6779 
        1.52787         141.892         16.5144         16.5144 
          1.534         141.272         16.3532         16.3532 
        1.54013         140.295         16.1944         16.1944 
        1.54627         139.449         16.0374         16.0374 
        1.55241         138.676         15.8825         15.8825 
        1.55855         137.712         15.7298         15.7298 
        1.56467         136.856         15.5796         15.5796 
         1.5708         136.153         15.4309         15.4309 
        1.57695         135.418         15.2839         15.2839 
        1.58308         134.363         15.1391         15.1391 
        1.58922         133.501         14.9961         14.9961 
        1.59535         132.717         14.8551         14.8551 
         1.6015         131.923         14.7156         14.7156 
        1.60764          131.05          14.578          14.578 
        1.61376         130.451         14.4425         14.4425 
        1.61989         129.571         14.3086         14.3086 
        1.62604         129.103         14.1761         14.1761 
        1.63218             128         14.0454         14.0454 
        1.63831         127.391         13.9166         13.9166 
        1.64444         126.461         13.7894         13.7894 
        1.65059         125.746         13.6635         13.6635 
        1.65673          124.95         13.5393         13.5393 
        1.66285         124.351         13.4169         13.4169 
        1.66898         123.643         13.2961         13.2961 
        1.67512         122.519         13.1764         13.1764 
        1.68127         122.133         13.0582         13.0582 
         1.6874         121.339         12.9416         12.9416 
        1.69353         120.701         12.8266         12.8266 
        1.69967         119.964         12.7126         12.7126 
        1.70581         119.216         12.6001         12.6001 
        1.71193         118.706         12.4894         12.4894 
        1.71806          117.71         12.3798         12.3798 
        1.72421         116.907         12.2713         12.2713 
        1.73035         116.556         12.1642         12.1642 
        1.73649         115.803         12.0584         12.0584 
        1.74262         114.883         11.9539         11.9539 
        1.74876         114.185         11.8506         11.8506 
        1.75489         113.963         11.7487         11.7487 
        1.76101         113.016         11.6481         11.6481 
        1.76715         112.396         11.5485         11.5485 
        1.77329         111.749         11.4499         11.4499 
        1.77943          110.85         11.3524         11.3524 
        1.78557         110.117         11.2562         11.2562 
        1.79171         109.506         11.1611         11.1611 
        1.79785         108.849         11.0671         11.0671 
        1.80399         108.234         10.9742         10.9742 
        1.81012         107.901         10.8824         10.8824 
        1.81625         106.905         10.7918         10.7918 
        1.82239         106.593          10.702          10.702 
        1.82853         105.766         10.6133         10.6133 
        1.83466         105.018         10.5257         10.5257 
        1.84078         104.615         10.4392         10.4392 
        1.84692          103.88         10.3535         10.3535 
        1.85306         103.253         10.2687         10.2687 
         1.8592           102.7         10.1849         10.1849 
        1.86533         102.008         10.1021         10.1021 
        1.87147         101.329         10.0202         10.0202 
        1.87761         100.915         9.93909         9.93909 
