# k  (h/Mpc)    P(k)  (Mpc/h)^3    P_linear(k)  (Mpc/h)^3     P_NL(k)  ShotnoiseSubtracted = false
     0.00783031         6234.33         6275.16         6275.16 
       0.013688         7177.64          7306.8          7306.8 
       0.019231         6985.16         7046.83         7046.83 
      0.0249154         6246.14         6221.06         6221.06 
      0.0312784            5145         5153.51         5153.51 
      0.0375637          4231.7         4257.13         4257.13 
      0.0433917          3664.6          3656.4          3656.4 
      0.0492413         3245.18         3253.67         3253.67 
      0.0555754         2975.48         2965.06         2965.06 
      0.0619321         2692.62         2737.44         2737.44 
       0.067871         2506.32         2518.94         2518.94 
      0.0738098         2272.24         2271.54         2271.54 
      0.0800417         2004.63         1992.33         1992.33 
      0.0862327         1734.77         1726.62         1726.62 
      0.0921407         1525.34         1511.92         1511.92 
      0.0982031         1372.54         1345.35         1345.35 
       0.104506         1236.82         1227.78         1227.78 
       0.110769         1163.45         1151.79         1151.79 
       0.116806         1120.35          1097.2          1097.2 
       0.122832         1054.27         1043.19         1043.19 
       0.129052         991.411         976.691         976.691 
       0.135211          926.21         898.533         898.533 
       0.141259         838.248          816.29          816.29 
       0.147318         755.712         737.904         737.904 
       0.153489         694.877         670.261         670.261 
       0.159709         652.568         618.325         618.325 
       0.165845         602.172         581.983         581.983 
       0.171974         589.509         555.986         555.986 
       0.178125         566.288         534.373         534.373 
       0.184229         532.773         512.219         512.219 
        0.19034         514.284         486.426         486.426 
       0.196428         488.099         456.981         456.981 
       0.202534         448.308         425.717         425.717 
       0.208729         430.123         395.217         395.217 
       0.214876         406.994         368.692         368.692 
       0.220989         377.883         347.231         347.231 
       0.227147         367.944         330.375         330.375 
        0.23329         354.085         317.043         317.043 
       0.239377         345.767         305.523         305.523 
       0.245482         328.916         294.068         294.068 
       0.251667           314.1         281.602         281.602 
       0.257832         307.578         268.151         268.151 
       0.263955         288.286         254.299         254.299 
       0.270079         274.924         240.817         240.817 
        0.27624         261.706         228.412         228.412 
       0.282372         252.997          217.68          217.68 
        0.28843         249.747         208.683         208.683 
       0.294538         237.615         200.895         200.895 
       0.300721         228.455         193.818         193.818 
        0.30691         224.297         187.011         187.011 
       0.313033         214.029         180.213         180.213 
       0.319153         209.612         173.231         173.231 
       0.325316         202.236          166.13          166.13 
        0.33145         195.467         159.212         159.212 
       0.337538         188.131         152.737         152.737 
       0.343633          181.77         146.806         146.806 
       0.349808         176.032           141.4           141.4 
       0.355968          171.51         136.544         136.544 
       0.362074         167.123         132.106         132.106 
       0.368217          163.63         127.868         127.868 
       0.374374          159.29         123.714         123.714 
       0.380519         152.486         119.603         119.603 
       0.386598         149.116         115.581         115.581 
       0.392688         144.383          111.64          111.64 
        0.39888         141.416         107.799         107.799 
       0.405048         137.834         104.197         104.197 
       0.411186         135.369         100.848         100.848 
       0.417313         131.838         97.7381         97.7381 
       0.423458         128.378         94.8116         94.8116 
       0.429607         125.284          92.022          92.022 
       0.435692         123.088         89.3594         89.3594 
       0.441815         119.522         86.7532         86.7532 
       0.447964         115.577         84.1932         84.1932 
       0.454126         113.418         81.6966         81.6966 
       0.460267         112.218          79.297          79.297 
       0.466387         109.289         77.0075         77.0075 
        0.47254         107.846         74.8124         74.8124 
       0.478662         104.011         72.7373         72.7373 
       0.484765         102.341         70.7708         70.7708 
       0.490885         100.005         68.8836         68.8836 
       0.497035         98.9377         67.0553         67.0553 
       0.503198         96.7946         65.2813         65.2813 
       0.509342         94.1841         63.5673         63.5673 
       0.515458          92.669         61.9131         61.9131 
       0.521598         90.3017         60.3039         60.3039 
       0.527764         89.3103         58.7427         58.7427 
       0.533884         88.4116         57.2507         57.2507 
           0.54          85.889         55.8198         55.8198 
       0.546137         83.7396         54.4406         54.4406 
       0.552299         82.3134         53.1069         53.1069 
       0.558452         80.7408         51.8211         51.8211 
       0.564573         80.2235         50.5823         50.5823 
       0.570708         77.8627         49.3792         49.3792 
       0.576825         76.9829         48.2171         48.2171 
       0.582926         76.0121         47.0942         47.0942 
       0.589034         74.5098         46.0049         46.0049 
       0.595184         73.4513         44.9427         44.9427 
       0.601379         71.7215         43.9072         43.9072 
       0.607522         70.3145         42.9136         42.9136 
       0.613639         69.6552         41.9563         41.9563 
       0.619772         68.2916         41.0274         41.0274 
       0.625918         67.5606         40.1258         40.1258 
       0.632068         66.2958         39.2513         39.2513 
       0.638161         65.1313         38.4104         38.4104 
         0.6443         64.6497         37.5876         37.5876 
       0.650464         63.0945         36.7852         36.7852 
       0.656582         62.8058         36.0114         36.0114 
       0.662703         61.8111         35.2595         35.2595 
       0.668861         60.4063         34.5249         34.5249 
       0.675024          60.161          33.811          33.811 
       0.681124         59.2203          33.125          33.125 
       0.687237          58.064         32.4571         32.4571 
       0.693381         57.4655         31.8049         31.8049 
       0.699536         56.7633         31.1697         31.1697 
       0.705665         55.8802         30.5548         30.5548 
       0.711789          54.983          29.957          29.957 
       0.717957         54.1859         29.3711         29.3711 
        0.72409         53.6114          28.804          28.804 
       0.730186          53.245         28.2553         28.2553 
       0.736317         52.2764         27.7179         27.7179 
       0.742472          51.518         27.1924         27.1924 
       0.748622         50.7006         26.6811         26.6811 
        0.75476          50.185          26.184          26.184 
       0.760888         49.9581         25.7005         25.7005 
       0.767043         48.8656         25.2273         25.2273 
       0.773185         48.1933          24.767          24.767 
       0.779291         47.6309         24.3209         24.3209 
       0.785407         47.0141         23.8852         23.8852 
       0.791564         46.9019         23.4576         23.4576 
       0.797719         46.0037         23.0406         23.0406 
       0.803834         45.6703         22.6364         22.6364 
       0.809972         45.1325         22.2406         22.2406 
       0.816124         44.5641         21.8533         21.8533 
       0.822261         43.9002         21.4764         21.4764 
       0.828378         43.7402         21.1095         21.1095 
       0.834502         43.1122         20.7508         20.7508 
       0.840667         42.7274         20.3983         20.3983 
       0.846816         42.1649         20.0549         20.0549 
       0.852925         41.7035         19.7216         19.7216 
       0.859047         41.5237         19.3953         19.3953 
       0.865192         40.7952         19.0752         19.0752 
       0.871341           40.34         18.7622         18.7622 
       0.877463         39.9483         18.4577         18.4577 
       0.883569         39.7935         18.1607         18.1607 
       0.889708         39.3018         17.8687         17.8687 
       0.895864         38.9151         17.5825         17.5825 
       0.902008         38.4754         17.3031         17.3031 
       0.908149         38.0238           17.03           17.03 
       0.914301          37.701         16.7623         16.7623 
       0.920448         37.5118         16.5007         16.5007 
       0.926574         36.8184         16.2456         16.2456 
       0.932687         36.5299         15.9964         15.9964 
       0.938823         36.1134         15.7516         15.7516 
       0.944975         35.7112         15.5113         15.5113 
       0.951105         35.4578         15.2769         15.2769 
       0.957225          35.197         15.0478         15.0478 
       0.963368         34.8219         14.8226         14.8226 
       0.969511          34.501          14.602          14.602 
       0.975621         34.2164         14.3871         14.3871 
       0.981748           33.84         14.1759         14.1759 
       0.987916         33.5448         13.9677         13.9677 
        0.99406         33.2539         13.7645         13.7645 
        1.00019         32.9355         13.5657         13.5657 
        1.00632          32.669          13.371          13.371 
        1.01246         32.3723         13.1798         13.1798 
        1.01859         32.1174         12.9927         12.9927 
        1.02471         31.7607         12.8095         12.8095 
        1.03085         31.5533         12.6291         12.6291 
        1.03698         31.3458         12.4527         12.4527 
        1.04314         31.0481         12.2788         12.2788 
        1.04929         30.6374         12.1087         12.1087 
        1.05541         30.5745         11.9424         11.9424 
        1.06154         30.3041         11.7789         11.7789 
        1.06769          29.864         11.6182         11.6182 
        1.07382          29.712         11.4611         11.4611 
        1.07993         29.4998         11.3072         11.3072 
        1.08607          29.228         11.1555         11.1555 
        1.09222         29.0428         11.0064         11.0064 
        1.09836         28.7611         10.8602         10.8602 
        1.10449         28.6184         10.7169         10.7169 
        1.11063         28.3036          10.576          10.576 
        1.11677          28.232         10.4377         10.4377 
         1.1229          27.917         10.3021         10.3021 
        1.12903         27.6978         10.1688         10.1688 
        1.13518         27.6198         10.0377         10.0377 
        1.14131         27.3173         9.90903         9.90903 
        1.14745         27.0483         9.78268         9.78268 
        1.15359         26.7541         9.65852         9.65852 
        1.15973          26.684         9.53646         9.53646 
        1.16584          26.464         9.41705         9.41705 
        1.17197         26.1464         9.29953         9.29953 
        1.17811         26.0228         9.18365         9.18365 
        1.18424         25.6624         9.07008         9.07008 
        1.19038         25.5839         8.95811         8.95811 
        1.19652         25.3963         8.84807         8.84807 
        1.20267         25.2584         8.73987         8.73987 
        1.20881         25.0449         8.63351         8.63351 
        1.21495         24.9536         8.52909         8.52909 
        1.22108         24.8299          8.4264          8.4264 
         1.2272         24.5651         8.32565         8.32565 
        1.23334         24.4241          8.2263          8.2263 
        1.23949         24.2327         8.12834         8.12834 
        1.24562         24.0204         8.03224         8.03224 
        1.25174         23.8725         7.93784         7.93784 
        1.25789         23.7654         7.84467         7.84467 
        1.26402         23.5958         7.75315         7.75315 
        1.27014         23.4551         7.66332         7.66332 
        1.27628         23.2061         7.57464         7.57464 
        1.28244          23.203          7.4872          7.4872 
        1.28858         22.9389         7.40125         7.40125 
        1.29471         22.7469         7.31684         7.31684 
        1.30084         22.5939         7.23382         7.23382 
        1.30697         22.5084         7.15197         7.15197 
        1.31312         22.3071         7.07127         7.07127 
        1.31925         22.1403         6.99206         6.99206 
        1.32537         21.9863         6.91415         6.91415 
        1.33151         21.8166         6.83714         6.83714 
        1.33765         21.7867         6.76136         6.76136 
        1.34378         21.6608         6.68687         6.68687 
        1.34992         21.4446         6.61344         6.61344 
        1.35606         21.2888         6.54097         6.54097 
         1.3622         21.1889          6.4697          6.4697 
        1.36833         21.1058         6.39967         6.39967 
        1.37445           20.91         6.33071         6.33071 
        1.38059         20.7828         6.26255         6.26255 
        1.38675         20.6525         6.19524         6.19524 
        1.39288         20.5154         6.12917         6.12917 
        1.39901         20.3722         6.06411         6.06411 
        1.40515         20.2785         5.99984         5.99984 
         1.4113         20.2069         5.93652         5.93652 
        1.41742         20.0732         5.87436         5.87436 
        1.42355          19.875         5.81298         5.81298 
         1.4297         19.7895         5.75228         5.75228 
        1.43585         19.6582         5.69248         5.69248 
        1.44198         19.5728         5.63375         5.63375 
        1.44809         19.4255         5.57596         5.57596 
        1.45423         19.3282         5.51876         5.51876 
        1.46036         19.2427         5.46247         5.46247 
        1.46649         19.0981         5.40695         5.40695 
        1.47263         18.9637         5.35215         5.35215 
        1.47877         18.8615         5.29813         5.29813 
        1.48491         18.7698         5.24476         5.24476 
        1.49104         18.6319         5.19225         5.19225 
        1.49718          18.614         5.14041         5.14041 
        1.50333         18.4954          5.0892          5.0892 
        1.50947          18.328         5.03878         5.03878 
         1.5156         18.2665         4.98912         4.98912 
        1.52172         18.1388         4.94013         4.94013 
        1.52787         18.0789          4.8917          4.8917 
          1.534         17.9416         4.84398         4.84398 
        1.54013         17.9119         4.79693         4.79693 
        1.54627         17.7348         4.75043         4.75043 
        1.55241         17.6382         4.70454         4.70454 
        1.55855         17.5645         4.65932         4.65932 
        1.56467         17.4667         4.61481         4.61481 
         1.5708         17.3727         4.57076         4.57076 
        1.57695         17.3101         4.52722         4.52722 
        1.58308         17.1381         4.48434         4.48434 
        1.58922          17.065         4.44199         4.44199 
        1.59535         16.9804          4.4002          4.4002 
         1.6015          16.913         4.35889         4.35889 
        1.60764         16.8058         4.31813         4.31813 
        1.61376         16.7193         4.27799         4.27799 
        1.61989         16.5716         4.23834         4.23834 
        1.62604         16.5118          4.1991          4.1991 
        1.63218         16.4394         4.16038         4.16038 
        1.63831         16.3462         4.12223         4.12223 
        1.64444         16.2649         4.08455         4.08455 
        1.65059         16.1799         4.04725         4.04725 
        1.65673         16.1003         4.01045         4.01045 
        1.66285         16.0189         3.97421         3.97421 
        1.66898         15.9267         3.93841         3.93841 
        1.67512         15.9009         3.90298         3.90298 
        1.68127         15.7898         3.86795         3.86795 
         1.6874         15.7105         3.83343         3.83343 
        1.69353         15.6066         3.79935         3.79935 
        1.69967         15.5224          3.7656          3.7656 
        1.70581         15.4558         3.73228         3.73228 
        1.71193         15.3666         3.69948         3.69948 
        1.71806         15.3065         3.66701         3.66701 
        1.72421         15.2325         3.63486         3.63486 
        1.73035         15.1427         3.60314         3.60314 
        1.73649         15.0569          3.5718          3.5718 
        1.74262         14.9852         3.54085         3.54085 
        1.74876         14.9238         3.51025         3.51025 
        1.75489          14.836         3.48008         3.48008 
        1.76101         14.7553         3.45026         3.45026 
        1.76715         14.7061         3.42076         3.42076 
        1.77329         14.6048         3.39156         3.39156 
        1.77943         14.5595         3.36269         3.36269 
        1.78557         14.5095          3.3342          3.3342 
        1.79171         14.4099         3.30603         3.30603 
        1.79785         14.3306         3.27818         3.27818 
        1.80399         14.2431         3.25065         3.25065 
        1.81012         14.2177         3.22348         3.22348 
        1.81625         14.1216         3.19663         3.19663 
        1.82239         14.0517         3.17004         3.17004 
        1.82853         13.9922         3.14377         3.14377 
        1.83466         13.9123         3.11782         3.11782 
        1.84078         13.8516         3.09219         3.09219 
        1.84692         13.8178         3.06681         3.06681 
        1.85306         13.7337         3.04168         3.04168 
         1.8592         13.6976         3.01687         3.01687 
        1.86533          13.595         2.99234         2.99234 
        1.87147         13.5153         2.96807         2.96807 
        1.87761         13.4669         2.94405         2.94405 
