# k  (h/Mpc)    Pcb(k)  (Mpc/h)^3    Pcb_linear(k) (Mpc/h)^3    Pcb_NL(k) (Mpc/h)^3   ShotnoiseSubtracted = false
     0.00783031         23468.8         23583.8         23583.8 
       0.013688         26617.2         27448.6         27448.6 
       0.019231         25986.3         26466.9         26466.9 
      0.0249154         23466.5         23362.8         23362.8 
      0.0312784         19152.9         19352.3         19352.3 
      0.0375637         15699.9         15985.5         15985.5 
      0.0433917         13668.1         13729.4         13729.4 
      0.0492413         12078.1         12216.9         12216.9 
      0.0555754         11080.6           11133           11133 
      0.0619321         9893.95         10278.3         10278.3 
       0.067871         9249.79         9457.75         9457.75 
      0.0738098         8473.14         8528.81         8528.81 
      0.0800417         7492.81         7480.42         7480.42 
      0.0862327          6515.5         6482.73         6482.73 
      0.0921407         5808.11         5676.62         5676.62 
      0.0982031         5283.71         5051.21         5051.21 
       0.104506         4747.84         4609.76         4609.76 
       0.110769         4476.94         4324.44         4324.44 
       0.116806         4308.96         4119.45         4119.45 
       0.122832         4066.26         3916.67         3916.67 
       0.129052         3787.36            3667            3667 
       0.135211         3625.46         3373.55         3373.55 
       0.141259            3287         3064.77         3064.77 
       0.147318         3013.54         2770.47         2770.47 
       0.153489          2807.5         2516.49         2516.49 
       0.159709         2697.68          2321.5          2321.5 
       0.165845         2488.05         2185.05         2185.05 
       0.171974         2428.14         2087.45         2087.45 
       0.178125         2360.37         2006.29         2006.29 
       0.184229         2172.64         1923.12         1923.12 
        0.19034         2135.34         1826.28         1826.28 
       0.196428         2060.63         1715.72         1715.72 
       0.202534         1926.06         1598.35         1598.35 
       0.208729          1876.3         1483.83         1483.83 
       0.214876         1777.21         1384.25         1384.25 
       0.220989         1696.36         1303.67         1303.67 
       0.227147         1645.73         1240.39         1240.39 
        0.23329         1581.56         1190.33         1190.33 
       0.239377         1574.95         1147.08         1147.08 
       0.245482         1500.88         1104.07         1104.07 
       0.251667         1445.82         1057.27         1057.27 
       0.257832         1415.31         1006.76         1006.76 
       0.263955         1350.33         954.757         954.757 
       0.270079         1312.16         904.138         904.138 
        0.27624         1257.64         857.566         857.566 
       0.282372         1243.05         817.275         817.275 
        0.28843         1213.04         783.492         783.492 
       0.294538         1161.23         754.255         754.255 
       0.300721         1140.61         727.682         727.682 
        0.30691         1107.18         702.125         702.125 
       0.313033         1066.91         676.604         676.604 
       0.319153         1056.15          650.39          650.39 
       0.325316         1040.16         623.729         623.729 
        0.33145         1013.67         597.755         597.755 
       0.337538         980.939         573.445         573.445 
       0.343633         958.775         551.177         551.177 
       0.349808         941.338         530.881         530.881 
       0.355968         920.864         512.649         512.649 
       0.362074          892.73         495.985         495.985 
       0.368217         887.732         480.076         480.076 
       0.374374         873.777         464.479         464.479 
       0.380519         843.433         449.044         449.044 
       0.386598         837.834         433.946         433.946 
       0.392688         815.306         419.148         419.148 
        0.39888         801.526         404.728         404.728 
       0.405048         782.169         391.202         391.202 
       0.411186         781.246          378.63          378.63 
       0.417313         771.278         366.953         366.953 
       0.423458         751.516         355.967         355.967 
       0.429607         731.791         345.492         345.492 
       0.435692         723.277         335.496         335.496 
       0.441815         709.589         325.711         325.711 
       0.447964         700.749           316.1           316.1 
       0.454126         691.242         306.726         306.726 
       0.460267         683.144         297.717         297.717 
       0.466387         667.793         289.121         289.121 
        0.47254         661.496         280.879         280.879 
       0.478662         648.936          273.09          273.09 
       0.484765         640.343         265.705         265.705 
       0.490885         635.948          258.62          258.62 
       0.497035         621.179         251.756         251.756 
       0.503198         619.906         245.096         245.096 
       0.509342         608.036          238.66          238.66 
       0.515458         596.766          232.45          232.45 
       0.521598          595.64         226.408         226.408 
       0.527764         581.606         220.547         220.547 
       0.533884          573.47         214.946         214.946 
           0.54         570.744         209.573         209.573 
       0.546137         561.748         204.395         204.395 
       0.552299         557.103         199.388         199.388 
       0.558452         549.609          194.56          194.56 
       0.564573          548.19         189.909         189.909 
       0.570708         539.652         185.392         185.392 
       0.576825         529.934         181.029         181.029 
       0.582926         528.047         176.813         176.813 
       0.589034         519.723         172.723         172.723 
       0.595184         514.432         168.735         168.735 
       0.601379         506.361         164.848         164.848 
       0.607522         498.816         161.117         161.117 
       0.613639         497.491         157.523         157.523 
       0.619772         493.035         154.035         154.035 
       0.625918         485.628          150.65          150.65 
       0.632068         483.901         147.367         147.367 
       0.638161         476.666          144.21          144.21 
         0.6443         471.133         141.121         141.121 
       0.650464          467.27         138.108         138.108 
       0.656582         462.705         135.203         135.203 
       0.662703         458.847          132.38          132.38 
       0.668861         452.473         129.622         129.622 
       0.675024         450.768         126.942         126.942 
       0.681124         440.494         124.366         124.366 
       0.687237          440.56         121.859         121.859 
       0.693381         434.154          119.41          119.41 
       0.699536         434.443         117.025         117.025 
       0.705665         426.857         114.717         114.717 
       0.711789         425.621         112.472         112.472 
       0.717957         420.674         110.272         110.272 
        0.72409         416.399         108.143         108.143 
       0.730186         415.998         106.083         106.083 
       0.736317         409.615         104.065         104.065 
       0.742472         405.718         102.093         102.093 
       0.748622         405.222         100.173         100.173 
        0.75476         397.859         98.3067         98.3067 
       0.760888         397.319         96.4912         96.4912 
       0.767043         393.748         94.7145         94.7145 
       0.773185         390.007         92.9866         92.9866 
       0.779291         386.602         91.3118         91.3118 
       0.785407         383.604          89.676          89.676 
       0.791564         381.883         88.0702         88.0702 
       0.797719         375.921         86.5048         86.5048 
       0.803834         375.415         84.9874         84.9874 
       0.809972         369.841         83.5011         83.5011 
       0.816124          367.64         82.0472         82.0472 
       0.822261         364.956          80.632          80.632 
       0.828378         363.093         79.2544         79.2544 
       0.834502         358.029          77.908          77.908 
       0.840667         355.909         76.5843         76.5843 
       0.846816         353.061         75.2952         75.2952 
       0.852925         353.301         74.0439         74.0439 
       0.859047         347.613         72.8186         72.8186 
       0.865192         346.247          71.617          71.617 
       0.871341         342.728         70.4419         70.4419 
       0.877463          341.23         69.2985         69.2985 
       0.883569          339.14         68.1835         68.1835 
       0.889708         334.944         67.0873         67.0873 
       0.895864         331.273         66.0126         66.0126 
       0.902008         330.352         64.9637         64.9637 
       0.908149         326.684         63.9383         63.9383 
       0.914301          325.78         62.9334         62.9334 
       0.920448         321.384         61.9511         61.9511 
       0.926574         319.739         60.9933         60.9933 
       0.932687         318.336         60.0577         60.0577 
       0.938823         315.439         59.1385         59.1385 
       0.944975         314.825         58.2365         58.2365 
       0.951105         311.965         57.3565         57.3565 
       0.957225         308.311         56.4962         56.4962 
       0.963368         308.059         55.6507         55.6507 
       0.969511         304.386         54.8224         54.8224 
       0.975621         301.506         54.0156         54.0156 
       0.981748         300.667         53.2229         53.2229 
       0.987916         298.582         52.4411         52.4411 
        0.99406         295.318          51.678          51.678 
        1.00019          292.48         50.9316         50.9316 
        1.00632         291.787         50.2007         50.2007 
        1.01246         289.472          49.483          49.483 
        1.01859         287.411         48.7805         48.7805 
        1.02471          285.58         48.0926         48.0926 
        1.03085         284.053         47.4155         47.4155 
        1.03698         281.539         46.7529         46.7529 
        1.04314         280.053         46.1001         46.1001 
        1.04929         278.472         45.4614         45.4614 
        1.05541         276.866         44.8373         44.8373 
        1.06154         273.516         44.2234         44.2234 
        1.06769         272.081         43.6201         43.6201 
        1.07382          269.64           43.03           43.03 
        1.07993          269.41         42.4522         42.4522 
        1.08607          267.22         41.8826         41.8826 
        1.09222         264.975          41.323          41.323 
        1.09836         263.307         40.7742         40.7742 
        1.10449         261.719          40.236          40.236 
        1.11063          260.44          39.707          39.707 
        1.11677         257.738         39.1877         39.1877 
         1.1229         256.836         38.6786         38.6786 
        1.12903         254.361         38.1781         38.1781 
        1.13518         252.774          37.686          37.686 
        1.14131         251.019         37.2029         37.2029 
        1.14745         249.299         36.7286         36.7286 
        1.15359         247.347         36.2624         36.2624 
        1.15973         246.261         35.8041         35.8041 
        1.16584          244.98         35.3559         35.3559 
        1.17197         243.183         34.9146         34.9146 
        1.17811         240.383         34.4795         34.4795 
        1.18424         239.438         34.0532         34.0532 
        1.19038         238.483         33.6328         33.6328 
        1.19652         235.899         33.2196         33.2196 
        1.20267         234.685         32.8134         32.8134 
        1.20881         233.574         32.4141         32.4141 
        1.21495         231.468          32.022          32.022 
        1.22108         230.419         31.6365         31.6365 
         1.2272          228.27         31.2582         31.2582 
        1.23334          226.48         30.8852         30.8852 
        1.23949          225.72         30.5174         30.5174 
        1.24562         223.728         30.1566         30.1566 
        1.25174         223.128         29.8022         29.8022 
        1.25789         221.001         29.4524         29.4524 
        1.26402         219.903         29.1088         29.1088 
        1.27014         218.514         28.7715         28.7715 
        1.27628         217.183         28.4386         28.4386 
        1.28244         214.951         28.1103         28.1103 
        1.28858         214.306         27.7876         27.7876 
        1.29471         212.774         27.4707         27.4707 
        1.30084         212.187          27.159          27.159 
        1.30697         210.079         26.8517         26.8517 
        1.31312         209.334         26.5487         26.5487 
        1.31925         207.837         26.2513         26.2513 
        1.32537         207.119         25.9588         25.9588 
        1.33151         204.682         25.6697         25.6697 
        1.33765         204.176         25.3852         25.3852 
        1.34378         202.871         25.1055         25.1055 
        1.34992         201.056         24.8298         24.8298 
        1.35606         199.759         24.5577         24.5577 
         1.3622         198.043         24.2902         24.2902 
        1.36833         197.976         24.0272         24.0272 
        1.37445         196.822         23.7683         23.7683 
        1.38059         194.507         23.5124         23.5124 
        1.38675         192.908         23.2597         23.2597 
        1.39288         192.647         23.0117         23.0117 
        1.39901         191.182         22.7674         22.7674 
        1.40515         189.866         22.5261         22.5261 
         1.4113         188.854         22.2884         22.2884 
        1.41742         187.537          22.055          22.055 
        1.42355         185.939         21.8245         21.8245 
         1.4297         185.069         21.5966         21.5966 
        1.43585         184.055         21.3721         21.3721 
        1.44198         182.808         21.1516         21.1516 
        1.44809         182.079         20.9346         20.9346 
        1.45423         180.713         20.7199         20.7199 
        1.46036         180.186         20.5086         20.5086 
        1.46649         178.575         20.3001         20.3001 
        1.47263         177.511         20.0944         20.0944 
        1.47877         176.171         19.8915         19.8915 
        1.48491           175.3         19.6912         19.6912 
        1.49104         173.657          19.494          19.494 
        1.49718         172.569         19.2994         19.2994 
        1.50333         171.771         19.1071         19.1071 
        1.50947         170.418         18.9178         18.9178 
         1.5156         169.612         18.7314         18.7314 
        1.52172         168.542         18.5475         18.5475 
        1.52787         167.491         18.3656         18.3656 
          1.534          166.84         18.1864         18.1864 
        1.54013         165.682         18.0098         18.0098 
        1.54627           164.5         17.8353         17.8353 
        1.55241          163.82         17.6629         17.6629 
        1.55855         162.569         17.4932         17.4932 
        1.56467         161.492         17.3261         17.3261 
         1.5708         160.775         17.1607         17.1607 
        1.57695         159.883         16.9972         16.9972 
        1.58308         158.816         16.8362         16.8362 
        1.58922         157.423         16.6772         16.6772 
        1.59535          156.59         16.5203         16.5203 
         1.6015         155.733         16.3652         16.3652 
        1.60764         154.704         16.2122         16.2122 
        1.61376         153.797         16.0615         16.0615 
        1.61989         152.836         15.9126         15.9126 
        1.62604         152.329         15.7653         15.7653 
        1.63218         150.928         15.6199         15.6199 
        1.63831         150.168         15.4767         15.4767 
        1.64444         149.334         15.3352         15.3352 
        1.65059         148.232         15.1952         15.1952 
        1.65673         147.226          15.057          15.057 
        1.66285         146.547          14.921          14.921 
        1.66898         145.576         14.7865         14.7865 
        1.67512         144.604         14.6535         14.6535 
        1.68127         143.707          14.522          14.522 
         1.6874         142.885         14.3924         14.3924 
        1.69353         142.317         14.2644         14.2644 
        1.69967         141.227         14.1377         14.1377 
        1.70581         140.325         14.0126         14.0126 
        1.71193          139.66         13.8895         13.8895 
        1.71806         138.756         13.7676         13.7676 
        1.72421         137.909         13.6469         13.6469 
        1.73035         137.186         13.5278         13.5278 
        1.73649         136.136         13.4101         13.4101 
        1.74262         135.372         13.2939         13.2939 
        1.74876         134.362          13.179          13.179 
        1.75489         133.832         13.0658         13.0658 
        1.76101         132.997         12.9538         12.9538 
        1.76715         132.293         12.8431         12.8431 
        1.77329         131.602         12.7334         12.7334 
        1.77943         130.514          12.625          12.625 
        1.78557         129.578         12.5181         12.5181 
        1.79171         128.797         12.4123         12.4123 
        1.79785         127.961         12.3077         12.3077 
        1.80399         127.349         12.2044         12.2044 
        1.81012         126.915         12.1024         12.1024 
        1.81625         125.741         12.0016         12.0016 
        1.82239         125.429         11.9017         11.9017 
        1.82853         124.378         11.8031         11.8031 
        1.83466          123.65         11.7057         11.7057 
        1.84078         123.055         11.6095         11.6095 
        1.84692         122.246         11.5142         11.5142 
        1.85306          121.48         11.4198         11.4198 
         1.8592         120.728         11.3267         11.3267 
        1.86533         119.844         11.2346         11.2346 
        1.87147         119.228         11.1434         11.1434 
