# k  (h/Mpc)    P(k)  (Mpc/h)^3    P_linear(k)  (Mpc/h)^3     P_NL(k)  ShotnoiseSubtracted = false
     0.00783031         12531.7         12603.4         12603.4 
       0.013688         14332.3         14672.1         14672.1 
       0.019231         13969.6         14148.7         14148.7 
      0.0249154         12548.9           12490           12490 
      0.0312784         10296.1         10346.4         10346.4 
      0.0375637         8454.19         8546.57         8546.57 
      0.0433917         7340.68         7340.46         7340.46 
      0.0492413          6492.9         6531.89         6531.89 
      0.0555754         5959.02         5952.44         5952.44 
      0.0619321         5356.95         5495.46         5495.46 
       0.067871         5000.47         5056.79         5056.79 
      0.0738098         4551.46         4560.13         4560.13 
      0.0800417         4021.42          3999.6          3999.6 
      0.0862327         3484.94         3466.16         3466.16 
      0.0921407          3080.7         3035.16         3035.16 
      0.0982031         2785.68         2700.77         2700.77 
       0.104506         2504.85         2464.74         2464.74 
       0.110769         2358.96         2312.19         2312.19 
       0.116806         2274.98         2202.59         2202.59 
       0.122832          2139.5         2094.17         2094.17 
       0.129052         2006.36         1960.68         1960.68 
       0.135211         1894.77         1803.78         1803.78 
       0.141259         1715.18         1638.68         1638.68 
       0.147318         1554.02         1481.32         1481.32 
       0.153489         1437.73         1345.53         1345.53 
       0.159709         1365.28         1241.27         1241.27 
       0.165845         1255.87         1168.31         1168.31 
       0.171974         1232.44         1116.12         1116.12 
       0.178125         1189.26         1072.73         1072.73 
       0.184229         1106.08         1028.26         1028.26 
        0.19034         1075.98         976.482         976.482 
       0.196428          1030.2         917.372         917.372 
       0.202534         949.343         854.611         854.611 
       0.208729         921.772         793.383         793.383 
       0.214876         872.776         740.136         740.136 
       0.220989         817.456         697.054         697.054 
       0.227147           796.5         663.216         663.216 
        0.23329         766.201         636.452         636.452 
       0.239377         756.247         613.325         613.325 
       0.245482         717.464         590.331         590.331 
       0.251667         688.401         565.306         565.306 
       0.257832         675.925         538.303         538.303 
       0.263955         637.211         510.495         510.495 
       0.270079         611.951         483.431         483.431 
        0.27624         584.568         458.528         458.528 
       0.282372         571.092         436.985         436.985 
        0.28843         564.228         418.922         418.922 
       0.294538          535.05         403.289         403.289 
       0.300721          520.04         389.082         389.082 
        0.30691         509.684         375.416         375.416 
       0.313033         485.913         361.771         361.771 
       0.319153         477.544         347.754         347.754 
       0.325316         468.048           333.5           333.5 
        0.33145         455.477         319.612         319.612 
       0.337538         438.018         306.613         306.613 
       0.343633         424.795         294.708         294.708 
       0.349808         413.855         283.855         283.855 
       0.355968         405.423         274.107         274.107 
       0.362074         390.832         265.197         265.197 
       0.368217         387.741          256.69          256.69 
       0.374374         379.816         248.351         248.351 
       0.380519         364.041         240.098         240.098 
       0.386598         359.289         232.025         232.025 
       0.392688         349.603         224.113         224.113 
        0.39888         340.672         216.402         216.402 
       0.405048         332.981         209.171         209.171 
       0.411186         331.484         202.448         202.448 
       0.417313         325.756         196.205         196.205 
       0.423458         316.838          190.33          190.33 
       0.429607          307.35          184.73          184.73 
       0.435692         302.349         179.385         179.385 
       0.441815         296.869         174.153         174.153 
       0.447964         289.103         169.014         169.014 
       0.454126         285.461         164.003         164.003 
       0.460267         280.775         159.185         159.185 
       0.466387         274.542         154.589         154.589 
        0.47254         270.858         150.183         150.183 
       0.478662         264.083         146.017         146.017 
       0.484765         260.245         142.069         142.069 
       0.490885         257.093         138.281         138.281 
       0.497035         252.001         134.611         134.611 
       0.503198         250.507         131.049         131.049 
       0.509342         244.296         127.609         127.609 
       0.515458         240.085         124.288         124.288 
       0.521598         235.318         121.058         121.058 
       0.527764         232.531         117.923         117.923 
       0.533884         230.724         114.928         114.928 
           0.54          226.49         112.056         112.056 
       0.546137         221.202         109.287         109.287 
       0.552299         219.656          106.61          106.61 
       0.558452         215.782         104.029         104.029 
       0.564573         214.301         101.542         101.542 
       0.570708         209.662         99.1266         99.1266 
       0.576825         206.263         96.7938         96.7938 
       0.582926           204.5         94.5396         94.5396 
       0.589034         200.941         92.3529         92.3529 
       0.595184         199.282         90.2206         90.2206 
       0.601379          195.95         88.1419         88.1419 
       0.607522         191.423         86.1472         86.1472 
       0.613639         190.426         84.2254         84.2254 
       0.619772         189.042         82.3607         82.3607 
       0.625918         186.175         80.5508         80.5508 
       0.632068         182.913         78.7952         78.7952 
       0.638161          181.66         77.1074         77.1074 
         0.6443         179.459         75.4556         75.4556 
       0.650464         176.306         73.8447         73.8447 
       0.656582         174.744         72.2915         72.2915 
       0.662703         173.403          70.782          70.782 
       0.668861         169.739         69.3073         69.3073 
       0.675024         169.317         67.8741         67.8741 
       0.681124         166.892          66.497          66.497 
       0.687237         165.355         65.1563         65.1563 
       0.693381         162.635          63.847          63.847 
       0.699536         161.606         62.5719         62.5719 
       0.705665         159.695         61.3374         61.3374 
       0.711789         157.404         60.1375         60.1375 
       0.717957         156.009         58.9613         58.9613 
        0.72409          153.87         57.8229         57.8229 
       0.730186         154.425         56.7213         56.7213 
       0.736317         151.946         55.6424         55.6424 
       0.742472         149.705         54.5876         54.5876 
       0.748622         147.552         53.5611         53.5611 
        0.75476         147.958         52.5634         52.5634 
       0.760888         145.863         51.5926         51.5926 
       0.767043         143.362         50.6427         50.6427 
       0.773185         141.972         49.7187         49.7187 
       0.779291         140.524         48.8232         48.8232 
       0.785407         139.519         47.9486         47.9486 
       0.791564         138.251           47.09           47.09 
       0.797719         135.967          46.253          46.253 
       0.803834         136.346         45.4417         45.4417 
       0.809972         134.694          44.647          44.647 
       0.816124         132.328         43.8696         43.8696 
       0.822261         131.567         43.1129         43.1129 
       0.828378          131.02         42.3763         42.3763 
       0.834502         129.474         41.6564         41.6564 
       0.840667         128.999         40.9487         40.9487 
       0.846816         126.837         40.2594         40.2594 
       0.852925           126.1         39.5903         39.5903 
       0.859047         124.821         38.9352         38.9352 
       0.865192         124.174         38.2927         38.2927 
       0.871341         122.866         37.6644         37.6644 
       0.877463         121.721          37.053          37.053 
       0.883569         121.535         36.4568         36.4568 
       0.889708         120.291         35.8707         35.8707 
       0.895864         118.991         35.2961         35.2961 
       0.902008         117.628         34.7353         34.7353 
       0.908149         116.441          34.187          34.187 
       0.914301         115.813         33.6497         33.6497 
       0.920448         115.789         33.1245         33.1245 
       0.926574         113.677         32.6123         32.6123 
       0.932687         113.529         32.1121         32.1121 
       0.938823         112.592         31.6206         31.6206 
       0.944975         111.722         31.1383         31.1383 
       0.951105         110.556         30.6678         30.6678 
       0.957225         109.979         30.2078         30.2078 
       0.963368         109.022         29.7557         29.7557 
       0.969511         108.027         29.3129         29.3129 
       0.975621         106.667         28.8814         28.8814 
       0.981748         106.245         28.4576         28.4576 
       0.987916         105.598         28.0396         28.0396 
        0.99406         104.947         27.6316         27.6316 
        1.00019         104.139         27.2325         27.2325 
        1.00632         103.173         26.8417         26.8417 
        1.01246         102.463         26.4579         26.4579 
        1.01859         101.808         26.0823         26.0823 
        1.02471         101.087         25.7145         25.7145 
        1.03085         100.192         25.3525         25.3525 
        1.03698         99.3819         24.9982         24.9982 
        1.04314         98.9746         24.6492         24.6492 
        1.04929         98.3654         24.3076         24.3076 
        1.05541         97.6111         23.9739         23.9739 
        1.06154         96.6243         23.6457         23.6457 
        1.06769         96.1535         23.3231         23.3231 
        1.07382         95.5822         23.0076         23.0076 
        1.07993         94.8717         22.6986         22.6986 
        1.08607         94.3899         22.3941         22.3941 
        1.09222         93.5482         22.0949         22.0949 
        1.09836         92.8868         21.8014         21.8014 
        1.10449         92.3253         21.5137         21.5137 
        1.11063          91.542         21.2308         21.2308 
        1.11677         91.1154         20.9532         20.9532 
         1.1229         90.1957          20.681          20.681 
        1.12903          89.623         20.4134         20.4134 
        1.13518         88.9368         20.1503         20.1503 
        1.14131         88.5789         19.8919         19.8919 
        1.14745         88.0369         19.6383         19.6383 
        1.15359         87.1595         19.3891         19.3891 
        1.15973         86.8637          19.144          19.144 
        1.16584         86.2021         18.9043         18.9043 
        1.17197         85.7962         18.6684         18.6684 
        1.17811         85.0412         18.4358         18.4358 
        1.18424         84.4783         18.2078         18.2078 
        1.19038         84.0718          17.983          17.983 
        1.19652         83.5651         17.7621         17.7621 
        1.20267         82.9362         17.5449         17.5449 
        1.20881          82.279         17.3314         17.3314 
        1.21495         81.9166         17.1218         17.1218 
        1.22108         81.4381         16.9156         16.9156 
         1.2272          80.912         16.7134         16.7134 
        1.23334         80.5909         16.5139         16.5139 
        1.23949              80         16.3173         16.3173 
        1.24562         79.2645         16.1244         16.1244 
        1.25174         79.1253         15.9349         15.9349 
        1.25789         78.4177         15.7478         15.7478 
        1.26402         78.1258         15.5641         15.5641 
        1.27014         77.3951         15.3838         15.3838 
        1.27628         77.0262         15.2058         15.2058 
        1.28244         76.8347         15.0302         15.0302 
        1.28858          76.107         14.8577         14.8577 
        1.29471         75.6616         14.6882         14.6882 
        1.30084         75.0123         14.5216         14.5216 
        1.30697         74.7877         14.3573         14.3573 
        1.31312         74.3232         14.1953         14.1953 
        1.31925         73.6903         14.0363         14.0363 
        1.32537         73.3743         13.8799         13.8799 
        1.33151         73.2427         13.7253         13.7253 
        1.33765         72.5492         13.5731         13.5731 
        1.34378         72.1949         13.4236         13.4236 
        1.34992         71.8816         13.2762         13.2762 
        1.35606         71.4003         13.1307         13.1307 
         1.3622         71.1832         12.9876         12.9876 
        1.36833         70.5374         12.8471         12.8471 
        1.37445         70.2213         12.7086         12.7086 
        1.38059         69.8221         12.5718         12.5718 
        1.38675         69.2575         12.4367         12.4367 
        1.39288         68.8702          12.304          12.304 
        1.39901         68.5185         12.1734         12.1734 
        1.40515         68.0825         12.0444         12.0444 
         1.4113         67.7355         11.9173         11.9173 
        1.41742         67.3776         11.7925         11.7925 
        1.42355          67.121         11.6693         11.6693 
         1.4297         66.6484         11.5475         11.5475 
        1.43585         66.3251         11.4274         11.4274 
        1.44198         65.7564         11.3095         11.3095 
        1.44809         65.2642         11.1935         11.1935 
        1.45423         65.3307         11.0787         11.0787 
        1.46036         64.7946         10.9657         10.9657 
        1.46649         64.3012         10.8542         10.8542 
        1.47263         63.9166         10.7442         10.7442 
        1.47877          63.653         10.6358         10.6358 
        1.48491         63.2207         10.5286         10.5286 
        1.49104         62.7914         10.4232         10.4232 
        1.49718         62.5305         10.3191         10.3191 
        1.50333         62.2913         10.2163         10.2163 
        1.50947         61.9735         10.1151         10.1151 
         1.5156         61.7521         10.0154         10.0154 
        1.52172         61.1177          9.9171          9.9171 
        1.52787         60.8697         9.81988         9.81988 
          1.534         60.4963         9.72407         9.72407 
        1.54013         60.3387         9.62964         9.62964 
        1.54627         59.7663         9.53629         9.53629 
        1.55241         59.7456         9.44416         9.44416 
        1.55855         59.0566         9.35337         9.35337 
        1.56467         58.6811         9.26403         9.26403 
         1.5708         58.4896          9.1756          9.1756 
        1.57695         58.1822         9.08819         9.08819 
        1.58308         57.9273         9.00212         9.00212 
        1.58922         57.6961          8.9171          8.9171 
        1.59535         57.5221         8.83321         8.83321 
         1.6015         57.0495         8.75028         8.75028 
        1.60764         56.7337         8.66845         8.66845 
        1.61376         56.5052         8.58789         8.58789 
        1.61989         55.9909         8.50828         8.50828 
        1.62604         55.8888         8.42951         8.42951 
        1.63218         55.5519         8.35177         8.35177 
        1.63831         55.2826          8.2752          8.2752 
        1.64444         55.0198         8.19955         8.19955 
        1.65059         54.6569         8.12467         8.12467 
        1.65673         54.4069          8.0508          8.0508 
        1.66285          54.022         7.97806         7.97806 
        1.66898          53.669         7.90619         7.90619 
        1.67512         53.3829         7.83506         7.83506 
        1.68127         53.2705         7.76474         7.76474 
         1.6874         52.9037         7.69544         7.69544 
        1.69353         52.6026         7.62702         7.62702 
        1.69967         52.3783         7.55928         7.55928 
        1.70581         52.0947         7.49238         7.49238 
        1.71193         51.7267         7.42654         7.42654 
        1.71806         51.5909         7.36136         7.36136 
        1.72421         51.2969         7.29683         7.29683 
        1.73035         51.0008         7.23314         7.23314 
        1.73649         50.7047         7.17022         7.17022 
        1.74262          50.391          7.1081          7.1081 
        1.74876         50.2839         7.04668         7.04668 
        1.75489         49.9603          6.9861          6.9861 
        1.76101         49.7329         6.92625         6.92625 
        1.76715         49.3994         6.86702         6.86702 
        1.77329         49.1467         6.80841         6.80841 
        1.77943         49.0502         6.75045         6.75045 
        1.78557         48.7294         6.69325         6.69325 
        1.79171         48.3639          6.6367          6.6367 
        1.79785         48.1913          6.5808          6.5808 
        1.80399         48.0007         6.52554         6.52554 
        1.81012         47.6615         6.47099         6.47099 
        1.81625         47.4675         6.41709         6.41709 
        1.82239         47.1358         6.36372         6.36372 
        1.82853         46.9842         6.31098         6.31098 
        1.83466         46.6551         6.25889         6.25889 
        1.84078         46.4196         6.20744         6.20744 
        1.84692         46.3717         6.15648         6.15648 
        1.85306         46.0812         6.10603         6.10603 
         1.8592         45.7668         6.05622         6.05622 
        1.86533         45.5858           6.007           6.007 
        1.87147         45.2963         5.95826         5.95826 
        1.87761          45.039         5.91005         5.91005 
