# k  (h/Mpc)    Pcb(k)  (Mpc/h)^3    Pcb_linear(k) (Mpc/h)^3    Pcb_NL(k) (Mpc/h)^3   ShotnoiseSubtracted = false
     0.00783031         426.274         429.834         429.834 
       0.013688         496.474         500.838         500.838 
       0.019231         481.598         483.141         483.141 
      0.0249154          426.87         426.582         426.582 
      0.0312784         353.792         353.409         353.409 
      0.0375637          292.03         291.953         291.953 
      0.0433917         251.445         250.763         250.763 
      0.0492413         223.309         223.147         223.147 
      0.0555754         203.832         203.357         203.357 
      0.0619321         186.986         187.748         187.748 
       0.067871          172.62         172.763         172.763 
      0.0738098         155.795         155.797         155.797 
      0.0800417         136.917         136.647         136.647 
      0.0862327         118.583         118.424         118.424 
      0.0921407         103.809         103.699         103.699 
      0.0982031         92.6418         92.2745         92.2745 
       0.104506         84.1545         84.2106         84.2106 
       0.110769         78.9593         78.9988         78.9988 
       0.116806         75.4153         75.2544         75.2544 
       0.122832         71.4502         71.5502         71.5502 
       0.129052         67.0422         66.9894         66.9894 
       0.135211         61.8088         61.6288         61.6288 
       0.141259         56.0542          55.988          55.988 
       0.147318         50.5779         50.6117         50.6117 
       0.153489         46.0628         45.9722         45.9722 
       0.159709         42.5711           42.41           42.41 
       0.165845         39.8398         39.9174         39.9174 
       0.171974         38.3107         38.1343         38.1343 
       0.178125         36.7602         36.6519         36.6519 
       0.184229         35.1267         35.1324         35.1324 
        0.19034         33.5084         33.3633         33.3633 
       0.196428         31.4552         31.3437         31.3437 
       0.202534         29.1475         29.1994         29.1994 
       0.208729         27.2269         27.1074         27.1074 
       0.214876          25.506         25.2882         25.2882 
       0.220989         23.8602         23.8162         23.8162 
       0.227147         22.8605         22.6601         22.6601 
        0.23329         21.9417         21.7456         21.7456 
       0.239377         21.1588         20.9555         20.9555 
       0.245482         20.3416         20.1699         20.1699 
       0.251667         19.4109         19.3148         19.3148 
       0.257832         18.5912         18.3922         18.3922 
       0.263955         17.5727         17.4421         17.4421 
       0.270079         16.6451         16.5174         16.5174 
        0.27624         15.7524         15.6666         15.6666 
       0.282372         15.0303         14.9305         14.9305 
        0.28843         14.4994         14.3133         14.3133 
       0.294538         13.9422         13.7792         13.7792 
       0.300721         13.3915         13.2938         13.2938 
        0.30691         12.9881         12.8269         12.8269 
       0.313033         12.4995         12.3607         12.3607 
       0.319153         12.1046         11.8818         11.8818 
       0.325316         11.5029         11.3947         11.3947 
        0.33145         11.0294         10.9202         10.9202 
       0.337538         10.6059         10.4761         10.4761 
       0.343633         10.2283         10.0693         10.0693 
       0.349808         9.83371          9.6985          9.6985 
       0.355968         9.48401         9.36544         9.36544 
       0.362074         9.21889         9.06101         9.06101 
       0.368217          8.9154         8.77037         8.77037 
       0.374374         8.66999         8.48543         8.48543 
       0.380519         8.33842         8.20345         8.20345 
       0.386598         8.04461         7.92764         7.92764 
       0.392688         7.75911          7.6573          7.6573 
        0.39888         7.52578         7.39386         7.39386 
       0.405048         7.28646         7.14675         7.14675 
       0.411186         7.04555         6.91709         6.91709 
       0.417313         6.83278         6.70376         6.70376 
       0.423458         6.60505         6.50306         6.50306 
       0.429607         6.44923         6.31171         6.31171 
       0.435692         6.27544         6.12909         6.12909 
       0.441815         6.07243         5.95033         5.95033 
       0.447964         5.86734         5.77474         5.77474 
       0.454126         5.72773          5.6035          5.6035 
       0.460267         5.58554         5.43892         5.43892 
       0.466387          5.4155         5.28188         5.28188 
        0.47254          5.2772         5.13131         5.13131 
       0.478662         5.12136           4.989           4.989 
       0.484765         4.98833          4.8541          4.8541 
       0.490885         4.84173         4.72467         4.72467 
       0.497035         4.70256         4.59926         4.59926 
       0.503198         4.60121         4.47759         4.47759 
       0.509342         4.46045         4.36003         4.36003 
       0.515458         4.36442         4.24657         4.24657 
       0.521598         4.25613         4.13619         4.13619 
       0.527764          4.1648         4.02911         4.02911 
       0.533884         4.03004         3.92679         3.92679 
           0.54         3.94231         3.82863         3.82863 
       0.546137         3.83185         3.73404         3.73404 
       0.552299         3.74843         3.64256         3.64256 
       0.558452         3.65748         3.55436         3.55436 
       0.564573         3.57594          3.4694          3.4694 
       0.570708         3.49335         3.38688         3.38688 
       0.576825         3.41438         3.30717         3.30717 
       0.582926         3.32787         3.23015         3.23015 
       0.589034         3.26412         3.15544         3.15544 
       0.595184         3.19897         3.08259         3.08259 
       0.601379         3.11345         3.01156         3.01156 
       0.607522         3.04211         2.94341         2.94341 
       0.613639          2.9678         2.87775         2.87775 
       0.619772         2.91495         2.81403         2.81403 
       0.625918         2.85052          2.7522          2.7522 
       0.632068         2.79351         2.69221         2.69221 
       0.638161         2.73062         2.63454         2.63454 
         0.6443         2.67137         2.57811         2.57811 
       0.650464         2.61616         2.52307         2.52307 
       0.656582          2.5717            2.47            2.47 
       0.662703          2.5173         2.41842         2.41842 
       0.668861         2.45226         2.36804         2.36804 
       0.675024         2.40686         2.31907         2.31907 
       0.681124         2.38184         2.27202         2.27202 
       0.687237         2.32243         2.22621         2.22621 
       0.693381         2.26435         2.18147         2.18147 
       0.699536         2.23371         2.13791         2.13791 
       0.705665          2.1899         2.09573         2.09573 
       0.711789         2.13741         2.05473         2.05473 
       0.717957         2.09801         2.01454         2.01454 
        0.72409         2.06087         1.97565         1.97565 
       0.730186         2.03337         1.93801         1.93801 
       0.736317          1.9842         1.90115         1.90115 
       0.742472         1.95521         1.86511         1.86511 
       0.748622         1.92047         1.83004         1.83004 
        0.75476         1.87603         1.79594         1.79594 
       0.760888         1.85032         1.76278         1.76278 
       0.767043         1.79986         1.73032         1.73032 
       0.773185         1.77555         1.69875         1.69875 
       0.779291         1.75637         1.66815         1.66815 
       0.785407         1.71923         1.63827         1.63827 
       0.791564         1.68768         1.60894         1.60894 
       0.797719         1.65813         1.58034         1.58034 
       0.803834         1.63011         1.55262         1.55262 
       0.809972         1.60167         1.52546         1.52546 
       0.816124         1.57417          1.4989          1.4989 
       0.822261         1.55018         1.47305         1.47305 
       0.828378         1.52224         1.44788         1.44788 
       0.834502         1.49635         1.42328         1.42328 
       0.840667         1.47592          1.3991          1.3991 
       0.846816         1.44867         1.37555         1.37555 
       0.852925         1.42292         1.35269         1.35269 
       0.859047         1.40034         1.33031         1.33031 
       0.865192         1.37816         1.30836         1.30836 
       0.871341         1.35877         1.28689         1.28689 
       0.877463         1.33236           1.266           1.266 
       0.883569         1.31308         1.24563         1.24563 
       0.889708         1.29523          1.2256          1.2256 
       0.895864         1.27488         1.20597         1.20597 
       0.902008         1.25071         1.18681         1.18681 
       0.908149         1.23452         1.16807         1.16807 
       0.914301         1.21786         1.14972         1.14972 
       0.920448         1.20045         1.13177         1.13177 
       0.926574         1.18527         1.11427         1.11427 
       0.932687         1.16589         1.09718         1.09718 
       0.938823         1.14283         1.08039         1.08039 
       0.944975         1.13043         1.06391         1.06391 
       0.951105         1.10738         1.04783         1.04783 
       0.957225         1.09425         1.03212         1.03212 
       0.963368         1.08085         1.01667         1.01667 
       0.969511         1.06655         1.00154         1.00154 
       0.975621         1.04698        0.986799        0.986799 
       0.981748         1.02797        0.972317        0.972317 
       0.987916         1.01595        0.958035        0.958035 
        0.99406         1.00466        0.944095        0.944095 
        1.00019        0.989789        0.930459        0.930459 
        1.00632        0.979179        0.917106        0.917106 
        1.01246        0.964068        0.903995        0.903995 
        1.01859        0.950923        0.891162        0.891162 
        1.02471         0.93424        0.878593        0.878593 
        1.03085        0.921212        0.866224        0.866224 
        1.03698        0.911155        0.854119        0.854119 
        1.04314        0.898178        0.842194        0.842194 
        1.04929         0.88881        0.830524        0.830524 
        1.05541        0.872572        0.819123        0.819123 
        1.06154        0.863637        0.807908        0.807908 
        1.06769        0.853332        0.796886        0.796886 
        1.07382        0.840584        0.786106        0.786106 
        1.07993        0.829571         0.77555         0.77555 
        1.08607        0.819935        0.765145        0.765145 
        1.09222        0.807395        0.754921        0.754921 
        1.09836        0.799569        0.744896        0.744896 
        1.10449        0.785835        0.735064        0.735064 
        1.11063         0.77598          0.7254          0.7254 
        1.11677        0.767957        0.715913        0.715913 
         1.1229        0.755372        0.706612        0.706612 
        1.12903        0.748597        0.697468        0.697468 
        1.13518        0.737767        0.688479        0.688479 
        1.14131        0.729479        0.679653        0.679653 
        1.14745        0.722336        0.670987        0.670987 
        1.15359        0.711564        0.662471        0.662471 
        1.15973        0.703675        0.654099        0.654099 
        1.16584         0.69422        0.645909        0.645909 
        1.17197        0.684668        0.637848        0.637848 
        1.17811        0.676238          0.6299          0.6299 
        1.18424        0.668487        0.622111        0.622111 
        1.19038        0.659423         0.61443         0.61443 
        1.19652        0.653967        0.606883        0.606883 
        1.20267        0.647157        0.599462        0.599462 
        1.20881         0.63603        0.592167        0.592167 
        1.21495        0.630148        0.585004        0.585004 
        1.22108        0.623194        0.577961        0.577961 
         1.2272        0.613921         0.57105         0.57105 
        1.23334        0.607899        0.564236        0.564236 
        1.23949        0.601807        0.557517        0.557517 
        1.24562        0.594503        0.550926        0.550926 
        1.25174        0.588362        0.544451        0.544451 
        1.25789        0.579321         0.53806         0.53806 
        1.26402        0.573971        0.531783        0.531783 
        1.27014        0.565486        0.525622        0.525622 
        1.27628        0.561253        0.519539        0.519539 
        1.28244        0.554577        0.513542        0.513542 
        1.28858        0.547347        0.507646        0.507646 
        1.29471        0.541396        0.501857        0.501857 
        1.30084        0.535849        0.496163        0.496163 
        1.30697        0.531668        0.490549        0.490549 
        1.31312        0.524939        0.485013        0.485013 
        1.31925        0.519033        0.479581        0.479581 
        1.32537        0.513576        0.474237        0.474237 
        1.33151        0.507604        0.468955        0.468955 
        1.33765         0.50208        0.463757        0.463757 
        1.34378         0.49609        0.458647        0.458647 
        1.34992        0.492514        0.453612        0.453612 
        1.35606        0.486036         0.44864         0.44864 
         1.3622        0.481376        0.443752        0.443752 
        1.36833        0.476753        0.438949        0.438949 
        1.37445         0.47156        0.434219        0.434219 
        1.38059        0.466638        0.429544        0.429544 
        1.38675         0.46132        0.424927        0.424927 
        1.39288        0.456167        0.420396        0.420396 
        1.39901        0.451999        0.415933        0.415933 
        1.40515        0.446984        0.411525        0.411525 
         1.4113        0.444064        0.407182        0.407182 
        1.41742        0.438563        0.402919        0.402919 
        1.42355        0.432425        0.398708        0.398708 
         1.4297        0.429851        0.394545        0.394545 
        1.43585         0.42454        0.390443        0.390443 
        1.44198        0.420981        0.386415        0.386415 
        1.44809        0.416203        0.382451        0.382451 
        1.45423        0.412249        0.378528        0.378528 
        1.46036        0.408186        0.374667        0.374667 
        1.46649        0.404029        0.370859        0.370859 
        1.47263        0.399244          0.3671          0.3671 
        1.47877        0.397838        0.363395        0.363395 
        1.48491        0.391194        0.359735        0.359735 
        1.49104        0.389681        0.356133        0.356133 
        1.49718        0.384193        0.352577        0.352577 
        1.50333        0.381324        0.349065        0.349065 
        1.50947        0.377852        0.345607        0.345607 
         1.5156        0.373974        0.342201        0.342201 
        1.52172        0.370675         0.33884         0.33884 
        1.52787        0.366146        0.335519        0.335519 
          1.534        0.363821        0.332245        0.332245 
        1.54013        0.360009        0.329019        0.329019 
        1.54627        0.356721        0.325829        0.325829 
        1.55241        0.353171        0.322681        0.322681 
        1.55855        0.349847        0.319579        0.319579 
        1.56467        0.346835        0.316527        0.316527 
         1.5708        0.343318        0.313505        0.313505 
        1.57695        0.339877        0.310519        0.310519 
        1.58308        0.336114        0.307578        0.307578 
        1.58922        0.334083        0.304673        0.304673 
        1.59535        0.330387        0.301807        0.301807 
         1.6015        0.327512        0.298973        0.298973 
        1.60764        0.324436        0.296177        0.296177 
        1.61376        0.321549        0.293425        0.293425 
        1.61989        0.318594        0.290705        0.290705 
        1.62604        0.315354        0.288014        0.288014 
        1.63218        0.313271        0.285358        0.285358 
        1.63831        0.309945        0.282741        0.282741 
        1.64444        0.307704        0.280157        0.280157 
        1.65059        0.304337        0.277598        0.277598 
        1.65673        0.301701        0.275074        0.275074 
        1.66285        0.299355        0.272589        0.272589 
        1.66898        0.296704        0.270133        0.270133 
        1.67512        0.293422        0.267703        0.267703 
        1.68127        0.290775          0.2653          0.2653 
         1.6874        0.289059        0.262932        0.262932 
        1.69353        0.285951        0.260595        0.260595 
        1.69967        0.283719         0.25828         0.25828 
        1.70581        0.281653        0.255994        0.255994 
        1.71193        0.279406        0.253745        0.253745 
        1.71806         0.27674        0.251518        0.251518 
        1.72421        0.274031        0.249313        0.249313 
        1.73035        0.271336        0.247137        0.247137 
        1.73649        0.270014        0.244987        0.244987 
        1.74262         0.26687        0.242865        0.242865 
        1.74876        0.265239        0.240766        0.240766 
        1.75489         0.26304        0.238696        0.238696 
        1.76101        0.260474        0.236651        0.236651 
        1.76715        0.258418        0.234628        0.234628 
        1.77329        0.256147        0.232625        0.232625 
        1.77943        0.253971        0.230645        0.230645 
        1.78557        0.252618        0.228691        0.228691 
        1.79171        0.250317        0.226758        0.226758 
        1.79785        0.247889        0.224848        0.224848 
        1.80399        0.245213         0.22296         0.22296 
        1.81012        0.243928        0.221096        0.221096 
        1.81625        0.242304        0.219255        0.219255 
        1.82239        0.240511        0.217431        0.217431 
        1.82853        0.237938        0.215629        0.215629 
        1.83466        0.236013        0.213849        0.213849 
        1.84078        0.233929        0.212091        0.212091 
        1.84692        0.232366         0.21035         0.21035 
        1.85306        0.230618        0.208627        0.208627 
         1.8592         0.22873        0.206925        0.206925 
        1.86533        0.227166        0.205243        0.205243 
        1.87147        0.224683        0.203578        0.203578 
