# k  (h/Mpc)    P(k)  (Mpc/h)^3    P_linear(k)  (Mpc/h)^3     P_NL(k)  ShotnoiseSubtracted = false
     0.00783031           17543         17635.7         17635.7 
       0.013688         19979.5         20527.8         20527.8 
       0.019231         19490.7         19794.6         19794.6 
      0.0249154         17555.9         17473.5         17473.5 
      0.0312784         14366.7         14474.2         14474.2 
      0.0375637         11785.8         11956.2         11956.2 
      0.0433917           10248         10268.9         10268.9 
      0.0492413         9059.48         9137.67         9137.67 
      0.0555754         8314.56         8327.02         8327.02 
      0.0619321         7447.39         7687.72         7687.72 
       0.067871         6959.03         7074.03         7074.03 
      0.0738098         6353.26         6379.23         6379.23 
      0.0800417         5616.69         5595.08         5595.08 
      0.0862327         4874.57         4848.85         4848.85 
      0.0921407         4326.61         4245.91         4245.91 
      0.0982031         3924.21         3778.13         3778.13 
       0.104506         3526.63         3447.95         3447.95 
       0.110769         3323.24         3234.54         3234.54 
       0.116806         3203.28         3081.22         3081.22 
       0.122832         3016.04         2929.54         2929.54 
       0.129052         2819.69          2742.8          2742.8 
       0.135211         2681.54         2523.31         2523.31 
       0.141259         2428.63         2292.35         2292.35 
       0.147318         2212.12         2072.22         2072.22 
       0.153489         2054.01         1882.26         1882.26 
       0.159709          1962.9         1736.41         1736.41 
       0.165845         1806.45         1634.35         1634.35 
       0.171974         1769.55         1561.35         1561.35 
       0.178125          1713.8         1500.65         1500.65 
       0.184229         1584.26         1438.43         1438.43 
        0.19034         1549.13            1366            1366 
       0.196428         1489.94         1283.31         1283.31 
       0.202534         1381.16         1195.51         1195.51 
       0.208729          1345.4         1109.86         1109.86 
       0.214876         1273.59         1035.38         1035.38 
       0.220989         1203.67         975.108         975.108 
       0.227147         1170.51         927.772         927.772 
        0.23329         1125.22         890.331         890.331 
       0.239377          1116.9         857.979         857.979 
       0.245482         1060.96         825.812         825.812 
       0.251667         1020.48         790.805         790.805 
       0.257832         1000.47         753.031         753.031 
       0.263955          948.98         714.131         714.131 
       0.270079         916.616          676.27          676.27 
        0.27624         876.965         641.433         641.433 
       0.282372         862.126         611.297         611.297 
        0.28843         847.447         586.029         586.029 
       0.294538         805.983          564.16          564.16 
       0.300721         788.218         544.285         544.285 
        0.30691          769.19         525.169         525.169 
       0.313033         735.989          506.08          506.08 
       0.319153         726.014         486.472         486.472 
       0.325316         714.742         466.532         466.532 
        0.33145         696.408         447.104         447.104 
       0.337538         671.102          428.92          428.92 
       0.343633         653.806         412.266         412.266 
       0.349808         639.233         397.083         397.083 
       0.355968         626.418         383.447         383.447 
       0.362074         603.433         370.983         370.983 
       0.368217         600.685         359.082         359.082 
       0.374374         591.119         347.418         347.418 
       0.380519         567.673         335.872         335.872 
       0.386598         562.473         324.579         324.579 
       0.392688         547.668         313.511         313.511 
        0.39888         534.751         302.724         302.724 
       0.405048         522.497         292.608         292.608 
       0.411186          521.76         283.204         283.204 
       0.417313         515.118         274.471         274.471 
       0.423458         500.894         266.253         266.253 
       0.429607         485.781         258.419         258.419 
       0.435692         479.423         250.941         250.941 
       0.441815         470.602         243.623         243.623 
       0.447964          461.55         236.434         236.434 
       0.454126         456.235         229.423         229.423 
       0.460267         448.717         222.684         222.684 
       0.466387         439.259         216.255         216.255 
        0.47254         433.767          210.09          210.09 
       0.478662         425.133         204.263         204.263 
       0.484765         419.009          198.74          198.74 
       0.490885         415.447         193.441         193.441 
       0.497035         405.538         188.306         188.306 
       0.503198         404.805         183.325         183.325 
       0.509342         396.337         178.511         178.511 
       0.515458         388.385         173.866         173.866 
       0.521598          384.68         169.347         169.347 
       0.527764         377.327         164.963         164.963 
       0.533884         373.558         160.773         160.773 
           0.54         369.454         156.755         156.755 
       0.546137         362.063         152.881         152.881 
       0.552299         360.433         149.136         149.136 
       0.558452         354.329         145.525         145.525 
       0.564573         351.974         142.046         142.046 
       0.570708         346.423         138.668         138.668 
       0.576825         339.927         135.404         135.404 
       0.582926         338.694         132.251         132.251 
       0.589034          332.21         129.192         129.192 
       0.595184         329.819         126.209         126.209 
       0.601379         324.297         123.301         123.301 
       0.607522         317.805         120.511         120.511 
       0.613639         316.816         117.823         117.823 
       0.619772         315.405         115.214         115.214 
       0.625918         308.679         112.682         112.682 
       0.632068         307.023         110.226         110.226 
       0.638161         303.948         107.865         107.865 
         0.6443         299.362         105.554         105.554 
       0.650464         296.273         103.301         103.301 
       0.656582         293.059         101.128         101.128 
       0.662703         291.404         99.0167         99.0167 
       0.668861         285.781         96.9537         96.9537 
       0.675024         284.732         94.9489         94.9489 
       0.681124         279.681         93.0224         93.0224 
       0.687237         278.678         91.1469         91.1469 
       0.693381         274.106         89.3153         89.3153 
       0.699536         273.546         87.5316         87.5316 
       0.705665         269.682         85.8047         85.8047 
       0.711789         267.145         84.1261         84.1261 
       0.717957         264.858         82.4807         82.4807 
        0.72409         261.182         80.8882         80.8882 
       0.730186         262.125         79.3472         79.3472 
       0.736317          257.48          77.838          77.838 
       0.742472         255.314         76.3624         76.3624 
       0.748622         253.089         74.9265         74.9265 
        0.75476         251.529         73.5307         73.5307 
       0.760888         248.757         72.1727         72.1727 
       0.767043         245.691         70.8438         70.8438 
       0.773185         243.626         69.5513         69.5513 
       0.779291         241.339         68.2986         68.2986 
       0.785407         239.587         67.0751         67.0751 
       0.791564         237.985         65.8741         65.8741 
       0.797719         234.049         64.7031         64.7031 
       0.803834         234.725         63.5682         63.5682 
       0.809972          231.05         62.4565         62.4565 
       0.816124         228.328          61.369          61.369 
       0.822261         226.683         60.3104         60.3104 
       0.828378          225.67         59.2801         59.2801 
       0.834502         222.503          58.273          58.273 
       0.840667         222.531         57.2829         57.2829 
       0.846816         218.412         56.3186         56.3186 
       0.852925         218.544         55.3827         55.3827 
       0.859047         216.111         54.4662         54.4662 
       0.865192         215.175         53.5675         53.5675 
       0.871341         212.583         52.6885         52.6885 
       0.877463         211.123         51.8333         51.8333 
       0.883569          210.07         50.9993         50.9993 
       0.889708         208.162         50.1794         50.1794 
       0.895864         205.367         49.3755         49.3755 
       0.902008          204.13          48.591          48.591 
       0.908149         202.264          47.824          47.824 
       0.914301         201.021         47.0724         47.0724 
       0.920448         199.857         46.3377         46.3377 
       0.926574         197.864         45.6212         45.6212 
       0.932687         197.594         44.9215         44.9215 
       0.938823         195.302          44.234          44.234 
       0.944975         194.886         43.5592         43.5592 
       0.951105          192.48          42.901          42.901 
       0.957225         190.817         42.2576         42.2576 
       0.963368         190.783         41.6251         41.6251 
       0.969511         187.646         41.0056         41.0056 
       0.975621         185.694         40.4021         40.4021 
       0.981748         185.583         39.8092         39.8092 
       0.987916         184.477         39.2245         39.2245 
        0.99406         182.602         38.6537         38.6537 
        1.00019         181.546         38.0954         38.0954 
        1.00632         180.543         37.5487         37.5487 
        1.01246         179.106         37.0119         37.0119 
        1.01859         177.145         36.4865         36.4865 
        1.02471         175.852         35.9719         35.9719 
        1.03085         174.736         35.4655         35.4655 
        1.03698         174.215         34.9698         34.9698 
        1.04314         173.277         34.4816         34.4816 
        1.04929         171.935         34.0038         34.0038 
        1.05541         171.173          33.537          33.537 
        1.06154         169.368         33.0778         33.0778 
        1.06769         168.324         32.6266         32.6266 
        1.07382         166.853         32.1852         32.1852 
        1.07993         165.762          31.753          31.753 
        1.08607         165.235          31.327          31.327 
        1.09222         163.462         30.9084         30.9084 
        1.09836         162.748          30.498          30.498 
        1.10449         161.773         30.0954         30.0954 
        1.11063         160.312         29.6997         29.6997 
        1.11677         159.224         29.3113         29.3113 
         1.1229           158.8         28.9305         28.9305 
        1.12903         156.917         28.5561         28.5561 
        1.13518         156.105         28.1881         28.1881 
        1.14131          155.46         27.8268         27.8268 
        1.14745         153.755         27.4719         27.4719 
        1.15359         152.934         27.1233         27.1233 
        1.15973         152.324         26.7805         26.7805 
        1.16584         151.243         26.4452         26.4452 
        1.17197         150.557         26.1151         26.1151 
        1.17811         149.059         25.7897         25.7897 
        1.18424         148.192         25.4708         25.4708 
        1.19038         147.576         25.1564         25.1564 
        1.19652          145.84         24.8473         24.8473 
        1.20267         145.226         24.5435         24.5435 
        1.20881         144.163         24.2448         24.2448 
        1.21495         143.937         23.9516         23.9516 
        1.22108         142.642         23.6632         23.6632 
         1.2272         141.842         23.3803         23.3803 
        1.23334         140.757         23.1013         23.1013 
        1.23949         140.071         22.8262         22.8262 
        1.24562         138.991         22.5563         22.5563 
        1.25174         138.591         22.2912         22.2912 
        1.25789         137.297         22.0296         22.0296 
        1.26402         136.692         21.7726         21.7726 
        1.27014         135.926         21.5203         21.5203 
        1.27628         135.269         21.2713         21.2713 
        1.28244          133.98         21.0257         21.0257 
        1.28858         133.269         20.7843         20.7843 
        1.29471         132.197         20.5473         20.5473 
        1.30084         131.626         20.3142         20.3142 
        1.30697         130.651         20.0843         20.0843 
        1.31312         130.062         19.8577         19.8577 
        1.31925         128.908         19.6353         19.6353 
        1.32537         128.536         19.4165         19.4165 
        1.33151         127.464         19.2002         19.2002 
        1.33765         126.866         18.9874         18.9874 
        1.34378         126.399         18.7782         18.7782 
        1.34992         125.272          18.572          18.572 
        1.35606         124.742         18.3685         18.3685 
         1.3622         123.816         18.1684         18.1684 
        1.36833          123.06         17.9717         17.9717 
        1.37445         122.601          17.778          17.778 
        1.38059         121.526         17.5866         17.5866 
        1.38675          120.88         17.3976         17.3976 
        1.39288         120.081         17.2121         17.2121 
        1.39901         119.163         17.0294         17.0294 
        1.40515         118.715         16.8489         16.8489 
         1.4113         117.991         16.6711         16.6711 
        1.41742         117.377         16.4965         16.4965 
        1.42355         116.673         16.3241         16.3241 
         1.4297         115.897         16.1537         16.1537 
        1.43585         115.398         15.9857         15.9857 
        1.44198         114.357         15.8208         15.8208 
        1.44809         113.936         15.6585         15.6585 
        1.45423         113.407         15.4979         15.4979 
        1.46036         112.534         15.3398         15.3398 
        1.46649         111.736         15.1839         15.1839 
        1.47263         111.231           15.03           15.03 
        1.47877         110.537         14.8783         14.8783 
        1.48491         109.798         14.7285         14.7285 
        1.49104         108.941          14.581          14.581 
        1.49718         108.505         14.4354         14.4354 
        1.50333         107.662         14.2916         14.2916 
        1.50947           107.4           14.15           14.15 
         1.5156         106.506         14.0106         14.0106 
        1.52172         105.864          13.873          13.873 
        1.52787         105.544          13.737          13.737 
          1.534         104.879          13.603          13.603 
        1.54013         104.024         13.4709         13.4709 
        1.54627         103.532         13.3403         13.3403 
        1.55241         103.083         13.2114         13.2114 
        1.55855          102.35         13.0844         13.0844 
        1.56467         101.828         12.9594         12.9594 
         1.5708         100.931         12.8357         12.8357 
        1.57695         100.713         12.7134         12.7134 
        1.58308         99.8817          12.593          12.593 
        1.58922         99.4067         12.4741         12.4741 
        1.59535         99.0076         12.3567         12.3567 
         1.6015         98.1772         12.2407         12.2407 
        1.60764         97.6162         12.1262         12.1262 
        1.61376         97.2462         12.0136         12.0136 
        1.61989         96.7197         11.9022         11.9022 
        1.62604          96.002          11.792          11.792 
        1.63218         95.5142         11.6833         11.6833 
        1.63831         94.8771         11.5761         11.5761 
        1.64444         94.1889         11.4703         11.4703 
        1.65059         93.8476         11.3656         11.3656 
        1.65673         93.4913         11.2622         11.2622 
        1.66285         93.0895         11.1605         11.1605 
        1.66898         92.2705         11.0599         11.0599 
        1.67512         91.4582         10.9604         10.9604 
        1.68127         91.3655         10.8621         10.8621 
         1.6874         90.7745         10.7651         10.7651 
        1.69353          90.159         10.6694         10.6694 
        1.69967         89.6261         10.5746         10.5746 
        1.70581         89.2053         10.4811         10.4811 
        1.71193         88.6739          10.389          10.389 
        1.71806         87.8844         10.2978         10.2978 
        1.72421         87.4694         10.2075         10.2075 
        1.73035          87.049         10.1184         10.1184 
        1.73649         86.6342         10.0304         10.0304 
        1.74262          86.102         9.94349         9.94349 
        1.74876         85.4369         9.85756         9.85756 
        1.75489         85.3545         9.77282         9.77282 
        1.76101          84.776          9.6891          9.6891 
        1.76715         84.0859         9.60624         9.60624 
        1.77329         83.6282         9.52425         9.52425 
        1.77943         83.1707         9.44317         9.44317 
        1.78557         82.8303         9.36316         9.36316 
        1.79171         82.2301         9.28405         9.28405 
        1.79785         81.7262         9.20584         9.20584 
        1.80399         81.2823         9.12855         9.12855 
        1.81012          80.737         9.05224         9.05224 
        1.81625         80.3172         8.97684         8.97684 
        1.82239         79.9917         8.90217         8.90217 
        1.82853         79.3168          8.8284          8.8284 
        1.83466         78.7772         8.75553         8.75553 
        1.84078         78.6589         8.68355         8.68355 
        1.84692         78.3018         8.61227         8.61227 
        1.85306         77.8154         8.54169         8.54169 
         1.8592         77.4351         8.47202         8.47202 
        1.86533         76.9004         8.40316         8.40316 
        1.87147         76.4258         8.33499         8.33499 
        1.87761         75.8767         8.26754         8.26754 
