# k  (h/Mpc)    Pcb(k)  (Mpc/h)^3    Pcb_linear(k) (Mpc/h)^3    Pcb_NL(k) (Mpc/h)^3   ShotnoiseSubtracted = false
     0.00783031         8204.27         8255.57         8255.57 
       0.013688         9424.51         9611.99         9611.99 
       0.019231         9176.84         9269.69         9269.69 
      0.0249154         8218.97         8183.28         8183.28 
      0.0312784         6761.26         6778.92         6778.92 
      0.0375637         5557.73         5599.78         5599.78 
      0.0433917         4817.52         4809.57         4809.57 
      0.0492413         4264.29         4279.81         4279.81 
      0.0555754         3911.69         3900.17         3900.17 
      0.0619321         3531.53         3600.76         3600.76 
       0.067871         3290.89         3313.34         3313.34 
      0.0738098         2987.21         2987.92         2987.92 
      0.0800417         2636.93         2620.65         2620.65 
      0.0862327         2282.71         2271.13         2271.13 
      0.0921407         2010.42         1988.73         1988.73 
      0.0982031         1812.03         1769.63         1769.63 
       0.104506         1631.37         1614.98         1614.98 
       0.110769         1535.24         1515.02         1515.02 
       0.116806          1479.6         1443.21         1443.21 
       0.122832         1391.57         1372.17         1372.17 
       0.129052         1307.82          1284.7          1284.7 
       0.135211         1226.11          1181.9          1181.9 
       0.141259         1109.66         1073.72         1073.72 
       0.147318          1001.6         970.611         970.611 
       0.153489         922.897         881.634         881.634 
       0.159709         870.037         813.319         813.319 
       0.165845         801.566         765.518         765.518 
       0.171974         785.963         731.323         731.323 
       0.178125         755.959         702.892         702.892 
       0.184229         708.416         673.752         673.752 
        0.19034         685.556         639.825         639.825 
       0.196428         652.648         601.093         601.093 
       0.202534         599.614         559.971         559.971 
       0.208729          578.08         519.852         519.852 
       0.214876         547.305         484.963         484.963 
       0.220989         509.134         456.734         456.734 
       0.227147         496.221         434.563         434.563 
        0.23329         477.555         417.026         417.026 
       0.239377         467.996         401.872         401.872 
       0.245482          444.55         386.806         386.806 
       0.251667         425.179         370.409         370.409 
       0.257832         417.131         352.715         352.715 
       0.263955         391.397         334.494         334.494 
       0.270079         373.997          316.76          316.76 
        0.27624         356.541         300.444         300.444 
       0.282372         345.891         286.328         286.328 
        0.28843         342.025         274.493         274.493 
       0.294538         324.772          264.25          264.25 
       0.300721         313.314          254.94          254.94 
        0.30691         307.691         245.986         245.986 
       0.313033         293.273         237.045         237.045 
       0.319153         287.461         227.861         227.861 
       0.325316          279.09         218.521         218.521 
        0.33145         270.516         209.421         209.421 
       0.337538         260.196         200.904         200.904 
       0.343633         251.488         193.103         193.103 
       0.349808         244.074         185.992         185.992 
       0.355968         238.408         179.605         179.605 
       0.362074         231.383         173.766         173.766 
       0.368217         227.701         168.193         168.193 
       0.374374         221.883         162.728         162.728 
       0.380519         212.534         157.321         157.321 
       0.386598         208.581         152.031         152.031 
       0.392688         202.309         146.847         146.847 
        0.39888         197.803         141.795         141.795 
       0.405048         193.016         137.056         137.056 
       0.411186         190.609         132.652         132.652 
       0.417313         186.159          128.56          128.56 
       0.423458         181.249         124.711         124.711 
       0.429607         176.448         121.042         121.042 
       0.435692         173.334          117.54          117.54 
       0.441815         169.248         114.112         114.112 
       0.447964          163.89         110.744         110.744 
       0.454126         161.079          107.46          107.46 
       0.460267         159.152         104.304         104.304 
       0.466387         155.226         101.293         101.293 
        0.47254         153.221          98.405          98.405 
       0.478662          148.19         95.6759         95.6759 
       0.484765         145.993         93.0888         93.0888 
       0.490885          143.27         90.6067         90.6067 
       0.497035         141.491         88.2017         88.2017 
       0.503198         139.098         85.8683         85.8683 
       0.509342         135.367         83.6137         83.6137 
       0.515458          133.23          81.438          81.438 
       0.521598         129.889         79.3212         79.3212 
       0.527764         128.641         77.2676         77.2676 
       0.533884         127.592         75.3054         75.3054 
           0.54          124.16          73.423          73.423 
       0.546137         121.223         71.6089         71.6089 
       0.552299         119.488         69.8547         69.8547 
       0.558452         117.333         68.1633         68.1633 
       0.564573         116.612         66.5339         66.5339 
       0.570708         113.402         64.9513         64.9513 
       0.576825         111.973         63.4228         63.4228 
       0.582926           110.7         61.9458         61.9458 
       0.589034         108.698          60.513          60.513 
       0.595184         107.364         59.1158         59.1158 
       0.601379         105.095         57.7538         57.7538 
       0.607522          102.91         56.4467         56.4467 
       0.613639          102.05         55.1875         55.1875 
       0.619772          100.41         53.9657         53.9657 
       0.625918         99.5351         52.7798         52.7798 
       0.632068         97.2415         51.6295         51.6295 
       0.638161         95.9979         50.5235         50.5235 
         0.6443         95.3678         49.4412         49.4412 
       0.650464         93.1957         48.3857         48.3857 
       0.656582         92.7515          47.368          47.368 
       0.662703          91.453         46.3789         46.3789 
       0.668861         89.4699         45.4127         45.4127 
       0.675024           89.34         44.4736         44.4736 
       0.681124         87.7801         43.5712         43.5712 
       0.687237          86.361         42.6927         42.6927 
       0.693381         85.4681         41.8349         41.8349 
       0.699536         84.4355         40.9994         40.9994 
       0.705665         83.2814         40.1905         40.1905 
       0.711789         82.0188         39.4042         39.4042 
       0.717957         80.9773         38.6335         38.6335 
        0.72409         80.1421         37.8876         37.8876 
       0.730186         79.7712         37.1659         37.1659 
       0.736317         78.4533         36.4589         36.4589 
       0.742472         77.1356         35.7678         35.7678 
       0.748622         75.9496         35.0952         35.0952 
        0.75476         75.8355         34.4414         34.4414 
       0.760888          75.155         33.8053         33.8053 
       0.767043         73.5932         33.1829         33.1829 
       0.773185         72.5958         32.5775         32.5775 
       0.779291         71.8234         31.9907         31.9907 
       0.785407         71.0519         31.4177         31.4177 
       0.791564         70.6796         30.8551         30.8551 
       0.797719         69.5276         30.3066         30.3066 
       0.803834         69.1555          29.775          29.775 
       0.809972         68.5025         29.2543         29.2543 
       0.816124         67.4774          28.745          28.745 
       0.822261         66.6234         28.2491         28.2491 
       0.828378         66.4494         27.7665         27.7665 
       0.834502         65.5224         27.2948         27.2948 
       0.840667         64.9836          26.831          26.831 
       0.846816         64.2838         26.3794         26.3794 
       0.852925         63.4908          25.941          25.941 
       0.859047         63.1694         25.5117         25.5117 
       0.865192         62.2826         25.0908         25.0908 
       0.871341         61.6316         24.6791         24.6791 
       0.877463          61.078         24.2785         24.2785 
       0.883569         60.9263         23.8878         23.8878 
       0.889708         60.2446         23.5038         23.5038 
       0.895864         59.7389         23.1273         23.1273 
       0.902008         59.0011         22.7598         22.7598 
       0.908149         58.2556         22.4005         22.4005 
       0.914301          57.981         22.0485         22.0485 
       0.920448         57.8483         21.7044         21.7044 
       0.926574         56.5756         21.3688         21.3688 
       0.932687         56.3354          21.041          21.041 
       0.938823         55.8535          20.719          20.719 
       0.944975         55.1455         20.4029         20.4029 
       0.951105         54.6993         20.0946         20.0946 
       0.957225         54.4719         19.7932         19.7932 
       0.963368         53.8864          19.497          19.497 
       0.969511          53.466         19.2069         19.2069 
       0.975621         52.9104         18.9242         18.9242 
       0.981748          52.448         18.6464         18.6464 
       0.987916         51.9963         18.3726         18.3726 
        0.99406         51.7685         18.1052         18.1052 
        1.00019         51.0854         17.8437         17.8437 
        1.00632         50.6797         17.5876         17.5876 
        1.01246         50.3473         17.3362         17.3362 
        1.01859         50.0712         17.0901         17.0901 
        1.02471         49.5388         16.8491         16.8491 
        1.03085         49.1095         16.6119         16.6119 
        1.03698         48.7925         16.3797         16.3797 
        1.04314         48.3761          16.151          16.151 
        1.04929         47.9171         15.9272         15.9272 
        1.05541         47.6697         15.7086         15.7086 
        1.06154         47.2892         15.4935         15.4935 
        1.06769         46.8127         15.2821         15.2821 
        1.07382         46.3814         15.0754         15.0754 
        1.07993         46.2114          14.873          14.873 
        1.08607         45.8103         14.6734         14.6734 
        1.09222         45.5767         14.4774         14.4774 
        1.09836         45.1821         14.2851         14.2851 
        1.10449         44.8916         14.0966         14.0966 
        1.11063         44.4674         13.9112         13.9112 
        1.11677         44.3079         13.7293         13.7293 
         1.1229         43.8221         13.5509         13.5509 
        1.12903         43.6178         13.3756         13.3756 
        1.13518         43.4143         13.2032         13.2032 
        1.14131         42.9824         13.0339         13.0339 
        1.14745         42.6806         12.8677         12.8677 
        1.15359         42.1531         12.7044         12.7044 
        1.15973         42.1545         12.5439         12.5439 
        1.16584         41.7932         12.3868         12.3868 
        1.17197         41.3793         12.2322         12.2322 
        1.17811          41.156         12.0798         12.0798 
        1.18424         40.5833         11.9304         11.9304 
        1.19038          40.484         11.7831         11.7831 
        1.19652         40.2888         11.6384         11.6384 
        1.20267         39.9477         11.4961         11.4961 
        1.20881          39.687         11.3562         11.3562 
        1.21495         39.5083         11.2188         11.2188 
        1.22108         39.3882         11.0837         11.0837 
         1.2272         38.9076         10.9512         10.9512 
        1.23334         38.7347         10.8205         10.8205 
        1.23949         38.4761         10.6917         10.6917 
        1.24562          38.186         10.5653         10.5653 
        1.25174         37.9378         10.4411         10.4411 
        1.25789         37.8023         10.3185         10.3185 
        1.26402         37.5172         10.1982         10.1982 
        1.27014         37.3801           10.08           10.08 
        1.27628         36.9607         9.96337         9.96337 
        1.28244         36.9529         9.84835         9.84835 
        1.28858         36.5674         9.73529         9.73529 
        1.29471         36.2613         9.62426         9.62426 
        1.30084         35.9556         9.51507         9.51507 
        1.30697         35.9976         9.40741         9.40741 
        1.31312         35.6679         9.30125         9.30125 
        1.31925         35.3642         9.19707         9.19707 
        1.32537         35.1636         9.09458         9.09458 
        1.33151         34.9177         8.99329         8.99329 
        1.33765         34.8003         8.89361         8.89361 
        1.34378         34.6182         8.79562         8.79562 
        1.34992         34.3367         8.69905         8.69905 
        1.35606         34.0476         8.60371         8.60371 
         1.3622          33.945         8.50998         8.50998 
        1.36833         33.8239         8.41786         8.41786 
        1.37445          33.451         8.32715         8.32715 
        1.38059          33.333          8.2375          8.2375 
        1.38675         33.0571         8.14895         8.14895 
        1.39288         32.9692         8.06206         8.06206 
        1.39901         32.6809         7.97647         7.97647 
        1.40515         32.5664         7.89194         7.89194 
         1.4113         32.4754         7.80866         7.80866 
        1.41742         32.2116         7.72689         7.72689 
        1.42355         31.9598         7.64615         7.64615 
         1.4297          31.883         7.56631         7.56631 
        1.43585         31.6504         7.48765         7.48765 
        1.44198         31.4192          7.4104          7.4104 
        1.44809         31.1879         7.33438         7.33438 
        1.45423         31.0955         7.25915         7.25915 
        1.46036         30.9805         7.18511         7.18511 
        1.46649         30.7265         7.11207         7.11207 
        1.47263         30.5634         7.03999         7.03999 
        1.47877         30.4067         6.96893         6.96893 
        1.48491          30.234         6.89875         6.89875 
        1.49104         30.0083         6.82967         6.82967 
        1.49718         29.9433         6.76148         6.76148 
        1.50333         29.8002         6.69412         6.69412 
        1.50947         29.5359          6.6278          6.6278 
         1.5156         29.4577         6.56248         6.56248 
        1.52172          29.222         6.49804         6.49804 
        1.52787         29.1576         6.43434         6.43434 
          1.534         28.8947         6.37156         6.37156 
        1.54013         28.9273         6.30969         6.30969 
        1.54627         28.6293         6.24852         6.24852 
        1.55241         28.4791         6.18816         6.18816 
        1.55855         28.3611         6.12867         6.12867 
        1.56467         28.1481         6.07013         6.07013 
         1.5708         28.0962         6.01219         6.01219 
        1.57695         27.9529         5.95491         5.95491 
        1.58308         27.7087         5.89852         5.89852 
        1.58922         27.5716         5.84281         5.84281 
        1.59535         27.4883         5.78784         5.78784 
         1.6015         27.4275          5.7335          5.7335 
        1.60764         27.1558         5.67988         5.67988 
        1.61376         27.0151          5.6271          5.6271 
        1.61989          26.836         5.57494         5.57494 
        1.62604         26.7163         5.52332         5.52332 
        1.63218          26.531         5.47239         5.47239 
        1.63831         26.4747         5.42221         5.42221 
        1.64444         26.3418         5.37265         5.37265 
        1.65059          26.169         5.32358         5.32358 
        1.65673          26.071         5.27518         5.27518 
        1.66285         25.9745         5.22751         5.22751 
        1.66898         25.7881         5.18042         5.18042 
        1.67512         25.6917         5.13382         5.13382 
        1.68127         25.5433         5.08774         5.08774 
         1.6874         25.4373         5.04233         5.04233 
        1.69353         25.3186          4.9975          4.9975 
        1.69967         25.2076         4.95311         4.95311 
        1.70581         25.0372         4.90928         4.90928 
        1.71193         24.9189         4.86614         4.86614 
        1.71806         24.8393         4.82343         4.82343 
        1.72421         24.6774         4.78115         4.78115 
        1.73035         24.5528         4.73942         4.73942 
        1.73649         24.3933         4.69819         4.69819 
        1.74262         24.2404         4.65749         4.65749 
        1.74876         24.2691         4.61724         4.61724 
        1.75489         24.0498         4.57755         4.57755 
        1.76101         23.9839         4.53833         4.53833 
        1.76715         23.8279         4.49952         4.49952 
        1.77329         23.6496         4.46112         4.46112 
        1.77943         23.6429         4.42314         4.42314 
        1.78557         23.5572         4.38566         4.38566 
        1.79171         23.4067         4.34861         4.34861 
        1.79785         23.3013         4.31198         4.31198 
        1.80399         23.1516         4.27577         4.27577 
        1.81012         23.0962         4.24003         4.24003 
        1.81625         22.8758         4.20471         4.20471 
        1.82239         22.8091         4.16974         4.16974 
        1.82853         22.7197         4.13518         4.13518 
        1.83466         22.6011         4.10105         4.10105 
        1.84078         22.4793         4.06734         4.06734 
        1.84692         22.3767         4.03395         4.03395 
        1.85306         22.2526         4.00089         4.00089 
         1.8592         22.2105         3.96826         3.96826 
        1.86533         22.0806         3.93601         3.93601 
        1.87147         21.9608         3.90407         3.90407 
