# k  (h/Mpc)    P(k)  (Mpc/h)^3    P_linear(k)  (Mpc/h)^3     P_NL(k)  ShotnoiseSubtracted = false
     0.00783031         18767.6           18865           18865 
       0.013688         21354.1         21958.3         21958.3 
       0.019231         20835.5         21173.7         21173.7 
      0.0249154         18778.2         18690.8         18690.8 
      0.0312784         15357.8         15482.5         15482.5 
      0.0375637         12596.5         12789.1         12789.1 
      0.0433917         10956.2         10984.1         10984.1 
      0.0492413         9684.49         9774.14         9774.14 
      0.0555754         8887.67         8907.02         8907.02 
      0.0619321         7954.78         8223.18         8223.18 
       0.067871         7434.32         7566.74         7566.74 
      0.0738098          6792.1         6823.54         6823.54 
      0.0800417         6005.19         5984.78         5984.78 
      0.0862327          5213.8         5186.57         5186.57 
      0.0921407         4632.11         4541.64         4541.64 
      0.0982031         4204.16         4041.28         4041.28 
       0.104506         3777.98         3688.09         3688.09 
       0.110769         3560.58         3459.82         3459.82 
       0.116806         3431.17         3295.82         3295.82 
       0.122832         3231.98         3133.58         3133.58 
       0.129052         3019.18         2933.83         2933.83 
       0.135211         2875.61         2699.05         2699.05 
       0.141259         2604.87         2452.01         2452.01 
       0.147318         2375.92         2216.55         2216.55 
       0.153489         2207.82         2013.36         2013.36 
       0.159709         2112.65         1857.35         1857.35 
       0.165845         1944.93         1748.18         1748.18 
       0.171974         1903.89         1670.09         1670.09 
       0.178125         1845.45         1605.17         1605.17 
       0.184229         1704.02         1538.62         1538.62 
        0.19034          1668.2         1461.14         1461.14 
       0.196428          1605.8         1372.69         1372.69 
       0.202534         1491.07         1278.78         1278.78 
       0.208729         1452.86         1187.16         1187.16 
       0.214876         1375.36         1107.49         1107.49 
       0.220989         1302.72         1043.02         1043.02 
       0.227147         1266.14         992.389         992.389 
        0.23329         1217.01         952.341         952.341 
       0.239377         1209.16         917.736         917.736 
       0.245482         1149.28         883.328         883.328 
       0.251667         1105.89         845.883         845.883 
       0.257832         1083.76         805.478         805.478 
       0.263955         1029.42         763.868         763.868 
       0.270079         995.674          723.37          723.37 
        0.27624          952.94         686.108         686.108 
       0.282372          938.04         653.873         653.873 
        0.28843         920.645         626.845         626.845 
       0.294538         876.682         603.452         603.452 
       0.300721         858.336         582.193         582.193 
        0.30691         836.636         561.746         561.746 
       0.313033         801.584         541.327         541.327 
       0.319153         791.386         520.354         520.354 
       0.325316          779.42         499.025         499.025 
        0.33145         759.468         478.244         478.244 
       0.337538         732.447         458.793         458.793 
       0.343633         714.198         440.979         440.979 
       0.349808         698.905         424.739         424.739 
       0.355968         684.733         410.153         410.153 
       0.362074         660.185         396.821         396.821 
       0.368217         657.214         384.092         384.092 
       0.374374         647.053         371.614         371.614 
       0.380519          621.95         359.265         359.265 
       0.386598          616.68         347.185         347.185 
       0.392688         600.384         335.347         335.347 
        0.39888          586.94         323.808         323.808 
       0.405048          573.35         312.988         312.988 
       0.411186         572.677         302.928         302.928 
       0.417313         565.649         293.587         293.587 
       0.423458         550.118         284.797         284.797 
       0.429607         533.818         276.417         276.417 
       0.435692         527.168         268.419         268.419 
       0.441815         517.341          260.59          260.59 
       0.447964         508.193         252.901         252.901 
       0.454126         502.175         245.401         245.401 
       0.460267         494.341         238.193         238.193 
       0.466387         483.799         231.316         231.316 
        0.47254         478.016         224.722         224.722 
       0.478662         468.779         218.489         218.489 
       0.484765         462.107         212.582         212.582 
       0.490885         458.428         206.913         206.913 
       0.497035         447.428         201.421         201.421 
       0.503198         446.644         196.093         196.093 
       0.509342         437.625         190.944         190.944 
       0.515458         428.794         185.975         185.975 
       0.521598         425.683         181.141         181.141 
       0.527764         416.861         176.452         176.452 
       0.533884         412.368          171.97          171.97 
           0.54         408.398         167.672         167.672 
       0.546137         400.701         163.529         163.529 
       0.552299          398.69         159.523         159.523 
       0.558452         392.175         155.661         155.661 
       0.564573         389.796          151.94          151.94 
       0.570708         383.845         148.326         148.326 
       0.576825         376.654         144.835         144.835 
       0.582926         375.478         141.462         141.462 
       0.589034         368.383          138.19          138.19 
       0.595184         365.585         134.999         134.999 
       0.601379         359.438         131.889         131.889 
       0.607522         352.674         128.904         128.904 
       0.613639         351.661         126.029         126.029 
       0.619772         349.887         123.238         123.238 
       0.625918          342.56          120.53          120.53 
       0.632068         341.176         117.903         117.903 
       0.638161         337.342         115.378         115.378 
         0.6443         332.387         112.906         112.906 
       0.650464           329.3         110.496         110.496 
       0.656582         325.789         108.172         108.172 
       0.662703         323.792         105.913         105.913 
       0.668861         317.909         103.706         103.706 
       0.675024         316.771         101.562         101.562 
       0.681124         310.579         99.5012         99.5012 
       0.687237         309.893          97.495          97.495 
       0.693381         304.932         95.5359         95.5359 
       0.699536         304.553          93.628          93.628 
       0.705665          299.98         91.7808         91.7808 
       0.711789         297.677         89.9852         89.9852 
       0.717957         294.923         88.2253         88.2253 
        0.72409         291.037         86.5219         86.5219 
       0.730186         291.724         84.8736         84.8736 
       0.736317         286.594         83.2592         83.2592 
       0.742472         284.354         81.6808         81.6808 
       0.748622         282.382         80.1449         80.1449 
        0.75476         279.895         78.6519         78.6519 
       0.760888         277.336         77.1993         77.1993 
       0.767043         274.164         75.7779         75.7779 
       0.773185         271.797         74.3954         74.3954 
       0.779291         269.329         73.0555         73.0555 
       0.785407         267.302         71.7467         71.7467 
       0.791564         265.707          70.462          70.462 
       0.797719         261.392         69.2095         69.2095 
       0.803834          261.88         67.9955         67.9955 
       0.809972         257.684         66.8064         66.8064 
       0.816124         255.231         65.6432         65.6432 
       0.822261         253.287         64.5109         64.5109 
       0.828378         252.036         63.4088         63.4088 
       0.834502         248.339         62.3316         62.3316 
       0.840667         248.272         61.2725         61.2725 
       0.846816         244.161         60.2411         60.2411 
       0.852925         244.355           59.24           59.24 
       0.859047         241.457         58.2597         58.2597 
       0.865192         240.336         57.2983         57.2983 
       0.871341         237.484         56.3582         56.3582 
       0.877463         236.117         55.4434         55.4434 
       0.883569         234.667         54.5513         54.5513 
       0.889708         232.537         53.6743         53.6743 
       0.895864         229.341         52.8144         52.8144 
       0.902008         228.253         51.9752         51.9752 
       0.908149          226.01         51.1549         51.1549 
       0.914301         224.901         50.3509         50.3509 
       0.920448         223.067          49.565          49.565 
       0.926574         221.128         48.7987         48.7987 
       0.932687         220.888         48.0502         48.0502 
       0.938823         218.236         47.3147         47.3147 
       0.944975         217.886          46.593          46.593 
       0.951105         215.325          45.889          45.889 
       0.957225         213.261         45.2007         45.2007 
       0.963368         213.357         44.5242         44.5242 
       0.969511         209.842         43.8616         43.8616 
       0.975621         207.708          43.216          43.216 
       0.981748         207.608         42.5818         42.5818 
       0.987916         206.313         41.9564         41.9564 
        0.99406         204.134         41.3458         41.3458 
        1.00019         202.818         40.7487         40.7487 
        1.00632         201.906         40.1639         40.1639 
        1.01246         200.349         39.5897         39.5897 
        1.01859         198.104         39.0277         39.0277 
        1.02471         196.675         38.4772         38.4772 
        1.03085         195.519         37.9355         37.9355 
        1.03698         194.921         37.4054         37.4054 
        1.04314         193.789         36.8832         36.8832 
        1.04929         192.257         36.3721         36.3721 
        1.05541         191.443         35.8728         35.8728 
        1.06154         189.469         35.3816         35.3816 
        1.06769         188.163         34.8989         34.8989 
        1.07382         186.418         34.4268         34.4268 
        1.07993         185.532         33.9646         33.9646 
        1.08607         184.689         33.5089         33.5089 
        1.09222         182.801         33.0611         33.0611 
        1.09836         181.948         32.6221         32.6221 
        1.10449          180.92         32.1915         32.1915 
        1.11063         179.412         31.7683         31.7683 
        1.11677         177.888         31.3528         31.3528 
         1.1229         177.746         30.9455         30.9455 
        1.12903          175.46          30.545          30.545 
        1.13518         174.597         30.1513         30.1513 
        1.14131         173.772         29.7648         29.7648 
        1.14745          171.98         29.3853         29.3853 
        1.15359         171.046         29.0123         29.0123 
        1.15973         170.345         28.6457         28.6457 
        1.16584         169.119          28.287          28.287 
        1.17197         168.362          27.934          27.934 
        1.17811         166.595         27.5859         27.5859 
        1.18424         165.673         27.2448         27.2448 
        1.19038          165.03         26.9084         26.9084 
        1.19652         162.989         26.5779         26.5779 
        1.20267         162.408         26.2529         26.2529 
        1.20881         161.227         25.9334         25.9334 
        1.21495         160.804         25.6197         25.6197 
        1.22108          159.48         25.3113         25.3113 
         1.2272         158.492         25.0086         25.0086 
        1.23334         157.272         24.7102         24.7102 
        1.23949         156.512          24.416          24.416 
        1.24562         155.379         24.1273         24.1273 
        1.25174         154.841         23.8438         23.8438 
        1.25789         153.364         23.5639         23.5639 
        1.26402         152.744          23.289          23.289 
        1.27014         151.885         23.0191         23.0191 
        1.27628         151.159         22.7528         22.7528 
        1.28244         149.627         22.4901         22.4901 
        1.28858         148.847         22.2319         22.2319 
        1.29471         147.641         21.9784         21.9784 
        1.30084         147.189          21.729          21.729 
        1.30697         146.056         21.4831         21.4831 
        1.31312         145.336         21.2407         21.2407 
        1.31925         144.163         21.0028         21.0028 
        1.32537         143.744         20.7688         20.7688 
        1.33151         142.343         20.5375         20.5375 
        1.33765           141.8         20.3098         20.3098 
        1.34378           141.2         20.0861         20.0861 
        1.34992         139.877         19.8655         19.8655 
        1.35606         139.315         19.6478         19.6478 
         1.3622          138.17         19.4337         19.4337 
        1.36833         137.572         19.2234         19.2234 
        1.37445         136.965         19.0162         19.0162 
        1.38059         135.643         18.8115         18.8115 
        1.38675         134.883         18.6093         18.6093 
        1.39288         134.084         18.4109         18.4109 
        1.39901         133.032         18.2154         18.2154 
        1.40515         132.449         18.0224         18.0224 
         1.4113         131.817         17.8322         17.8322 
        1.41742         130.954         17.6455         17.6455 
        1.42355          130.05         17.4611         17.4611 
         1.4297         129.298         17.2787         17.2787 
        1.43585         128.854         17.0991         17.0991 
        1.44198         127.606         16.9227         16.9227 
        1.44809         127.165         16.7491         16.7491 
        1.45423          126.47         16.5773         16.5773 
        1.46036          125.67         16.4082         16.4082 
        1.46649         124.595         16.2414         16.2414 
        1.47263         124.205         16.0768         16.0768 
        1.47877         123.375         15.9145         15.9145 
        1.48491           122.4         15.7543         15.7543 
        1.49104         121.509         15.5965         15.5965 
        1.49718          121.05         15.4408         15.4408 
        1.50333         119.961          15.287          15.287 
        1.50947         119.666         15.1355         15.1355 
         1.5156         118.721         14.9864         14.9864 
        1.52172          118.04         14.8392         14.8392 
        1.52787         117.616         14.6937         14.6937 
          1.534         116.918         14.5504         14.5504 
        1.54013         116.011         14.4091         14.4091 
        1.54627         115.429         14.2694         14.2694 
        1.55241         114.812         14.1315         14.1315 
        1.55855         114.044         13.9957         13.9957 
        1.56467         113.465          13.862          13.862 
         1.5708         112.629         13.7297         13.7297 
        1.57695         112.229         13.5989         13.5989 
        1.58308         111.236         13.4701         13.4701 
        1.58922         110.702         13.3429         13.3429 
        1.59535         110.147         13.2173         13.2173 
         1.6015         109.311         13.0933         13.0933 
        1.60764         108.661         12.9708         12.9708 
        1.61376         108.201         12.8503         12.8503 
        1.61989         107.619         12.7312         12.7312 
        1.62604         106.868         12.6133         12.6133 
        1.63218         106.301          12.497          12.497 
        1.63831         105.628         12.3824         12.3824 
        1.64444         104.764         12.2692         12.2692 
        1.65059         104.409         12.1571         12.1571 
        1.65673         103.869         12.0466         12.0466 
        1.66285         103.478         11.9378         11.9378 
        1.66898         102.668         11.8302         11.8302 
        1.67512         101.678         11.7238         11.7238 
        1.68127         101.582         11.6186         11.6186 
         1.6874         100.944         11.5149         11.5149 
        1.69353         100.286         11.4125         11.4125 
        1.69967         99.6992         11.3111         11.3111 
        1.70581         99.1264          11.211          11.211 
        1.71193         98.6441         11.1125         11.1125 
        1.71806         97.6564          11.015          11.015 
        1.72421         97.2245         10.9184         10.9184 
        1.73035         96.8238         10.8231         10.8231 
        1.73649         96.3218          10.729          10.729 
        1.74262         95.5958          10.636          10.636 
        1.74876         94.9538         10.5441         10.5441 
        1.75489         94.9142         10.4535         10.4535 
        1.76101          94.083         10.3639         10.3639 
        1.76715         93.4063         10.2753         10.2753 
        1.77329          92.898         10.1876         10.1876 
        1.77943         92.3371         10.1009         10.1009 
        1.78557         91.8876         10.0153         10.0153 
        1.79171         91.2533         9.93066         9.93066 
        1.79785         90.6967         9.84701         9.84701 
        1.80399         90.1491         9.76433         9.76433 
        1.81012         89.7075         9.68271         9.68271 
        1.81625         89.0929         9.60205         9.60205 
        1.82239         88.8012         9.52219         9.52219 
        1.82853         88.0121         9.44327         9.44327 
        1.83466         87.3636         9.36533         9.36533 
        1.84078         87.2302         9.28834         9.28834 
        1.84692         86.7881         9.21209         9.21209 
        1.85306         86.1876          9.1366          9.1366 
         1.8592         85.7697         9.06207         9.06207 
        1.86533         85.2263         8.98842         8.98842 
        1.87147          84.674          8.9155          8.9155 
        1.87761         84.1866         8.84335         8.84335 
