# k  (h/Mpc)    P(k)  (Mpc/h)^3    P_linear(k)  (Mpc/h)^3     P_NL(k)  ShotnoiseSubtracted = false
     0.00783031         945.841         953.415         953.415 
       0.013688         1099.36         1110.71         1110.71 
       0.019231         1067.05         1071.39         1071.39 
      0.0249154         947.301          945.94          945.94 
      0.0312784         784.331         783.664         783.664 
      0.0375637          646.96         647.382         647.382 
      0.0433917         557.649         556.042         556.042 
      0.0492413         494.957         494.806         494.806 
      0.0555754         452.243         450.921         450.921 
      0.0619321         413.813         416.309         416.309 
       0.067871         382.664         383.082         383.082 
      0.0738098          345.55          345.46          345.46 
      0.0800417         303.895         302.998         302.998 
      0.0862327         263.076         262.589         262.589 
      0.0921407         230.339         229.938         229.938 
      0.0982031         205.835         204.606         204.606 
       0.104506         186.635         186.726         186.726 
       0.110769         175.193         175.169         175.169 
       0.116806         167.613         166.866         166.866 
       0.122832         158.562         158.653         158.653 
       0.129052         148.916          148.54          148.54 
       0.135211         137.499         136.653         136.653 
       0.141259         124.606         124.146         124.146 
       0.147318         112.336         112.224         112.224 
       0.153489         102.449         101.937         101.937 
       0.159709         94.8556         94.0382         94.0382 
       0.165845         88.5219         88.5112         88.5112 
       0.171974         85.4394         84.5575         84.5575 
       0.178125         81.9477         81.2704         81.2704 
       0.184229         78.1561         77.9011         77.9011 
        0.19034         74.7093         73.9784         73.9784 
       0.196428         70.1794         69.5003         69.5003 
       0.202534         64.8696         64.7455         64.7455 
       0.208729          60.835         60.1069         60.1069 
       0.214876          57.117         56.0729         56.0729 
       0.220989         53.2715         52.8091         52.8091 
       0.227147         51.2272         50.2455         50.2455 
        0.23329         49.1897         48.2178         48.2178 
       0.239377         47.4912         46.4657         46.4657 
       0.245482         45.5871         44.7237         44.7237 
       0.251667         43.4568         42.8278         42.8278 
       0.257832         41.7933         40.7821         40.7821 
       0.263955         39.4141         38.6754         38.6754 
       0.270079         37.3589         36.6249         36.6249 
        0.27624         35.3513         34.7383         34.7383 
       0.282372         33.7771         33.1062         33.1062 
        0.28843         32.7204         31.7378         31.7378 
       0.294538         31.4273         30.5534         30.5534 
       0.300721         30.1318          29.477          29.477 
        0.30691         29.3072         28.4418         28.4418 
       0.313033         28.1721          27.408          27.408 
       0.319153         27.3715          26.346          26.346 
       0.325316         25.9626         25.2662         25.2662 
        0.33145         24.8988          24.214          24.214 
       0.337538         23.9717         23.2292         23.2292 
       0.343633           23.15         22.3272         22.3272 
       0.349808         22.2589          21.505          21.505 
       0.355968           21.47         20.7665         20.7665 
       0.362074         20.9306         20.0915         20.0915 
       0.368217         20.2406          19.447          19.447 
       0.374374         19.7171         18.8153         18.8153 
       0.380519         18.9203           18.19           18.19 
       0.386598         18.2563         17.5784         17.5784 
       0.392688         17.6105          16.979          16.979 
        0.39888         17.1313         16.3948         16.3948 
       0.405048         16.6117         15.8469         15.8469 
       0.411186         16.0629         15.3376         15.3376 
       0.417313         15.5742         14.8646         14.8646 
       0.423458         15.0546         14.4196         14.4196 
       0.429607         14.7365         13.9953         13.9953 
       0.435692         14.3752         13.5904         13.5904 
       0.441815         13.8661          13.194          13.194 
       0.447964         13.3833         12.8047         12.8047 
       0.454126          13.102          12.425          12.425 
       0.460267         12.8242           12.06           12.06 
       0.466387         12.4229         11.7118         11.7118 
        0.47254         12.1383          11.378          11.378 
       0.478662         11.7624         11.0624         11.0624 
       0.484765         11.4616         10.7633         10.7633 
       0.490885         11.1145         10.4763         10.4763 
       0.497035          10.817         10.1982         10.1982 
       0.503198         10.5951         9.92841         9.92841 
       0.509342         10.2605         9.66773         9.66773 
       0.515458         10.0633         9.41615         9.41615 
       0.521598         9.81808         9.17141         9.17141 
       0.527764           9.626         8.93397         8.93397 
       0.533884         9.31081         8.70707         8.70707 
           0.54         9.11952         8.48944         8.48944 
       0.546137         8.84424         8.27968         8.27968 
       0.552299         8.66482         8.07685         8.07685 
       0.558452         8.45224         7.88129         7.88129 
       0.564573         8.28588         7.69288         7.69288 
       0.570708         8.09227         7.50991         7.50991 
       0.576825         7.92205         7.33317         7.33317 
       0.582926         7.72815          7.1624          7.1624 
       0.589034         7.57391         6.99673         6.99673 
       0.595184         7.44424         6.83519         6.83519 
       0.601379         7.23329          6.6777          6.6777 
       0.607522         7.07845         6.52658         6.52658 
       0.613639         6.91072         6.38098         6.38098 
       0.619772         6.78844         6.23971         6.23971 
       0.625918         6.63672         6.10259         6.10259 
       0.632068         6.52568         5.96959         5.96959 
       0.638161         6.37561         5.84172         5.84172 
         0.6443         6.24194         5.71658         5.71658 
       0.650464         6.09862         5.59454         5.59454 
       0.656582         6.01726         5.47686         5.47686 
       0.662703         5.90201         5.36251         5.36251 
       0.668861         5.74009         5.25078         5.25078 
       0.675024         5.63442          5.1422          5.1422 
       0.681124         5.59888         5.03787         5.03787 
       0.687237         5.45739         4.93629         4.93629 
       0.693381         5.31295          4.8371          4.8371 
       0.699536         5.25495          4.7405          4.7405 
       0.705665         5.14845         4.64698         4.64698 
       0.711789          5.0283         4.55607         4.55607 
       0.717957         4.92524         4.46695         4.46695 
        0.72409         4.85724         4.38071         4.38071 
       0.730186         4.80327         4.29726         4.29726 
       0.736317         4.68234         4.21552         4.21552 
       0.742472         4.61917          4.1356          4.1356 
       0.748622         4.53698         4.05784         4.05784 
        0.75476         4.41947         3.98224         3.98224 
       0.760888         4.37121          3.9087          3.9087 
       0.767043         4.25836         3.83673         3.83673 
       0.773185         4.19927         3.76673         3.76673 
       0.779291         4.16709         3.69889         3.69889 
       0.785407         4.07464         3.63263         3.63263 
       0.791564         4.00487         3.56758         3.56758 
       0.797719         3.93075         3.50417         3.50417 
       0.803834         3.87733          3.4427          3.4427 
       0.809972          3.8027         3.38249         3.38249 
       0.816124         3.74335          3.3236          3.3236 
       0.822261         3.68795         3.26627         3.26627 
       0.828378         3.62557         3.21047         3.21047 
       0.834502         3.56759         3.15593         3.15593 
       0.840667         3.52343         3.10231         3.10231 
       0.846816         3.45061         3.05008         3.05008 
       0.852925         3.40023          2.9994          2.9994 
       0.859047         3.34627         2.94976         2.94976 
       0.865192         3.29289         2.90109         2.90109 
       0.871341         3.24458         2.85349         2.85349 
       0.877463         3.18854         2.80717         2.80717 
       0.883569         3.14708           2.762           2.762 
       0.889708         3.10063          2.7176          2.7176 
       0.895864         3.05418         2.67406         2.67406 
       0.902008         2.99812         2.63157         2.63157 
       0.908149         2.95837         2.59004         2.59004 
       0.914301         2.92006         2.54933         2.54933 
       0.920448         2.88196         2.50954         2.50954 
       0.926574         2.85066         2.47074         2.47074 
       0.932687         2.79929         2.43284         2.43284 
       0.938823         2.74543         2.39561         2.39561 
       0.944975         2.72299         2.35907         2.35907 
       0.951105         2.66469         2.32342         2.32342 
       0.957225         2.64256         2.28857         2.28857 
       0.963368         2.60714         2.25432         2.25432 
       0.969511         2.57195         2.22077         2.22077 
       0.975621         2.52809         2.18808         2.18808 
       0.981748         2.48143         2.15597         2.15597 
       0.987916         2.45525          2.1243          2.1243 
        0.99406         2.43103         2.09339         2.09339 
        1.00019         2.39826         2.06316         2.06316 
        1.00632         2.37184         2.03355         2.03355 
        1.01246         2.33428         2.00448         2.00448 
        1.01859         2.30296         1.97602         1.97602 
        1.02471         2.26307         1.94815         1.94815 
        1.03085         2.24009         1.92073         1.92073 
        1.03698         2.21237         1.89388         1.89388 
        1.04314         2.18337         1.86744         1.86744 
        1.04929         2.15535         1.84157         1.84157 
        1.05541         2.12144         1.81629         1.81629 
        1.06154         2.10214         1.79142         1.79142 
        1.06769         2.08218         1.76698         1.76698 
        1.07382         2.04559         1.74308         1.74308 
        1.07993         2.01755         1.71967         1.71967 
        1.08607         2.00072          1.6966          1.6966 
        1.09222         1.96848         1.67393         1.67393 
        1.09836         1.95833          1.6517          1.6517 
        1.10449         1.91547          1.6299          1.6299 
        1.11063         1.89756         1.60847         1.60847 
        1.11677         1.87746         1.58743         1.58743 
         1.1229         1.85061         1.56681         1.56681 
        1.12903         1.83527         1.54653         1.54653 
        1.13518         1.80618          1.5266          1.5266 
        1.14131         1.78517         1.50703         1.50703 
        1.14745         1.76407         1.48782         1.48782 
        1.15359         1.74279         1.46893         1.46893 
        1.15973         1.72143         1.45037         1.45037 
        1.16584         1.70404         1.43221         1.43221 
        1.17197         1.67965         1.41434         1.41434 
        1.17811         1.65987         1.39671         1.39671 
        1.18424         1.64078         1.37944         1.37944 
        1.19038         1.62301         1.36241         1.36241 
        1.19652         1.60713         1.34567         1.34567 
        1.20267         1.59229         1.32922         1.32922 
        1.20881         1.56894         1.31304         1.31304 
        1.21495         1.55289         1.29716         1.29716 
        1.22108         1.53628         1.28154         1.28154 
         1.2272         1.51277         1.26622         1.26622 
        1.23334         1.50283         1.25111         1.25111 
        1.23949         1.48338         1.23621         1.23621 
        1.24562         1.46833          1.2216          1.2216 
        1.25174         1.45611         1.20724         1.20724 
        1.25789         1.43287         1.19307         1.19307 
        1.26402         1.41835         1.17915         1.17915 
        1.27014         1.40092         1.16549         1.16549 
        1.27628         1.38823           1.152           1.152 
        1.28244         1.37328          1.1387          1.1387 
        1.28858         1.35889         1.12563         1.12563 
        1.29471         1.34077         1.11279         1.11279 
        1.30084         1.32858         1.10017         1.10017 
        1.30697         1.31824         1.08772         1.08772 
        1.31312         1.30259         1.07545         1.07545 
        1.31925         1.28922          1.0634          1.0634 
        1.32537         1.27661         1.05155         1.05155 
        1.33151         1.26096         1.03984         1.03984 
        1.33765         1.24908         1.02831         1.02831 
        1.34378         1.23731         1.01698         1.01698 
        1.34992         1.22583         1.00582         1.00582 
        1.35606         1.21201        0.994795        0.994795 
         1.3622         1.20102        0.983957        0.983957 
        1.36833         1.18604        0.973306        0.973306 
        1.37445         1.17326        0.962817        0.962817 
        1.38059         1.16243        0.952452        0.952452 
        1.38675         1.15115        0.942214        0.942214 
        1.39288         1.14276        0.932167        0.932167 
        1.39901         1.12776        0.922271        0.922271 
        1.40515         1.11664        0.912496        0.912496 
         1.4113          1.1098        0.902867        0.902867 
        1.41742         1.09462        0.893413        0.893413 
        1.42355         1.08342        0.884077        0.884077 
         1.4297         1.07545        0.874846        0.874846 
        1.43585         1.06421        0.865751        0.865751 
        1.44198         1.05419        0.856819        0.856819 
        1.44809         1.04483         0.84803         0.84803 
        1.45423         1.03408        0.839332        0.839332 
        1.46036         1.02546         0.83077         0.83077 
        1.46649         1.01206        0.822326        0.822326 
        1.47263         1.00595        0.813991        0.813991 
        1.47877         0.99989        0.805775        0.805775 
        1.48491        0.983463         0.79766         0.79766 
        1.49104        0.977993        0.789673        0.789673 
        1.49718        0.966997        0.781789        0.781789 
        1.50333        0.958777           0.774           0.774 
        1.50947        0.950396        0.766332        0.766332 
         1.5156        0.941455         0.75878         0.75878 
        1.52172        0.933555        0.751329        0.751329 
        1.52787        0.924735        0.743964        0.743964 
          1.534        0.917684        0.736705        0.736705 
        1.54013        0.908046        0.729551        0.729551 
        1.54627        0.899716        0.722479        0.722479 
        1.55241        0.890596        0.715499        0.715499 
        1.55855        0.883493        0.708621        0.708621 
        1.56467        0.876158        0.701852        0.701852 
         1.5708         0.86807        0.695153        0.695153 
        1.57695        0.858852         0.68853         0.68853 
        1.58308        0.850445         0.68201         0.68201 
        1.58922        0.845852        0.675568        0.675568 
        1.59535        0.835612        0.669213        0.669213 
         1.6015          0.8287         0.66293         0.66293 
        1.60764         0.82274         0.65673         0.65673 
        1.61376        0.813801        0.650627        0.650627 
        1.61989        0.807674        0.644596        0.644596 
        1.62604        0.798899        0.638628        0.638628 
        1.63218        0.794874        0.632739        0.632739 
        1.63831        0.787438        0.626938        0.626938 
        1.64444        0.780259        0.621206        0.621206 
        1.65059        0.774914        0.615533        0.615533 
        1.65673        0.765852        0.609937        0.609937 
        1.66285         0.75996        0.604426        0.604426 
        1.66898        0.754772        0.598981        0.598981 
        1.67512        0.745688        0.593592        0.593592 
        1.68127         0.74002        0.588265        0.588265 
         1.6874        0.736522        0.583014        0.583014 
        1.69353        0.728249        0.577831        0.577831 
        1.69967         0.72295        0.572699        0.572699 
        1.70581        0.718709         0.56763         0.56763 
        1.71193        0.709439        0.562643        0.562643 
        1.71806        0.705464        0.557704        0.557704 
        1.72421        0.700095        0.552815        0.552815 
        1.73035        0.691439         0.54799         0.54799 
        1.73649        0.689339        0.543223        0.543223 
        1.74262        0.681741        0.538517        0.538517 
        1.74876        0.676834        0.533864        0.533864 
        1.75489        0.671654        0.529274        0.529274 
        1.76101        0.664405         0.52474         0.52474 
        1.76715        0.660549        0.520253        0.520253 
        1.77329        0.655299        0.515812        0.515812 
        1.77943         0.65031        0.511421        0.511421 
        1.78557        0.646293        0.507088        0.507088 
        1.79171         0.64103        0.502804        0.502804 
        1.79785        0.635667        0.498568        0.498568 
        1.80399        0.629355        0.494382        0.494382 
        1.81012        0.624788        0.490249        0.490249 
        1.81625        0.619438        0.486166        0.486166 
        1.82239        0.615264        0.482122        0.482122 
        1.82853        0.610428        0.478126        0.478126 
        1.83466        0.605192         0.47418         0.47418 
        1.84078        0.600575        0.470282        0.470282 
        1.84692        0.596163        0.466421        0.466421 
        1.85306        0.592858        0.462599        0.462599 
         1.8592        0.586551        0.458826        0.458826 
        1.86533        0.583114        0.455097        0.455097 
        1.87147        0.577126        0.451405        0.451405 
        1.87761        0.573483        0.447752        0.447752 
