# k  (h/Mpc)    P(k)  (Mpc/h)^3    P_linear(k)  (Mpc/h)^3     P_NL(k)  ShotnoiseSubtracted = false
     0.00783031            2592         2611.08         2611.08 
       0.013688         3000.78          3041.1          3041.1 
       0.019231         2915.96          2933.2          2933.2 
      0.0249154         2596.72         2589.61         2589.61 
      0.0312784         2145.53          2145.3          2145.3 
      0.0375637         1767.51         1772.19         1772.19 
      0.0433917         1526.65         1522.14         1522.14 
      0.0492413          1353.6          1354.5          1354.5 
      0.0555754         1238.94         1234.36         1234.36 
      0.0619321          1128.2         1139.61         1139.61 
       0.067871         1046.47         1048.64         1048.64 
      0.0738098          946.29         945.657         945.657 
      0.0800417         833.384         829.421         829.421 
      0.0862327         721.075         718.803         718.803 
      0.0921407         632.068         629.425         629.425 
      0.0982031         566.418         560.083         560.083 
       0.104506         512.014         511.136         511.136 
       0.110769         481.065         479.502         479.502 
       0.116806         461.704         456.774         456.774 
       0.122832         435.608          434.29          434.29 
       0.129052         409.613         406.607         406.607 
       0.135211         379.761         374.069         374.069 
       0.141259         343.848         339.831         339.831 
       0.147318         309.704         307.198         307.198 
       0.153489         283.345         279.037         279.037 
       0.159709         263.684         257.416         257.416 
       0.165845         244.773         242.286         242.286 
       0.171974         237.912         231.464         231.464 
       0.178125         228.164         222.466         222.466 
       0.184229          216.56         213.243         213.243 
        0.19034         207.833         202.505         202.505 
       0.196428          195.87         190.247         190.247 
       0.202534         180.341         177.231         177.231 
       0.208729         170.692         164.534         164.534 
       0.214876         160.926         153.491         153.491 
       0.220989         149.462         144.557         144.557 
       0.227147         144.679         137.539         137.539 
        0.23329         139.082         131.989         131.989 
       0.239377         134.782         127.193         127.193 
       0.245482         128.875         122.424         122.424 
       0.251667         122.791         117.235         117.235 
       0.257832          119.14         111.635         111.635 
       0.263955         111.884         105.868         105.868 
       0.270079         106.276         100.255         100.255 
        0.27624         100.737         95.0908         95.0908 
       0.282372         96.6399         90.6232         90.6232 
        0.28843         94.4726         86.8774         86.8774 
       0.294538         90.4308         83.6353         83.6353 
       0.300721         86.5752         80.6889         80.6889 
        0.30691         84.6448          77.855          77.855 
       0.313033          81.124         75.0251         75.0251 
       0.319153         79.2018         72.1183         72.1183 
       0.325316         75.3435         69.1623         69.1623 
        0.33145         72.3812          66.282          66.282 
       0.337538         69.7575         63.5863         63.5863 
       0.343633         67.4441         61.1174         61.1174 
       0.349808         64.9832         58.8667         58.8667 
       0.355968         62.8592         56.8451         56.8451 
       0.362074         61.5071         54.9974         54.9974 
       0.368217         59.6232         53.2331         53.2331 
       0.374374         58.1137         51.5039         51.5039 
       0.380519         55.6161         49.7922         49.7922 
       0.386598         53.8614         48.1181         48.1181 
       0.392688         52.0135         46.4774         46.4774 
        0.39888         50.8744         44.8781         44.8781 
       0.405048          49.461         43.3785         43.3785 
       0.411186         47.9865         41.9843         41.9843 
       0.417313         46.5366         40.6897         40.6897 
       0.423458         45.1419         39.4714         39.4714 
       0.429607         44.2545           38.31           38.31 
       0.435692         43.3954         37.2015         37.2015 
       0.441815         41.7123         36.1165         36.1165 
       0.447964         40.2661         35.0508         35.0508 
       0.454126         39.5248         34.0114         34.0114 
       0.460267         38.9593         33.0124         33.0124 
       0.466387         37.7787         32.0593         32.0593 
        0.47254         37.1129         31.1454         31.1454 
       0.478662         35.8274         30.2815         30.2815 
       0.484765         35.0173         29.4628         29.4628 
       0.490885         33.9662         28.6772         28.6772 
       0.497035         33.3543          27.916          27.916 
       0.503198         32.6016         27.1775         27.1775 
       0.509342          31.621         26.4639         26.4639 
       0.515458         31.1069         25.7753         25.7753 
       0.521598         30.3355         25.1053         25.1053 
       0.527764         29.8433         24.4554         24.4554 
       0.533884          29.114         23.8343         23.8343 
           0.54         28.4658         23.2385         23.2385 
       0.546137         27.5646         22.6644         22.6644 
       0.552299         27.0513         22.1091         22.1091 
       0.558452         26.4155         21.5738         21.5738 
       0.564573         26.0872         21.0581         21.0581 
       0.570708         25.3806         20.5572         20.5572 
       0.576825         25.0016         20.0734         20.0734 
       0.582926         24.5065          19.606          19.606 
       0.589034         23.9671         19.1525         19.1525 
       0.595184         23.6134         18.7103         18.7103 
       0.601379         22.9475         18.2792         18.2792 
       0.607522         22.5175         17.8655         17.8655 
       0.613639         22.1269          17.467          17.467 
       0.619772         21.6883         17.0802         17.0802 
       0.625918         21.2355         16.7049         16.7049 
       0.632068         21.0066         16.3408         16.3408 
       0.638161         20.5231         15.9908         15.9908 
         0.6443         20.1767         15.6482         15.6482 
       0.650464         19.6465         15.3142         15.3142 
       0.656582         19.4785         14.9921         14.9921 
       0.662703         19.1833          14.679          14.679 
       0.668861         18.6613         14.3732         14.3732 
       0.675024         18.3752          14.076          14.076 
       0.681124          18.259         13.7904         13.7904 
       0.687237         17.8489         13.5123         13.5123 
       0.693381         17.4455         13.2408         13.2408 
       0.699536         17.3125         12.9764         12.9764 
       0.705665         16.9442         12.7204         12.7204 
       0.711789         16.6275         12.4715         12.4715 
       0.717957         16.2549         12.2276         12.2276 
        0.72409         16.0934         11.9915         11.9915 
       0.730186         15.9784         11.7631         11.7631 
       0.736317         15.6081         11.5393         11.5393 
       0.742472         15.4061         11.3206         11.3206 
       0.748622          15.121         11.1077         11.1077 
        0.75476         14.7219         10.9008         10.9008 
       0.760888         14.6522         10.6995         10.6995 
       0.767043         14.3622         10.5025         10.5025 
       0.773185         14.1693         10.3108         10.3108 
       0.779291         14.0139         10.1251         10.1251 
       0.785407         13.7675         9.94376         9.94376 
       0.791564         13.6264          9.7657          9.7657 
       0.797719         13.2979         9.59211         9.59211 
       0.803834         13.2321         9.42386         9.42386 
       0.809972         12.9534         9.25905         9.25905 
       0.816124         12.7899         9.09784         9.09784 
       0.822261         12.6257         8.94091         8.94091 
       0.828378         12.4663         8.78816         8.78816 
       0.834502          12.306         8.63886         8.63886 
       0.840667         12.1611         8.49208         8.49208 
       0.846816         11.8786         8.34913         8.34913 
       0.852925         11.8129         8.21038         8.21038 
       0.859047         11.6396         8.07451         8.07451 
       0.865192         11.4597         7.94128         7.94128 
       0.871341         11.3018         7.81097         7.81097 
       0.877463          11.145         7.68419         7.68419 
       0.883569         11.0543         7.56055         7.56055 
       0.889708         10.8557         7.43901         7.43901 
       0.895864          10.707         7.31983         7.31983 
       0.902008         10.5708         7.20352         7.20352 
       0.908149         10.4062         7.08982         7.08982 
       0.914301         10.3296         6.97839         6.97839 
       0.920448          10.171         6.86947         6.86947 
       0.926574         10.0827         6.76326         6.76326 
       0.932687         9.91539         6.65953         6.65953 
       0.938823          9.7702          6.5576          6.5576 
       0.944975         9.69919         6.45757         6.45757 
       0.951105         9.55949            6.36            6.36 
       0.957225         9.48613          6.2646          6.2646 
       0.963368         9.31964         6.17085         6.17085 
       0.969511         9.21419         6.07901         6.07901 
       0.975621         9.11372         5.98954         5.98954 
       0.981748         8.97977         5.90164         5.90164 
       0.987916         8.90692         5.81495         5.81495 
        0.99406         8.79058         5.73034         5.73034 
        1.00019         8.71146         5.64757         5.64757 
        1.00632         8.62704         5.56652         5.56652 
        1.01246         8.51141         5.48694         5.48694 
        1.01859         8.40317         5.40905         5.40905 
        1.02471         8.29019         5.33276         5.33276 
        1.03085          8.2452         5.25769         5.25769 
        1.03698         8.15261         5.18421         5.18421 
        1.04314         8.03663         5.11183         5.11183 
        1.04929         7.92062           5.041           5.041 
        1.05541         7.86369          4.9718          4.9718 
        1.06154         7.78282         4.90373         4.90373 
        1.06769         7.71424         4.83683         4.83683 
        1.07382         7.58344          4.7714          4.7714 
        1.07993         7.51587         4.70733         4.70733 
        1.08607         7.46244         4.64417         4.64417 
        1.09222         7.35545         4.58212         4.58212 
        1.09836         7.31511         4.52126         4.52126 
        1.10449         7.19752         4.46159         4.46159 
        1.11063         7.16385         4.40293         4.40293 
        1.11677         7.09141         4.34535         4.34535 
         1.1229         7.01795          4.2889          4.2889 
        1.12903         6.94452          4.2334          4.2334 
        1.13518         6.85106         4.17883         4.17883 
        1.14131         6.79138         4.12526         4.12526 
        1.14745          6.6878         4.07266         4.07266 
        1.15359         6.62284         4.02097         4.02097 
        1.15973         6.56565         3.97016         3.97016 
        1.16584         6.50634         3.92045         3.92045 
        1.17197         6.43136         3.87152         3.87152 
        1.17811          6.3716         3.82328         3.82328 
        1.18424         6.32014           3.776           3.776 
        1.19038          6.2733         3.72938         3.72938 
        1.19652         6.20679         3.68357         3.68357 
        1.20267         6.15551         3.63853         3.63853 
        1.20881         6.06653         3.59425         3.59425 
        1.21495         6.02497         3.55078         3.55078 
        1.22108         5.96866         3.50803         3.50803 
         1.2272         5.90846         3.46608         3.46608 
        1.23334         5.88055         3.42472         3.42472 
        1.23949         5.80665         3.38394         3.38394 
        1.24562          5.7522         3.34393         3.34393 
        1.25174         5.71707         3.30463         3.30463 
        1.25789         5.62846         3.26584         3.26584 
        1.26402         5.59971         3.22775         3.22775 
        1.27014         5.56468         3.19035         3.19035 
        1.27628         5.48701         3.15343         3.15343 
        1.28244         5.46323         3.11702         3.11702 
        1.28858         5.41132         3.08124         3.08124 
        1.29471         5.33785          3.0461          3.0461 
        1.30084         5.29133         3.01154         3.01154 
        1.30697         5.27346         2.97747         2.97747 
        1.31312         5.21221         2.94387         2.94387 
        1.31925         5.16907         2.91089         2.91089 
        1.32537         5.12499         2.87846         2.87846 
        1.33151         5.07907          2.8464          2.8464 
        1.33765         5.03149         2.81485         2.81485 
        1.34378         5.01828         2.78383         2.78383 
        1.34992         4.95671         2.75327         2.75327 
        1.35606         4.91471          2.7231          2.7231 
         1.3622         4.86736         2.69343         2.69343 
        1.36833         4.83587         2.66427         2.66427 
        1.37445         4.79174         2.63556         2.63556 
        1.38059          4.7442         2.60719         2.60719 
        1.38675         4.71194         2.57916         2.57916 
        1.39288         4.67113         2.55166         2.55166 
        1.39901         4.62446         2.52457         2.52457 
        1.40515         4.59157         2.49782         2.49782 
         1.4113         4.55301         2.47146         2.47146 
        1.41742         4.52759         2.44558         2.44558 
        1.42355         4.47832         2.42002         2.42002 
         1.4297         4.44686         2.39475         2.39475 
        1.43585         4.42058         2.36986         2.36986 
        1.44198         4.37867         2.34541         2.34541 
        1.44809         4.34596         2.32135         2.32135 
        1.45423         4.30654         2.29754         2.29754 
        1.46036         4.28138          2.2741          2.2741 
        1.46649         4.24678         2.25099         2.25099 
        1.47263         4.21759         2.22817         2.22817 
        1.47877         4.18194         2.20568         2.20568 
        1.48491         4.15752         2.18347         2.18347 
        1.49104         4.11726         2.16161         2.16161 
        1.49718         4.09644         2.14002         2.14002 
        1.50333         4.05884          2.1187          2.1187 
        1.50947          4.0216         2.09771         2.09771 
         1.5156         4.00357         2.07704         2.07704 
        1.52172          3.9677         2.05665         2.05665 
        1.52787         3.94514         2.03648         2.03648 
          1.534          3.9097         2.01661         2.01661 
        1.54013         3.89215         1.99703         1.99703 
        1.54627         3.85551         1.97767         1.97767 
        1.55241         3.81939         1.95857         1.95857 
        1.55855         3.80569         1.93974         1.93974 
        1.56467          3.7818         1.92121         1.92121 
         1.5708         3.74359         1.90287         1.90287 
        1.57695         3.71231         1.88474         1.88474 
        1.58308         3.68076         1.86689         1.86689 
        1.58922         3.67086         1.84926         1.84926 
        1.59535         3.64353         1.83186         1.83186 
         1.6015         3.60235         1.81467         1.81467 
        1.60764         3.58623          1.7977          1.7977 
        1.61376         3.56461         1.78099         1.78099 
        1.61989         3.52768         1.76448         1.76448 
        1.62604         3.51327         1.74814         1.74814 
        1.63218         3.49097         1.73202         1.73202 
        1.63831         3.46673         1.71614         1.71614 
        1.64444         3.43684         1.70046         1.70046 
        1.65059         3.41622         1.68493         1.68493 
        1.65673         3.39867         1.66961         1.66961 
        1.66285         3.37288         1.65452         1.65452 
        1.66898          3.3501         1.63962         1.63962 
        1.67512         3.32703         1.62487         1.62487 
        1.68127         3.29802         1.61028         1.61028 
         1.6874          3.2808         1.59591         1.59591 
        1.69353         3.25265         1.58172         1.58172 
        1.69967         3.23797         1.56767         1.56767 
        1.70581         3.21115          1.5538          1.5538 
        1.71193         3.19547         1.54015         1.54015 
        1.71806          3.1717         1.52663         1.52663 
        1.72421         3.15117         1.51324         1.51324 
        1.73035         3.13143         1.50004         1.50004 
        1.73649         3.11128         1.48699         1.48699 
        1.74262         3.08705         1.47411         1.47411 
        1.74876         3.07697         1.46137         1.46137 
        1.75489         3.05215          1.4488          1.4488 
        1.76101         3.02649         1.43639         1.43639 
        1.76715          3.0214         1.42411         1.42411 
        1.77329         2.99721         1.41195         1.41195 
        1.77943         2.96757         1.39994         1.39994 
        1.78557         2.96384         1.38807         1.38807 
        1.79171         2.94039         1.37635         1.37635 
        1.79785          2.9277         1.36475         1.36475 
        1.80399         2.89754         1.35329         1.35329 
        1.81012         2.88754         1.34198         1.34198 
        1.81625         2.86482          1.3308          1.3308 
        1.82239         2.85168         1.31973         1.31973 
        1.82853         2.82988          1.3088          1.3088 
        1.83466         2.80429         1.29799         1.29799 
        1.84078         2.79104         1.28732         1.28732 
        1.84692         2.77451         1.27676         1.27676 
        1.85306         2.75628         1.26629         1.26629 
         1.8592         2.74677         1.25596         1.25596 
        1.86533         2.72955         1.24576         1.24576 
        1.87147         2.71613         1.23565         1.23565 
        1.87761         2.69901         1.22565         1.22565 
