# k  (h/Mpc)    Pcb(k)  (Mpc/h)^3    Pcb_linear(k) (Mpc/h)^3    Pcb_NL(k) (Mpc/h)^3   ShotnoiseSubtracted = false
     0.00783031           24956         25076.2         25076.2 
       0.013688         28275.7         29184.8         29184.8 
       0.019231         27610.5         28140.7         28140.7 
      0.0249154         24948.2         24840.2         24840.2 
      0.0312784         20349.3           20576           20576 
      0.0375637           16678         16996.2         16996.2 
      0.0433917         14523.6         14597.4         14597.4 
      0.0492413         12833.3         12989.3         12989.3 
      0.0555754         11771.7         11836.9         11836.9 
      0.0619321         10504.1         10928.1         10928.1 
       0.067871         9820.72         10055.7         10055.7 
      0.0738098         9004.13         9068.03         9068.03 
      0.0800417         7962.54         7953.36         7953.36 
      0.0862327          6927.8         6892.59         6892.59 
      0.0921407         6182.32          6035.5          6035.5 
      0.0982031         5628.21         5370.56         5370.56 
       0.104506         5057.63         4901.19         4901.19 
       0.110769          4769.9         4597.84         4597.84 
       0.116806         4588.86         4379.89         4379.89 
       0.122832         4333.27         4164.29         4164.29 
       0.129052         4032.22         3898.83         3898.83 
       0.135211         3865.72         3586.83         3586.83 
       0.141259         3506.07         3258.52         3258.52 
       0.147318         3219.91         2945.62         2945.62 
       0.153489         3002.06         2675.59         2675.59 
       0.159709         2888.08         2468.26         2468.26 
       0.165845         2665.71         2323.19         2323.19 
       0.171974         2598.62         2219.42         2219.42 
       0.178125         2528.34         2133.13         2133.13 
       0.184229         2325.55          2044.7          2044.7 
        0.19034         2288.37         1941.74         1941.74 
       0.196428         2209.86         1824.19         1824.19 
       0.202534         2070.16         1699.39         1699.39 
       0.208729         2015.97         1577.64         1577.64 
       0.214876         1910.19         1471.76         1471.76 
       0.220989         1827.52         1386.09         1386.09 
       0.227147         1772.23         1318.81         1318.81 
        0.23329         1703.08         1265.58         1265.58 
       0.239377         1696.73          1219.6          1219.6 
       0.245482         1618.47         1173.87         1173.87 
       0.251667         1559.57         1124.11         1124.11 
       0.257832         1526.27         1070.41         1070.41 
       0.263955         1458.08         1015.12         1015.12 
       0.270079         1418.76         961.298         961.298 
        0.27624         1360.59         911.781         911.781 
       0.282372         1346.38         868.943         868.943 
        0.28843         1311.54         833.025         833.025 
       0.294538         1257.83         801.939         801.939 
       0.300721         1236.52         773.686         773.686 
        0.30691         1198.85         746.514         746.514 
       0.313033         1157.54         719.379         719.379 
       0.319153         1146.73         691.508         691.508 
       0.325316         1129.03         663.161         663.161 
        0.33145         1100.35         635.545         635.545 
       0.337538         1066.12         609.698         609.698 
       0.343633         1042.58         586.023         586.023 
       0.349808         1024.73         564.443         564.443 
       0.355968         1001.79         545.059         545.059 
       0.362074         973.459         527.342         527.342 
       0.368217         967.377         510.426         510.426 
       0.374374         951.643         493.844         493.844 
       0.380519         920.076         477.432         477.432 
       0.386598         914.362          461.38          461.38 
       0.392688         889.776         445.647         445.647 
        0.39888         876.449         430.315         430.315 
       0.405048         855.079         415.934         415.934 
       0.411186         853.746         402.567         402.567 
       0.417313          842.35         390.152         390.152 
       0.423458         821.527         378.471         378.471 
       0.429607         801.186         367.334         367.334 
       0.435692         791.678         356.706         356.706 
       0.441815         776.797         346.302         346.302 
       0.447964          768.36         336.084         336.084 
       0.454126         757.584         326.118         326.118 
       0.460267         749.436         316.539         316.539 
       0.466387         732.583           307.4           307.4 
        0.47254         726.298         298.637         298.637 
       0.478662          712.31         290.354         290.354 
       0.484765         703.217         282.503         282.503 
       0.490885         698.436          274.97          274.97 
       0.497035         682.448         267.672         267.672 
       0.503198         681.113         260.591         260.591 
       0.509342         668.043         253.748         253.748 
       0.515458         656.329         247.145         247.145 
       0.521598         655.543         240.722         240.722 
       0.527764         640.216          234.49          234.49 
       0.533884         630.589         228.535         228.535 
           0.54         628.581         222.822         222.822 
       0.546137         619.001         217.317         217.317 
       0.552299         613.237         211.993         211.993 
       0.558452         605.586          206.86          206.86 
       0.564573          604.72         201.915         201.915 
       0.570708         595.021         197.112         197.112 
       0.576825         584.647         192.473         192.473 
       0.582926         582.254         187.991         187.991 
       0.589034         573.839         183.643         183.643 
       0.595184         567.372         179.403         179.403 
       0.601379         558.798         175.269         175.269 
       0.607522         551.268         171.303         171.303 
       0.613639         549.601         167.481         167.481 
       0.619772         543.916         163.773         163.773 
       0.625918         537.304         160.174         160.174 
       0.632068         534.928         156.684         156.684 
       0.638161         526.535         153.327         153.327 
         0.6443         521.056         150.043         150.043 
       0.650464         516.632         146.839         146.839 
       0.656582         511.721         143.751         143.751 
       0.662703         507.277         140.749         140.749 
       0.668861         500.693         137.817         137.817 
       0.675024         498.581         134.967         134.967 
       0.681124         487.532         132.229         132.229 
       0.687237         487.324         129.563         129.563 
       0.693381         480.599         126.959         126.959 
       0.699536         480.964         124.424         124.424 
       0.705665         472.435         121.969         121.969 
       0.711789         471.432         119.583         119.583 
       0.717957         465.727         117.244         117.244 
        0.72409         461.221          114.98          114.98 
       0.730186         460.731          112.79          112.79 
       0.736317          454.05         110.644         110.644 
       0.742472         449.387         108.547         108.547 
       0.748622         449.356         106.506         106.506 
        0.75476         440.104         104.522         104.522 
       0.760888         440.338         102.591         102.591 
       0.767043         436.736         100.702         100.702 
       0.773185         432.525         98.8652         98.8652 
       0.779291          428.56         97.0845         97.0845 
       0.785407          425.45         95.3453         95.3453 
       0.791564         423.514          93.638          93.638 
       0.797719         416.927         91.9736         91.9736 
       0.803834         416.043         90.3603         90.3603 
       0.809972         410.356         88.7801         88.7801 
       0.816124         407.861         87.2343         87.2343 
       0.822261         404.763         85.7295         85.7295 
       0.828378         403.011         84.2649         84.2649 
       0.834502          397.95         82.8334         82.8334 
       0.840667         394.454          81.426          81.426 
       0.846816         392.271         80.0553         80.0553 
       0.852925         392.364         78.7249         78.7249 
       0.859047         385.607         77.4221         77.4221 
       0.865192         384.535         76.1446         76.1446 
       0.871341         380.816         74.8952         74.8952 
       0.877463         378.873         73.6795         73.6795 
       0.883569         376.952          72.494          72.494 
       0.889708         371.784         71.3286         71.3286 
       0.895864         368.204         70.1859         70.1859 
       0.902008         367.215         69.0707         69.0707 
       0.908149         363.348         67.9804         67.9804 
       0.914301         361.942          66.912          66.912 
       0.920448         357.286         65.8676         65.8676 
       0.926574         355.645         64.8493         64.8493 
       0.932687         353.415         63.8546         63.8546 
       0.938823         350.682         62.8773         62.8773 
       0.944975          349.77         61.9182         61.9182 
       0.951105         346.814         60.9826         60.9826 
       0.957225          342.85         60.0679         60.0679 
       0.963368         342.203         59.1689         59.1689 
       0.969511         338.721         58.2883         58.2883 
       0.975621         335.644         57.4304         57.4304 
       0.981748         334.462         56.5876         56.5876 
       0.987916         332.053         55.7564         55.7564 
        0.99406         328.491         54.9451         54.9451 
        1.00019         325.304         54.1515         54.1515 
        1.00632          324.39         53.3744         53.3744 
        1.01246          321.71         52.6113         52.6113 
        1.01859         319.922         51.8644         51.8644 
        1.02471         318.125          51.133          51.133 
        1.03085         316.055         50.4131         50.4131 
        1.03698         312.932         49.7086         49.7086 
        1.04314         311.325         49.0146         49.0146 
        1.04929         309.952         48.3354         48.3354 
        1.05541         307.891         47.6719         47.6719 
        1.06154         304.037         47.0192         47.0192 
        1.06769         302.537         46.3777         46.3777 
        1.07382         300.158         45.7503         45.7503 
        1.07993         300.026          45.136          45.136 
        1.08607         297.286         44.5304         44.5304 
        1.09222         295.006         43.9354         43.9354 
        1.09836         293.149         43.3519         43.3519 
        1.10449           291.1         42.7798         42.7798 
        1.11063         289.761         42.2173         42.2173 
        1.11677         287.051         41.6652         41.6652 
         1.1229         285.431         41.1239         41.1239 
        1.12903         283.075         40.5917         40.5917 
        1.13518         281.578         40.0686         40.0686 
        1.14131         279.295         39.5549         39.5549 
        1.14745         277.521         39.0506         39.0506 
        1.15359         275.074         38.5549         38.5549 
        1.15973         274.091         38.0677         38.0677 
        1.16584         272.919          37.591          37.591 
        1.17197         270.558         37.1219         37.1219 
        1.17811         267.633         36.6593         36.6593 
        1.18424         266.532          36.206          36.206 
        1.19038         265.621          35.759          35.759 
        1.19652         262.643         35.3198         35.3198 
        1.20267         261.095         34.8879         34.8879 
        1.20881         260.179         34.4633         34.4633 
        1.21495         257.561         34.0464         34.0464 
        1.22108         256.538         33.6365         33.6365 
         1.2272         254.098         33.2343         33.2343 
        1.23334         252.115         32.8378         32.8378 
        1.23949         251.214         32.4467         32.4467 
        1.24562         249.015         32.0631         32.0631 
        1.25174         248.045         31.6863         31.6863 
        1.25789         246.074         31.3144         31.3144 
        1.26402         244.643         30.9491         30.9491 
        1.27014         243.199         30.5905         30.5905 
        1.27628         241.499         30.2365         30.2365 
        1.28244         239.122         29.8874         29.8874 
        1.28858         238.375         29.5443         29.5443 
        1.29471         236.822         29.2074         29.2074 
        1.30084         235.978          28.876          28.876 
        1.30697         233.704         28.5493         28.5493 
        1.31312         232.767         28.2271         28.2271 
        1.31925         230.935         27.9109         27.9109 
        1.32537         230.281         27.5999         27.5999 
        1.33151         227.679         27.2925         27.2925 
        1.33765         227.175           26.99           26.99 
        1.34378         225.605         26.6927         26.6927 
        1.34992         223.673         26.3996         26.3996 
        1.35606         221.793         26.1103         26.1103 
         1.3622         220.252         25.8258         25.8258 
        1.36833         219.899         25.5462         25.5462 
        1.37445         218.781         25.2709         25.2709 
        1.38059         216.283         24.9989         24.9989 
        1.38675         214.539         24.7302         24.7302 
        1.39288         214.169         24.4665         24.4665 
        1.39901         212.563         24.2067         24.2067 
        1.40515         211.161         23.9502         23.9502 
         1.4113         209.814         23.6974         23.6974 
        1.41742         208.523         23.4493         23.4493 
        1.42355         206.732         23.2043         23.2043 
         1.4297         205.828          22.962          22.962 
        1.43585         204.366         22.7232         22.7232 
        1.44198         203.099         22.4888         22.4888 
        1.44809         202.306         22.2581         22.2581 
        1.45423          200.62         22.0298         22.0298 
        1.46036         200.207         21.8051         21.8051 
        1.46649         198.484         21.5835         21.5835 
        1.47263         197.205         21.3647         21.3647 
        1.47877         195.705         21.1491         21.1491 
        1.48491         194.797         20.9361         20.9361 
        1.49104         193.007         20.7264         20.7264 
        1.49718           191.6         20.5195         20.5195 
        1.50333         190.755         20.3151         20.3151 
        1.50947         189.162         20.1138         20.1138 
         1.5156         188.439         19.9156         19.9156 
        1.52172         187.035           19.72           19.72 
        1.52787         185.853         19.5267         19.5267 
          1.534         185.063         19.3362         19.3362 
        1.54013         183.882         19.1484         19.1484 
        1.54627         182.415         18.9628         18.9628 
        1.55241         181.812         18.7796         18.7796 
        1.55855         180.278         18.5991         18.5991 
        1.56467         179.175         18.4214         18.4214 
         1.5708         178.323         18.2456         18.2456 
        1.57695         177.339         18.0718         18.0718 
        1.58308          176.14         17.9006         17.9006 
        1.58922         174.573         17.7315         17.7315 
        1.59535         173.823         17.5647         17.5647 
         1.6015         172.798         17.3998         17.3998 
        1.60764         171.626         17.2371         17.2371 
        1.61376         170.506         17.0769         17.0769 
        1.61989         169.512         16.9186         16.9186 
        1.62604         168.767          16.762          16.762 
        1.63218         167.451         16.6074         16.6074 
        1.63831         166.434         16.4551         16.4551 
        1.64444         165.498         16.3047         16.3047 
        1.65059          164.27         16.1558         16.1558 
        1.65673         163.198         16.0089         16.0089 
        1.66285         162.487         15.8643         15.8643 
        1.66898         161.156         15.7214         15.7214 
        1.67512         160.326         15.5799         15.5799 
        1.68127         159.227         15.4401         15.4401 
         1.6874         158.312         15.3023         15.3023 
        1.69353         157.687         15.1662         15.1662 
        1.69967         156.381         15.0315         15.0315 
        1.70581         155.311         14.8985         14.8985 
        1.71193         154.537         14.7676         14.7676 
        1.71806         153.551          14.638          14.638 
        1.72421         152.758         14.5096         14.5096 
        1.73035         151.843          14.383          14.383 
        1.73649         150.586         14.2579         14.2579 
        1.74262         150.042         14.1344         14.1344 
        1.74876         148.715         14.0122         14.0122 
        1.75489         147.988         13.8918         13.8918 
        1.76101         147.165         13.7728         13.7728 
        1.76715         146.459          13.655          13.655 
        1.77329         145.604         13.5384         13.5384 
        1.77943         144.545         13.4232         13.4232 
        1.78557         143.483         13.3095         13.3095 
        1.79171         142.474          13.197          13.197 
        1.79785         141.511         13.0858         13.0858 
        1.80399         140.932          12.976          12.976 
        1.81012         140.352         12.8675         12.8675 
        1.81625         139.128         12.7603         12.7603 
        1.82239         138.723         12.6542         12.6542 
        1.82853         137.502         12.5493         12.5493 
        1.83466         136.726         12.4457         12.4457 
        1.84078         136.108         12.3434         12.3434 
        1.84692         135.323         12.2421         12.2421 
        1.85306         134.249         12.1418         12.1418 
         1.8592         133.474         12.0427         12.0427 
        1.86533         132.512         11.9448         11.9448 
        1.87147         132.001         11.8479         11.8479 
