# k  (h/Mpc)    P(k)  (Mpc/h)^3    P_linear(k)  (Mpc/h)^3     P_NL(k)  ShotnoiseSubtracted = false
     0.00783031         5066.67         5100.93         5100.93 
       0.013688         5842.32          5939.9          5939.9 
       0.019231         5683.38         5728.71         5728.71 
      0.0249154         5076.39         5057.47         5057.47 
      0.0312784         4185.14         4189.63         4189.63 
      0.0375637          3443.7         3460.93         3460.93 
      0.0433917         2980.14         2972.56         2972.56 
      0.0492413         2639.91         2645.16         2645.16 
      0.0555754         2419.54         2410.53         2410.53 
      0.0619321         2193.22         2225.49         2225.49 
       0.067871         2039.69         2047.85         2047.85 
      0.0738098         1847.73         1846.72         1846.72 
      0.0800417          1629.4         1619.73         1619.73 
      0.0862327         1409.84         1403.71         1403.71 
      0.0921407         1238.39         1229.16         1229.16 
      0.0982031         1113.06         1093.75         1093.75 
       0.104506         1003.74         998.164         998.164 
       0.110769         943.907         936.386         936.386 
       0.116806         908.251         892.001         892.001 
       0.122832         855.159         848.093         848.093 
       0.129052         804.334         794.033         794.033 
       0.135211         749.708         730.492         730.492 
       0.141259         678.548          663.63          663.63 
       0.147318         611.403         599.904         599.904 
       0.153489         561.379         544.911         544.911 
       0.159709         525.807         502.688         502.688 
       0.165845         485.883         473.143         473.143 
       0.171974         474.919         452.008         452.008 
       0.178125         455.904         434.436         434.436 
       0.184229         430.056         416.426         416.426 
        0.19034         414.437         395.456         395.456 
       0.196428         392.514         371.518         371.518 
       0.202534         360.604         346.101         346.101 
       0.208729         344.718         321.305         321.305 
       0.214876         325.959         299.741         299.741 
       0.220989         302.451         282.294         282.294 
       0.227147         294.157          268.59          268.59 
        0.23329          283.03         257.751         257.751 
       0.239377         275.738         248.385         248.385 
       0.245482         262.628         239.073         239.073 
       0.251667         250.569         228.938         228.938 
       0.257832         244.894         218.003         218.003 
       0.263955         229.508         206.741         206.741 
       0.270079         218.604          195.78          195.78 
        0.27624          207.85         185.695         185.695 
       0.282372         200.466         176.971         176.971 
        0.28843         197.495         169.656         169.656 
       0.294538         188.212         163.325         163.325 
       0.300721         180.615         157.571         157.571 
        0.30691         177.208         152.037         152.037 
       0.313033         169.279         146.511         146.511 
       0.319153         165.686         140.834         140.834 
       0.325316         159.144         135.061         135.061 
        0.33145         153.516         129.437         129.437 
       0.337538         147.829         124.173         124.173 
       0.343633         142.851         119.351         119.351 
       0.349808         138.133         114.956         114.956 
       0.355968         134.315         111.008         111.008 
       0.362074         131.169           107.4           107.4 
       0.368217         127.998         103.955         103.955 
       0.374374         124.603         100.578         100.578 
       0.380519         119.233         97.2352         97.2352 
       0.386598         116.278         93.9659         93.9659 
       0.392688         112.481         90.7619         90.7619 
        0.39888         110.233         87.6389         87.6389 
       0.405048         107.362         84.7104         84.7104 
       0.411186         105.032         81.9878         81.9878 
       0.417313         102.126         79.4596         79.4596 
       0.423458         99.4025         77.0804         77.0804 
       0.429607         97.1693         74.8125         74.8125 
       0.435692         95.4719         72.6478         72.6478 
       0.441815         92.3299          70.529          70.529 
       0.447964         89.2298         68.4478         68.4478 
       0.454126         87.5427         66.4181         66.4181 
       0.460267         86.6136         64.4673         64.4673 
       0.466387         84.2563         62.6059         62.6059 
        0.47254         83.0843         60.8213         60.8213 
       0.478662         80.0643         59.1343         59.1343 
       0.484765         78.6605         57.5355         57.5355 
       0.490885         76.6493         56.0013         56.0013 
       0.497035         75.8034         54.5149         54.5149 
       0.503198         74.0241         53.0727         53.0727 
       0.509342          71.996         51.6792         51.6792 
       0.515458         70.8354         50.3344         50.3344 
       0.521598         69.0292         49.0261         49.0261 
       0.527764           68.17         47.7569         47.7569 
       0.533884         67.3018          46.544          46.544 
           0.54         65.4332         45.3806         45.3806 
       0.546137         63.6659         44.2594         44.2594 
       0.552299         62.5218         43.1751         43.1751 
       0.558452         61.2543         42.1298         42.1298 
       0.564573         60.8168         41.1226         41.1226 
       0.570708         58.9936         40.1445         40.1445 
       0.576825         58.3424         39.1998         39.1998 
       0.582926         57.5178         38.2869         38.2869 
       0.589034         56.3189         37.4013         37.4013 
       0.595184         55.4775         36.5377         36.5377 
       0.601379         54.0841         35.6959         35.6959 
       0.607522         53.0578         34.8881         34.8881 
       0.613639         52.4979         34.1098         34.1098 
       0.619772         51.4035         33.3546         33.3546 
       0.625918         50.7072         32.6217         32.6217 
       0.632068         49.9537         31.9107         31.9107 
       0.638161         48.9456         31.2271         31.2271 
         0.6443         48.4761         30.5582         30.5582 
       0.650464         47.2687         29.9058         29.9058 
       0.656582         47.0132         29.2768         29.2768 
       0.662703         46.2601         28.6655         28.6655 
       0.668861         45.1598         28.0682         28.0682 
       0.675024          44.842         27.4878         27.4878 
       0.681124          44.255         26.9301         26.9301 
       0.687237         43.3357         26.3871         26.3871 
       0.693381         42.7806         25.8569         25.8569 
       0.699536         42.3161         25.3405         25.3405 
       0.705665         41.5847         24.8406         24.8406 
       0.711789         40.8956         24.3546         24.3546 
       0.717957         40.2147         23.8783         23.8783 
        0.72409         39.7731         23.4173         23.4173 
       0.730186         39.4946         22.9711         22.9711 
       0.736317         38.7299         22.5342         22.5342 
       0.742472         38.2214          22.107          22.107 
       0.748622         37.5847         21.6913         21.6913 
        0.75476         36.9641         21.2872         21.2872 
       0.760888         36.8674         20.8941         20.8941 
       0.767043         36.0728         20.5094         20.5094 
       0.773185         35.6038         20.1352         20.1352 
       0.779291         35.1448         19.7726         19.7726 
       0.785407         34.6617         19.4183         19.4183 
       0.791564          34.574         19.0706         19.0706 
       0.797719         33.8229         18.7316         18.7316 
       0.803834         33.6004         18.4031         18.4031 
       0.809972         33.0982         18.0812         18.0812 
       0.816124         32.7154         17.7664         17.7664 
       0.822261         32.2459           17.46           17.46 
       0.828378         32.0545         17.1617         17.1617 
       0.834502         31.6174         16.8701         16.8701 
       0.840667         31.3069         16.5835         16.5835 
       0.846816          30.784         16.3043         16.3043 
       0.852925         30.5334         16.0334         16.0334 
       0.859047         30.3346         15.7681         15.7681 
       0.865192         29.8038         15.5079         15.5079 
       0.871341          29.457         15.2534         15.2534 
       0.877463         29.1388         15.0058         15.0058 
       0.883569         28.9834         14.7644         14.7644 
       0.889708          28.591          14.527          14.527 
       0.895864         28.2528         14.2943         14.2943 
       0.902008         27.9471         14.0672         14.0672 
       0.908149         27.6208         13.8451         13.8451 
       0.914301         27.3745         13.6275         13.6275 
       0.920448         27.1271         13.4148         13.4148 
       0.926574         26.7215         13.2074         13.2074 
       0.932687         26.4537         13.0048         13.0048 
       0.938823            26.1         12.8058         12.8058 
       0.944975         25.8649         12.6105         12.6105 
       0.951105         25.6601         12.4199         12.4199 
       0.957225         25.4461         12.2336         12.2336 
       0.963368         25.1168         12.0505         12.0505 
       0.969511         24.8904         11.8712         11.8712 
       0.975621         24.6862         11.6965         11.6965 
       0.981748         24.3768         11.5248         11.5248 
       0.987916         24.1914         11.3555         11.3555 
        0.99406         23.8959         11.1903         11.1903 
        1.00019         23.7252         11.0287         11.0287 
        1.00632         23.5158         10.8704         10.8704 
        1.01246          23.272          10.715          10.715 
        1.01859         23.0402         10.5629         10.5629 
        1.02471         22.8043         10.4139         10.4139 
        1.03085         22.6706         10.2673         10.2673 
        1.03698         22.4965         10.1238         10.1238 
        1.04314         22.2476         9.98248         9.98248 
        1.04929         21.9438         9.84416         9.84416 
        1.05541         21.8802         9.70902         9.70902 
        1.06154         21.6983         9.57609         9.57609 
        1.06769         21.3579         9.44544         9.44544 
        1.07382         21.2431         9.31767         9.31767 
        1.07993          21.058         9.19256         9.19256 
        1.08607         20.8721         9.06922         9.06922 
        1.09222         20.7031         8.94804         8.94804 
        1.09836         20.4798         8.82921         8.82921 
        1.10449         20.3924         8.71268         8.71268 
        1.11063         20.1802         8.59812         8.59812 
        1.11677          20.105         8.48567         8.48567 
         1.1229         19.8764         8.37543         8.37543 
        1.12903         19.6785         8.26705         8.26705 
        1.13518         19.6118          8.1605          8.1605 
        1.14131          19.416         8.05589         8.05589 
        1.14745         19.1872         7.95317         7.95317 
        1.15359         18.9814         7.85223         7.85223 
        1.15973         18.8947           7.753           7.753 
        1.16584         18.7337         7.65592         7.65592 
        1.17197          18.512         7.56038         7.56038 
        1.17811         18.4212         7.46617         7.46617 
        1.18424         18.1984         7.37384         7.37384 
        1.19038         18.1383         7.28281         7.28281 
        1.19652         17.9375         7.19335         7.19335 
        1.20267         17.8692         7.10539         7.10539 
        1.20881         17.6853         7.01892         7.01892 
        1.21495         17.5995         6.93402         6.93402 
        1.22108         17.5054         6.85054         6.85054 
         1.2272         17.3382         6.76862         6.76862 
        1.23334         17.2317         6.68786         6.68786 
        1.23949         17.0709         6.60822         6.60822 
        1.24562         16.8888         6.53009         6.53009 
        1.25174         16.8234         6.45335         6.45335 
        1.25789         16.7258          6.3776          6.3776 
        1.26402         16.5945          6.3032          6.3032 
        1.27014         16.4822         6.23017         6.23017 
        1.27628         16.3127         6.15807         6.15807 
        1.28244         16.2983         6.08698         6.08698 
        1.28858         16.1058          6.0171          6.0171 
        1.29471         15.9559         5.94848         5.94848 
        1.30084         15.8445         5.88099         5.88099 
        1.30697         15.7632         5.81445         5.81445 
        1.31312          15.634         5.74883         5.74883 
        1.31925         15.5324         5.68444         5.68444 
        1.32537         15.3984          5.6211          5.6211 
        1.33151         15.2827          5.5585          5.5585 
        1.33765         15.2509         5.49688         5.49688 
        1.34378         15.1412         5.43632         5.43632 
        1.34992         15.0039         5.37663         5.37663 
        1.35606         14.8799         5.31771         5.31771 
         1.3622          14.792         5.25977         5.25977 
        1.36833         14.7377         5.20284         5.20284 
        1.37445         14.6158         5.14677         5.14677 
        1.38059         14.5089         5.09136         5.09136 
        1.38675          14.426         5.03663         5.03663 
        1.39288         14.3017         4.98293         4.98293 
        1.39901         14.2048         4.93003         4.93003 
        1.40515         14.1401         4.87778         4.87778 
         1.4113         14.0542          4.8263          4.8263 
        1.41742         13.9759         4.77577         4.77577 
        1.42355         13.8469         4.72586         4.72586 
         1.4297         13.7591         4.67652         4.67652 
        1.43585         13.6729          4.6279          4.6279 
        1.44198         13.6314         4.58015         4.58015 
        1.44809         13.5259         4.53317         4.53317 
        1.45423         13.4335         4.48667         4.48667 
        1.46036         13.3527         4.44091         4.44091 
        1.46649         13.2634         4.39577         4.39577 
        1.47263         13.1759         4.35121         4.35121 
        1.47877         13.0958          4.3073          4.3073 
        1.48491          13.024         4.26392         4.26392 
        1.49104         12.9379         4.22122         4.22122 
        1.49718          12.896         4.17908         4.17908 
        1.50333         12.8234         4.13744         4.13744 
        1.50947         12.7202         4.09645         4.09645 
         1.5156         12.6603         4.05608         4.05608 
        1.52172         12.5643         4.01625         4.01625 
        1.52787         12.5308         3.97688         3.97688 
          1.534         12.4446         3.93808         3.93808 
        1.54013         12.3863         3.89984         3.89984 
        1.54627          12.267         3.86203         3.86203 
        1.55241         12.1837         3.82472         3.82472 
        1.55855         12.1415         3.78795         3.78795 
        1.56467         12.0837         3.75177         3.75177 
         1.5708         12.0152         3.71596         3.71596 
        1.57695         11.9561         3.68056         3.68056 
        1.58308         11.8546          3.6457          3.6457 
        1.58922         11.7967         3.61127         3.61127 
        1.59535         11.7341          3.5773          3.5773 
         1.6015          11.645         3.54371         3.54371 
        1.60764         11.5951         3.51057         3.51057 
        1.61376          11.543         3.47795         3.47795 
        1.61989         11.4372         3.44571         3.44571 
        1.62604         11.4025         3.41381         3.41381 
        1.63218         11.3486         3.38232         3.38232 
        1.63831         11.2645         3.35131         3.35131 
        1.64444         11.2009         3.32068         3.32068 
        1.65059         11.1458         3.29035         3.29035 
        1.65673         11.0936         3.26044         3.26044 
        1.66285         11.0044         3.23098         3.23098 
        1.66898         10.9746         3.20187         3.20187 
        1.67512         10.9485         3.17306         3.17306 
        1.68127         10.8639         3.14459         3.14459 
         1.6874         10.8247         3.11652         3.11652 
        1.69353         10.7072         3.08881         3.08881 
        1.69967         10.6694         3.06138         3.06138 
        1.70581         10.6258         3.03429         3.03429 
        1.71193         10.5581         3.00762         3.00762 
        1.71806         10.5101         2.98122         2.98122 
        1.72421         10.4533         2.95509         2.95509 
        1.73035         10.4024          2.9293          2.9293 
        1.73649         10.3588         2.90382         2.90382 
        1.74262          10.289         2.87866         2.87866 
        1.74876          10.245         2.85378         2.85378 
        1.75489         10.1958         2.82925         2.82925 
        1.76101         10.1146         2.80501         2.80501 
        1.76715         10.0987         2.78103         2.78103 
        1.77329         10.0271         2.75729         2.75729 
        1.77943         9.97596         2.73382         2.73382 
        1.78557          9.9594         2.71065         2.71065 
        1.79171         9.87519         2.68775         2.68775 
        1.79785         9.82267         2.66511         2.66511 
        1.80399         9.77457         2.64273         2.64273 
        1.81012         9.73651         2.62064         2.62064 
        1.81625          9.6834         2.59881         2.59881 
        1.82239         9.63161          2.5772          2.5772 
        1.82853         9.58353         2.55584         2.55584 
        1.83466         9.51959         2.53474         2.53474 
        1.84078         9.48235          2.5139          2.5139 
        1.84692         9.47203         2.49327         2.49327 
        1.85306         9.40927         2.47284         2.47284 
         1.8592         9.37284         2.45267         2.45267 
        1.86533          9.2942         2.43273         2.43273 
        1.87147         9.25781           2.413           2.413 
        1.87761         9.22809         2.39347         2.39347 
