# k  (h/Mpc)    Pcb(k)  (Mpc/h)^3    Pcb_linear(k) (Mpc/h)^3    Pcb_NL(k) (Mpc/h)^3   ShotnoiseSubtracted = false
     0.00783031         21294.4         21401.6         21401.6 
       0.013688         24187.6         24909.7         24909.7 
       0.019231         23607.8         24019.1         24019.1 
      0.0249154         21299.2         21202.4         21202.4 
      0.0312784         17400.7         17562.8         17562.8 
      0.0375637         14267.4         14507.4         14507.4 
      0.0433917         12415.8         12459.9         12459.9 
      0.0492413         10972.9         11087.3         11087.3 
      0.0555754         10068.5         10103.7         10103.7 
      0.0619321         8999.94         9327.96         9327.96 
       0.067871         8412.96         8583.32         8583.32 
      0.0738098         7696.78         7740.27         7740.27 
      0.0800417         6805.87         6788.82         6788.82 
      0.0862327         5913.62         5883.37         5883.37 
      0.0921407         5263.18         5151.79         5151.79 
      0.0982031         4782.82          4584.2          4584.2 
       0.104506         4297.73         4183.57         4183.57 
       0.110769          4051.5         3924.63         3924.63 
       0.116806         3901.94          3738.6          3738.6 
       0.122832         3678.78         3554.56         3554.56 
       0.129052         3431.32         3327.98         3327.98 
       0.135211            3277         3061.66         3061.66 
       0.141259         2969.71         2781.42         2781.42 
       0.147318         2715.91         2514.33         2514.33 
       0.153489         2527.25         2283.84         2283.84 
       0.159709         2423.82         2106.87         2106.87 
       0.165845         2233.27         1983.04         1983.04 
       0.171974         2182.89         1894.46         1894.46 
       0.178125         2119.12         1820.81         1820.81 
       0.184229         1953.17         1745.32         1745.32 
        0.19034         1916.15         1657.43         1657.43 
       0.196428         1847.05          1557.1          1557.1 
       0.202534         1720.88         1450.57         1450.57 
       0.208729         1676.93         1346.65         1346.65 
       0.214876          1587.8         1256.27         1256.27 
       0.220989         1510.12         1183.14         1183.14 
       0.227147         1466.24         1125.71         1125.71 
        0.23329         1409.16         1080.28         1080.28 
       0.239377         1402.01         1041.03         1041.03 
       0.245482         1334.31            1002            1002 
       0.251667         1284.76         959.522         959.522 
       0.257832         1258.23         913.687         913.687 
       0.263955         1198.05         866.488         866.488 
       0.270079          1161.7         820.549         820.549 
        0.27624         1112.62         778.282         778.282 
       0.282372         1097.68         741.716         741.716 
        0.28843          1074.1         711.057         711.057 
       0.294538         1025.53         684.523         684.523 
       0.300721         1005.92         660.406         660.406 
        0.30691         978.318         637.212         637.212 
       0.313033         940.041         614.051         614.051 
       0.319153         929.442          590.26          590.26 
       0.325316         915.606         566.064         566.064 
        0.33145         892.214         542.492         542.492 
       0.337538         861.936         520.429         520.429 
       0.343633         841.628          500.22          500.22 
       0.349808          825.01           481.8           481.8 
       0.355968         807.747         465.254         465.254 
       0.362074         780.737         450.131         450.131 
       0.368217         776.922         435.692         435.692 
       0.374374         765.062         421.537         421.537 
       0.380519         736.882         407.529         407.529 
       0.386598          731.45         393.827         393.827 
       0.392688         711.908         380.397         380.397 
        0.39888         697.902          367.31          367.31 
       0.405048         681.378         355.034         355.034 
       0.411186         680.717         343.625         343.625 
       0.417313         672.416         333.028         333.028 
       0.423458         654.441         323.057         323.057 
       0.429607          636.04         313.551         313.551 
       0.435692         628.596         304.479         304.479 
       0.441815         616.695         295.598         295.598 
       0.447964         607.528         286.876         286.876 
       0.454126         599.793         278.369         278.369 
       0.460267         591.675         270.193         270.193 
       0.466387         578.653         262.392         262.392 
        0.47254          572.45         254.912         254.912 
       0.478662         561.673         247.842         247.842 
       0.484765         553.928          241.14          241.14 
       0.490885         549.941         234.711         234.711 
       0.497035         536.894         228.481         228.481 
       0.503198          535.83         222.436         222.436 
       0.509342         525.481         216.596         216.596 
       0.515458         515.137          210.96          210.96 
       0.521598         513.186         205.476         205.476 
       0.527764         501.444         200.157         200.157 
       0.533884         495.231         195.074         195.074 
           0.54         491.712         190.197         190.197 
       0.546137         483.381         185.498         185.498 
       0.552299          480.18         180.954         180.954 
       0.558452         473.027         176.572         176.572 
       0.564573         470.956         172.351         172.351 
       0.570708         463.826         168.252         168.252 
       0.576825         455.257         164.292         164.292 
       0.582926         453.887         160.466         160.466 
       0.589034         445.916         156.755         156.755 
       0.595184         442.006         153.135         153.135 
       0.601379         434.742         149.607         149.607 
       0.607522         427.447         146.221         146.221 
       0.613639         426.377          142.96          142.96 
       0.619772         423.419         139.794         139.794 
       0.625918         415.554         136.722         136.722 
       0.632068         414.275         133.743         133.743 
       0.638161         408.725         130.878         130.878 
         0.6443         403.309         128.074         128.074 
       0.650464         399.964          125.34          125.34 
       0.656582         395.908         122.704         122.704 
       0.662703         392.984         120.142         120.142 
       0.668861         386.799         117.638         117.638 
       0.675024         385.448         115.206         115.206 
       0.681124         376.916         112.868         112.868 
       0.687237         376.798         110.593         110.593 
       0.693381         371.015          108.37          108.37 
       0.699536         371.033         106.206         106.206 
       0.705665         364.915         104.111         104.111 
       0.711789          363.17         102.074         102.074 
       0.717957         359.307         100.078         100.078 
        0.72409         355.185         98.1454         98.1454 
       0.730186         355.222         96.2756         96.2756 
       0.736317         349.333         94.4444         94.4444 
       0.742472         346.442          92.654          92.654 
       0.748622         345.185         90.9117         90.9117 
        0.75476         340.394         89.2181         89.2181 
       0.760888         338.721         87.5704         87.5704 
       0.767043         335.271          85.958          85.958 
       0.773185         332.216         84.3898         84.3898 
       0.779291          329.36         82.8699         82.8699 
       0.785407         326.754         81.3853         81.3853 
       0.791564         325.144          79.928          79.928 
       0.797719         319.999         78.5073         78.5073 
       0.803834          320.02         77.1302         77.1302 
       0.809972         314.921         75.7813         75.7813 
       0.816124         312.819         74.4618         74.4618 
       0.822261         310.473         73.1774         73.1774 
       0.828378         308.768         71.9272         71.9272 
       0.834502         304.129         70.7053         70.7053 
       0.840667         303.383          69.504          69.504 
       0.846816         299.727          68.334          68.334 
       0.852925         299.964         67.1984         67.1984 
       0.859047         295.809         66.0864         66.0864 
       0.865192         294.367         64.9959         64.9959 
       0.871341          291.12         63.9294         63.9294 
       0.877463         289.865         62.8917         62.8917 
       0.883569          287.85         61.8798         61.8798 
       0.889708         284.862          60.885          60.885 
       0.895864         281.212         59.9096         59.9096 
       0.902008         280.284         58.9577         58.9577 
       0.908149         277.206         58.0271         58.0271 
       0.914301         276.405         57.1151         57.1151 
       0.920448         273.059         56.2236         56.2236 
       0.926574         271.267         55.3543         55.3543 
       0.932687         270.722         54.5053         54.5053 
       0.938823          267.73         53.6711         53.6711 
       0.944975         267.342         52.8524         52.8524 
       0.951105         264.608         52.0538         52.0538 
       0.957225         261.664          51.273          51.273 
       0.963368         261.725         50.5057         50.5057 
       0.969511         257.896          49.754          49.754 
       0.975621          255.35         49.0217         49.0217 
       0.981748         254.992         48.3023         48.3023 
       0.987916         253.315         47.5928         47.5928 
        0.99406         250.513         46.9003         46.9003 
        1.00019         248.455         46.2229         46.2229 
        1.00632         247.701         45.5595         45.5595 
        1.01246         245.866         44.9082         44.9082 
        1.01859          243.48         44.2707         44.2707 
        1.02471          241.78         43.6463         43.6463 
        1.03085         240.585         43.0319         43.0319 
        1.03698         239.146         42.4305         42.4305 
        1.04314         237.818         41.8381         41.8381 
        1.04929         236.097         41.2584         41.2584 
        1.05541          234.99          40.692          40.692 
        1.06154         232.399         40.1348         40.1348 
        1.06769         230.877         39.5873         39.5873 
        1.07382         228.671         39.0518         39.0518 
        1.07993         228.198         38.5274         38.5274 
        1.08607         226.679         38.0105         38.0105 
        1.09222          224.56         37.5026         37.5026 
        1.09836         223.253         37.0046         37.0046 
        1.10449         222.094         36.5162         36.5162 
        1.11063         220.656         36.0361         36.0361 
        1.11677         218.301         35.5648         35.5648 
         1.1229         218.166         35.1027         35.1027 
        1.12903          215.56         34.6485         34.6485 
        1.13518         214.261         34.2019         34.2019 
        1.14131          213.07         33.7635         33.7635 
        1.14745         211.304          33.333          33.333 
        1.15359         209.947         32.9099         32.9099 
        1.15973         208.965          32.494          32.494 
        1.16584         207.584         32.0871         32.0871 
        1.17197         206.482         31.6867         31.6867 
        1.17811         204.091         31.2919         31.2919 
        1.18424         203.132         30.9049         30.9049 
        1.19038          202.32         30.5234         30.5234 
        1.19652         200.019         30.1484         30.1484 
        1.20267         199.237         29.7798         29.7798 
        1.20881         197.952         29.4173         29.4173 
        1.21495         196.744         29.0615         29.0615 
        1.22108         195.517         28.7116         28.7116 
         1.2272         194.001         28.3683         28.3683 
        1.23334         192.487         28.0298         28.0298 
        1.23949         191.725         27.6961         27.6961 
        1.24562         190.205         27.3686         27.3686 
        1.25174         189.701          27.047          27.047 
        1.25789         187.747         26.7295         26.7295 
        1.26402         187.011         26.4177         26.4177 
        1.27014         185.796         26.1116         26.1116 
        1.27628         184.843         25.8094         25.8094 
        1.28244         182.948         25.5115         25.5115 
        1.28858         182.234         25.2186         25.2186 
        1.29471         180.775          24.931          24.931 
        1.30084          180.43         24.6481         24.6481 
        1.30697          178.81         24.3692         24.3692 
        1.31312         177.982         24.0942         24.0942 
        1.31925         176.752         23.8244         23.8244 
        1.32537         176.083         23.5589         23.5589 
        1.33151         174.151         23.2965         23.2965 
        1.33765         173.549         23.0383         23.0383 
        1.34378         172.675         22.7844         22.7844 
        1.34992         171.012         22.5343         22.5343 
        1.35606         170.331         22.2873         22.2873 
         1.3622         168.717         22.0445         22.0445 
        1.36833         168.513         21.8059         21.8059 
        1.37445         167.565         21.5709         21.5709 
        1.38059         165.691         21.3387         21.3387 
        1.38675         164.462         21.1093         21.1093 
        1.39288         163.986         20.8842         20.8842 
        1.39901         162.697         20.6625         20.6625 
        1.40515         161.717         20.4435         20.4435 
         1.4113         161.091         20.2278         20.2278 
        1.41742         159.846          20.016          20.016 
        1.42355         158.531         19.8068         19.8068 
         1.4297         157.792            19.6            19.6 
        1.43585         157.217         19.3962         19.3962 
        1.44198         155.863         19.1961         19.1961 
        1.44809         155.317         18.9992         18.9992 
        1.45423          154.31         18.8043         18.8043 
        1.46036         153.557         18.6125         18.6125 
        1.46649         152.129         18.4233         18.4233 
        1.47263          151.56         18.2366         18.2366 
        1.47877         150.535         18.0525         18.0525 
        1.48491         149.438         17.8707         17.8707 
        1.49104         148.222         17.6918         17.6918 
        1.49718         147.542         17.5151         17.5151 
        1.50333         146.447         17.3406         17.3406 
        1.50947         145.718         17.1689         17.1689 
         1.5156         144.789         16.9997         16.9997 
        1.52172         143.924         16.8327         16.8327 
        1.52787         143.209         16.6677         16.6677 
          1.534         142.584         16.5051         16.5051 
        1.54013         141.598         16.3448         16.3448 
        1.54627         140.744         16.1864         16.1864 
        1.55241         139.964           16.03           16.03 
        1.55855          138.99         15.8759         15.8759 
        1.56467         138.126         15.7242         15.7242 
         1.5708         137.417         15.5741         15.5741 
        1.57695         136.676         15.4258         15.4258 
        1.58308          135.61         15.2797         15.2797 
        1.58922          134.74         15.1354         15.1354 
        1.59535         133.949          14.993          14.993 
         1.6015         133.148         14.8522         14.8522 
        1.60764         132.267         14.7133         14.7133 
        1.61376         131.662         14.5766         14.5766 
        1.61989         130.774         14.4415         14.4415 
        1.62604         130.302         14.3078         14.3078 
        1.63218         129.188         14.1758         14.1758 
        1.63831         128.574         14.0459         14.0459 
        1.64444         127.635         13.9175         13.9175 
        1.65059         126.914         13.7904         13.7904 
        1.65673          126.11          13.665          13.665 
        1.66285         125.506         13.5415         13.5415 
        1.66898         124.791         13.4195         13.4195 
        1.67512         123.657         13.2988         13.2988 
        1.68127         123.267         13.1794         13.1794 
         1.6874         122.465         13.0618         13.0618 
        1.69353         121.822         12.9457         12.9457 
        1.69967         121.078         12.8307         12.8307 
        1.70581         120.323         12.7171         12.7171 
        1.71193         119.809         12.6054         12.6054 
        1.71806         118.803         12.4948         12.4948 
        1.72421         117.993         12.3852         12.3852 
        1.73035         117.639         12.2771         12.2771 
        1.73649         116.879         12.1703         12.1703 
        1.74262         115.949         12.0649         12.0649 
        1.74876         115.245         11.9606         11.9606 
        1.75489         115.021         11.8578         11.8578 
        1.76101         114.065         11.7562         11.7562 
        1.76715          113.44         11.6557         11.6557 
        1.77329         112.787         11.5562         11.5562 
        1.77943         111.879         11.4578         11.4578 
        1.78557         111.139         11.3607         11.3607 
        1.79171         110.523         11.2648         11.2648 
        1.79785          109.86         11.1699         11.1699 
        1.80399         109.239         11.0761         11.0761 
        1.81012         108.903         10.9835         10.9835 
        1.81625         107.897          10.892          10.892 
        1.82239         107.583         10.8014         10.8014 
        1.82853         106.748         10.7119         10.7119 
        1.83466         105.993         10.6235         10.6235 
        1.84078         105.586         10.5361         10.5361 
        1.84692         104.845         10.4497         10.4497 
        1.85306         104.212          10.364          10.364 
         1.8592         103.653         10.2795         10.2795 
        1.86533         102.955         10.1959         10.1959 
        1.87147          102.27         10.1132         10.1132 
