# k  (h/Mpc)    Pcb(k)  (Mpc/h)^3    Pcb_linear(k) (Mpc/h)^3    Pcb_NL(k) (Mpc/h)^3   ShotnoiseSubtracted = false
     0.00783031         11398.8         11465.5         11465.5 
       0.013688         13051.7         13347.9         13347.9 
       0.019231         12718.2           12872           12872 
      0.0249154           11416         11363.1         11363.1 
      0.0312784         9373.14         9412.89         9412.89 
      0.0375637         7698.44         7775.51         7775.51 
      0.0433917         6681.64         6678.23         6678.23 
      0.0492413         5911.03         5942.61         5942.61 
      0.0555754         5424.55         5415.45         5415.45 
      0.0619321         4881.72          4999.7          4999.7 
       0.067871         4555.12          4600.6          4600.6 
      0.0738098         4142.96         4148.75         4148.75 
      0.0800417         3659.73         3638.78         3638.78 
      0.0862327         3170.46         3153.48         3153.48 
      0.0921407          2799.8         2761.35         2761.35 
      0.0982031         2529.56         2457.14         2457.14 
       0.104506         2275.12          2242.4          2242.4 
       0.110769         2142.23         2103.61         2103.61 
       0.116806         2065.86          2003.9          2003.9 
       0.122832         1942.61         1905.26         1905.26 
       0.129052         1822.98         1783.81         1783.81 
       0.135211         1718.25         1641.06         1641.06 
       0.141259         1555.26         1490.85         1490.85 
       0.147318         1407.48         1347.69         1347.69 
       0.153489          1300.8         1224.15         1224.15 
       0.159709         1232.96         1129.29         1129.29 
       0.165845         1134.39         1062.92         1062.92 
       0.171974          1113.3         1015.44         1015.44 
       0.178125         1073.31         975.963         975.963 
       0.184229         1000.13         935.502         935.502 
        0.19034         971.557         888.394         888.394 
       0.196428           928.9         834.616         834.616 
       0.202534         855.035         777.517         777.517 
       0.208729         828.961         721.812         721.812 
       0.214876         784.949         673.368         673.368 
       0.220989         733.643         634.173         634.173 
       0.227147         715.056         603.389         603.389 
        0.23329         687.969         579.038         579.038 
       0.239377         677.793         557.998         557.998 
       0.245482         643.092         537.078         537.078 
       0.251667          616.54         514.311         514.311 
       0.257832         605.431         489.743         489.743 
       0.263955         569.908         464.444         464.444 
       0.270079         546.521          439.82          439.82 
        0.27624         521.843         417.165         417.165 
       0.282372         508.889         397.565         397.565 
        0.28843         503.129         381.132         381.132 
       0.294538         477.087         366.909         366.909 
       0.300721         462.812         353.983         353.983 
        0.30691         453.969         341.551         341.551 
       0.313033         432.624         329.136         329.136 
       0.319153         424.796         316.384         316.384 
       0.325316         415.518         303.415         303.415 
        0.33145         404.053          290.78          290.78 
       0.337538         388.505         278.954         278.954 
       0.343633         376.336         268.122         268.122 
       0.349808         366.295         258.248         258.248 
       0.355968         358.656          249.38          249.38 
       0.362074         346.211         241.274         241.274 
       0.368217         342.882         233.534         233.534 
       0.374374          335.33         225.947         225.947 
       0.380519         321.364         218.439         218.439 
       0.386598         316.741         211.094         211.094 
       0.392688             308         203.896         203.896 
        0.39888         300.293         196.881         196.881 
       0.405048         293.444         190.301         190.301 
       0.411186         291.643         184.186         184.186 
       0.417313         286.143         178.505         178.505 
       0.423458         278.372         173.161         173.161 
       0.429607         270.218         168.066         168.066 
       0.435692         265.662         163.203         163.203 
       0.441815         260.663         158.443         158.443 
       0.447964         253.377         153.768         153.768 
       0.454126         249.926         149.208         149.208 
       0.460267         246.078         144.826         144.826 
       0.466387         240.458         140.644         140.644 
        0.47254         237.256         136.635         136.635 
       0.478662         230.845         132.845         132.845 
       0.484765         227.502         129.253         129.253 
       0.490885         224.428         125.807         125.807 
       0.497035         220.419         122.467         122.467 
       0.503198         218.572         119.228         119.228 
       0.509342         212.954         116.097         116.097 
       0.515458         209.448         113.076         113.076 
       0.521598          204.86         110.137         110.137 
       0.527764         202.689         107.286         107.286 
       0.533884         201.149         104.561         104.561 
           0.54         196.975         101.947         101.947 
       0.546137         192.337         99.4285         99.4285 
       0.552299         190.651         96.9928         96.9928 
       0.558452         187.285         94.6443         94.6443 
       0.564573         186.046         92.3818         92.3818 
       0.570708         181.683         90.1845         90.1845 
       0.576825         178.929         88.0621         88.0621 
       0.582926         177.188         86.0113         86.0113 
       0.589034         174.167         84.0219         84.0219 
       0.595184         172.574         82.0819         82.0819 
       0.601379         169.539         80.1907         80.1907 
       0.607522         165.683         78.3759         78.3759 
       0.613639         164.657         76.6275         76.6275 
       0.619772         163.105          74.931          74.931 
       0.625918         161.076         73.2844         73.2844 
       0.632068         157.727         71.6872         71.6872 
       0.638161         156.554         70.1515         70.1515 
         0.6443         154.939         68.6488         68.6488 
       0.650464         151.936         67.1833         67.1833 
       0.656582         150.774         65.7701         65.7701 
       0.662703         149.376         64.3969         64.3969 
       0.668861         146.212         63.0552         63.0552 
       0.675024         145.954         61.7513         61.7513 
       0.681124         143.715         60.4984         60.4984 
       0.687237         142.191         59.2786         59.2786 
       0.693381         140.041         58.0874         58.0874 
       0.699536         138.914         56.9274         56.9274 
       0.705665         137.257         55.8043         55.8043 
       0.711789         135.241         54.7125         54.7125 
       0.717957          133.89         53.6424         53.6424 
        0.72409         132.193         52.6067         52.6067 
       0.730186         132.405         51.6046         51.6046 
       0.736317         130.336          50.623          50.623 
       0.742472          128.22         49.6633         49.6633 
       0.748622         126.296         48.7295         48.7295 
        0.75476         126.737         47.8217         47.8217 
       0.760888         125.009         46.9385         46.9385 
       0.767043         122.738         46.0742         46.0742 
       0.773185         121.422         45.2337         45.2337 
       0.779291         120.156         44.4189         44.4189 
       0.785407         119.231         43.6232         43.6232 
       0.791564         118.162         42.8421         42.8421 
       0.797719         116.279         42.0806         42.0806 
       0.803834         116.396         41.3424         41.3424 
       0.809972         115.109         40.6194         40.6194 
       0.816124         113.111         39.9122         39.9122 
       0.822261         112.335         39.2237         39.2237 
       0.828378         111.886         38.5536         38.5536 
       0.834502         110.536         37.8986         37.8986 
       0.840667         109.932         37.2547         37.2547 
       0.846816          108.34         36.6276         36.6276 
       0.852925         107.464         36.0189         36.0189 
       0.859047         106.453         35.4229         35.4229 
       0.865192         105.714         34.8384         34.8384 
       0.871341         104.669         34.2667         34.2667 
       0.877463          103.72         33.7105         33.7105 
       0.883569         103.537         33.1681         33.1681 
       0.889708         102.468         32.6349         32.6349 
       0.895864         101.431         32.1121         32.1121 
       0.902008         100.176         31.6018         31.6018 
       0.908149         99.0677          31.103          31.103 
       0.914301         98.7042         30.6142         30.6142 
       0.920448         98.6249         30.1363         30.1363 
       0.926574         96.6223         29.6704         29.6704 
       0.932687         96.5137         29.2153         29.2153 
       0.938823         95.7614         28.7682         28.7682 
       0.944975          94.847         28.3293         28.3293 
       0.951105         93.8948         27.9013         27.9013 
       0.957225         93.5135         27.4828         27.4828 
       0.963368          92.546         27.0715         27.0715 
       0.969511         91.8731         26.6686         26.6686 
       0.975621         90.6724         26.2761         26.2761 
       0.981748         90.2198         25.8905         25.8905 
       0.987916         89.5925         25.5102         25.5102 
        0.99406         89.1896          25.139          25.139 
        1.00019         88.2859         24.7759         24.7759 
        1.00632         87.4743         24.4203         24.4203 
        1.01246         86.9363         24.0712         24.0712 
        1.01859         86.4425         23.7295         23.7295 
        1.02471         85.8233         23.3948         23.3948 
        1.03085         84.9749         23.0654         23.0654 
        1.03698         84.2835         22.7431         22.7431 
        1.04314         83.8119         22.4256         22.4256 
        1.04929         83.3314         22.1148         22.1148 
        1.05541          82.619         21.8113         21.8113 
        1.06154          81.905         21.5126         21.5126 
        1.06769         81.4624         21.2191         21.2191 
        1.07382         80.8624         20.9321         20.9321 
        1.07993         80.3943          20.651          20.651 
        1.08607         79.8475          20.374          20.374 
        1.09222         79.2802         20.1017         20.1017 
        1.09836         78.6174         19.8348         19.8348 
        1.10449         78.1313          19.573          19.573 
        1.11063         77.5276         19.3156         19.3156 
        1.11677         77.1094          19.063          19.063 
         1.1229         76.3213         18.8154         18.8154 
        1.12903          75.926         18.5719         18.5719 
        1.13518           75.36         18.3325         18.3325 
        1.14131         74.9293         18.0975         18.0975 
        1.14745         74.5815         17.8668         17.8668 
        1.15359         73.6873           17.64           17.64 
        1.15973         73.5097         17.4171         17.4171 
        1.16584         72.9769          17.199          17.199 
        1.17197         72.5785         16.9843         16.9843 
        1.17811         71.9506         16.7727         16.7727 
        1.18424         71.4038         16.5653         16.5653 
        1.19038         71.1528         16.3608         16.3608 
        1.19652         70.7038         16.1598         16.1598 
        1.20267         70.1576         15.9622         15.9622 
        1.20881         69.6287          15.768          15.768 
        1.21495         69.2244         15.5772         15.5772 
        1.22108         68.9488         15.3897         15.3897 
         1.2272         68.3687         15.2057         15.2057 
        1.23334         68.1549         15.0242         15.0242 
        1.23949         67.6163         14.8453         14.8453 
        1.24562         66.9933         14.6698         14.6698 
        1.25174         66.8203         14.4974         14.4974 
        1.25789         66.3842         14.3272         14.3272 
        1.26402         66.0181         14.1601         14.1601 
        1.27014         65.5001          13.996          13.996 
        1.27628         65.1043         13.8341         13.8341 
        1.28244         65.0153         13.6744         13.6744 
        1.28858         64.3752         13.5174         13.5174 
        1.29471         63.9485         13.3632         13.3632 
        1.30084         63.3873         13.2116         13.2116 
        1.30697         63.3098         13.0621         13.0621 
        1.31312         62.9144         12.9147         12.9147 
        1.31925         62.3416         12.7701         12.7701 
        1.32537         62.0839         12.6278         12.6278 
        1.33151         61.8711         12.4871         12.4871 
        1.33765         61.3759         12.3487         12.3487 
        1.34378         60.9949         12.2127         12.2127 
        1.34992         60.7782         12.0786         12.0786 
        1.35606         60.3263         11.9462         11.9462 
         1.3622           60.13          11.816          11.816 
        1.36833         59.6562         11.6881         11.6881 
        1.37445         59.2751         11.5622         11.5622 
        1.38059         59.0126         11.4377         11.4377 
        1.38675         58.4692         11.3148         11.3148 
        1.39288         58.2427         11.1941         11.1941 
        1.39901         57.8513         11.0753         11.0753 
        1.40515         57.5555         10.9579         10.9579 
         1.4113         57.2751         10.8423         10.8423 
        1.41742         56.8936         10.7287         10.7287 
        1.42355         56.7377         10.6166         10.6166 
         1.4297         56.3604         10.5058         10.5058 
        1.43585         56.0441         10.3965         10.3965 
        1.44198         55.6315         10.2893         10.2893 
        1.44809         55.1663         10.1837         10.1837 
        1.45423         55.1594         10.0793         10.0793 
        1.46036         54.7963         9.97648         9.97648 
        1.46649          54.364         9.87506         9.87506 
        1.47263         54.0782         9.77498         9.77498 
        1.47877         53.8279         9.67632         9.67632 
        1.48491           53.43         9.57886         9.57886 
        1.49104         53.1329         9.48295         9.48295 
        1.49718         52.9083         9.38827         9.38827 
        1.50333         52.6897         9.29473         9.29473 
        1.50947         52.3954         9.20266         9.20266 
         1.5156         52.2316         9.11196         9.11196 
        1.52172         51.7275         9.02249         9.02249 
        1.52787         51.4702         8.93404         8.93404 
          1.534         51.1376         8.84687         8.84687 
        1.54013         51.0931         8.76096         8.76096 
        1.54627         50.5671         8.67603         8.67603 
        1.55241         50.4984         8.59221         8.59221 
        1.55855         50.0086         8.50962         8.50962 
        1.56467         49.6408         8.42833         8.42833 
         1.5708         49.6107         8.34788         8.34788 
        1.57695         49.2639         8.26835         8.26835 
        1.58308         49.0525         8.19005         8.19005 
        1.58922         48.7914          8.1127          8.1127 
        1.59535         48.7192         8.03637         8.03637 
         1.6015         48.4053         7.96092         7.96092 
        1.60764         48.0835         7.88647         7.88647 
        1.61376         47.8528         7.81318         7.81318 
        1.61989         47.4109         7.74076         7.74076 
        1.62604         47.3251         7.66909         7.66909 
        1.63218         47.0304         7.59837         7.59837 
        1.63831         46.8343          7.5287          7.5287 
        1.64444         46.6568         7.45988         7.45988 
        1.65059         46.2957         7.39175         7.39175 
        1.65673         46.0742         7.32455         7.32455 
        1.66285         45.8029         7.25837         7.25837 
        1.66898         45.5071         7.19298         7.19298 
        1.67512         45.2506         7.12827         7.12827 
        1.68127         45.1992         7.06429         7.06429 
         1.6874         44.9056         7.00124         7.00124 
        1.69353         44.6034           6.939           6.939 
        1.69967         44.4463         6.87736         6.87736 
        1.70581         44.1795          6.8165          6.8165 
        1.71193          43.915          6.7566          6.7566 
        1.71806         43.7692          6.6973          6.6973 
        1.72421         43.5197         6.63859         6.63859 
        1.73035         43.3167         6.58064         6.58064 
        1.73649         43.0231          6.5234          6.5234 
        1.74262          42.737         6.46689         6.46689 
        1.74876         42.7545           6.411           6.411 
        1.75489         42.4172         6.35589         6.35589 
        1.76101         42.2618         6.30144         6.30144 
        1.76715         41.9854         6.24755         6.24755 
        1.77329         41.7266         6.19423         6.19423 
        1.77943         41.6876          6.1415          6.1415 
        1.78557         41.3758         6.08946         6.08946 
        1.79171          41.136         6.03801         6.03801 
        1.79785         40.9762         5.98715         5.98715 
        1.80399         40.7489         5.93688         5.93688 
        1.81012         40.5013         5.88725         5.88725 
        1.81625         40.3379         5.83821         5.83821 
        1.82239         40.0883         5.78965         5.78965 
        1.82853         39.9407         5.74167         5.74167 
        1.83466         39.7158         5.69428         5.69428 
        1.84078         39.4962         5.64747         5.64747 
        1.84692         39.4054         5.60111         5.60111 
        1.85306         39.1599         5.55521         5.55521 
         1.8592         38.8883          5.5099          5.5099 
        1.86533         38.7765         5.46511         5.46511 
        1.87147         38.5434         5.42078         5.42078 
