# k  (h/Mpc)    Pcb(k)  (Mpc/h)^3    Pcb_linear(k) (Mpc/h)^3    Pcb_NL(k) (Mpc/h)^3   ShotnoiseSubtracted = false
     0.00783031         2239.44         2263.84         2263.84 
       0.013688         2637.81          2636.3          2636.3 
       0.019231         2545.77         2542.69         2542.69 
      0.0249154         2230.74         2244.82         2244.82 
      0.0312784         1859.55         1859.66         1859.66 
      0.0375637         1542.95         1536.22         1536.22 
      0.0433917            1318         1319.46         1319.46 
      0.0492413         1176.08         1174.14         1174.14 
      0.0555754         1063.94            1070            1070 
      0.0619321         993.526         987.865         987.865 
       0.067871         905.368         909.015         909.015 
      0.0738098         816.185          819.74          819.74 
      0.0800417         714.216         718.981         718.981 
      0.0862327         622.439         623.093         623.093 
      0.0921407         548.022         545.616         545.616 
      0.0982031         485.802         485.507         485.507 
       0.104506         448.289         443.077         443.077 
       0.110769         419.346         415.654         415.654 
       0.116806         396.789         395.953         395.953 
       0.122832         378.985         376.463         376.463 
       0.129052          352.27         352.465         352.465 
       0.135211         324.551         324.261         324.261 
       0.141259         297.511         294.581         294.581 
       0.147318         270.864         266.294         266.294 
       0.153489         245.452         241.881         241.881 
       0.159709         227.387         223.139         223.139 
       0.165845         215.962         210.025         210.025 
       0.171974         204.268         200.644         200.644 
       0.178125          196.63         192.843         192.843 
       0.184229         188.915         184.848         184.848 
        0.19034          177.11          175.54          175.54 
       0.196428         168.519         164.914         164.914 
       0.202534         159.125         153.633         153.633 
       0.208729          147.41         142.626         142.626 
       0.214876          137.13         133.053         133.053 
       0.220989          130.81         125.307         125.307 
       0.227147         123.389         119.226         119.226 
        0.23329         118.478         114.415         114.415 
       0.239377         114.698         110.256         110.256 
       0.245482         109.038         106.123         106.123 
       0.251667         105.796         101.626         101.626 
       0.257832         101.029         96.7693         96.7693 
       0.263955         96.0343         91.7715         91.7715 
       0.270079         91.3778         86.9058         86.9058 
        0.27624         87.8661         82.4288         82.4288 
       0.282372         83.9973         78.5576         78.5576 
        0.28843         80.2606         75.3084         75.3084 
       0.294538         77.1066         72.4998         72.4998 
       0.300721         75.2009         69.9441         69.9441 
        0.30691         71.9814         67.4895         67.4895 
       0.313033           69.51         65.0342         65.0342 
       0.319153         66.0828         62.5165         62.5165 
       0.325316         64.6651         59.9522         59.9522 
        0.33145         61.8136         57.4571         57.4571 
       0.337538         59.8315          55.119          55.119 
       0.343633         57.4365         52.9799         52.9799 
       0.349808         55.5876         51.0282         51.0282 
       0.355968         53.9526         49.2759         49.2759 
       0.362074         52.1667         47.6749         47.6749 
       0.368217         50.4938         46.1443         46.1443 
       0.374374         48.8642         44.6465         44.6465 
       0.380519         47.5244         43.1621         43.1621 
       0.386598         46.0691         41.7106         41.7106 
       0.392688         44.9041         40.2893         40.2893 
        0.39888         43.3876         38.9023         38.9023 
       0.405048         42.1741         37.6021         37.6021 
       0.411186          41.013         36.3948         36.3948 
       0.417313         39.6389         35.2713         35.2713 
       0.423458         38.5407         34.2153         34.2153 
       0.429607         37.4348         33.2095         33.2095 
       0.435692         36.2589          32.248          32.248 
       0.441815         35.5235         31.3068         31.3068 
       0.447964          34.793          30.384          30.384 
       0.454126         33.3401         29.4831         29.4831 
       0.460267         32.6806         28.6163         28.6163 
       0.466387         31.6491         27.7901         27.7901 
        0.47254         31.0471         26.9988         26.9988 
       0.478662         30.4288         26.2498         26.2498 
       0.484765         29.4728         25.5393         25.5393 
       0.490885         28.7694         24.8583         24.8583 
       0.497035         28.3083         24.1992         24.1992 
       0.503198         27.5075         23.5593         23.5593 
       0.509342         26.7807           22.94           22.94 
       0.515458         26.1222         22.3426         22.3426 
       0.521598         25.6167         21.7623         21.7623 
       0.527764         25.0078         21.1995         21.1995 
       0.533884         24.5435         20.6612         20.6612 
           0.54          23.937         20.1442         20.1442 
       0.546137         23.5024          19.646          19.646 
       0.552299         23.0539         19.1648         19.1648 
       0.558452         22.3211         18.7013         18.7013 
       0.564573         21.9619         18.2547         18.2547 
       0.570708         21.5394         17.8204         17.8204 
       0.576825         20.9747         17.4006         17.4006 
       0.582926         20.5428          16.995          16.995 
       0.589034          19.959         16.6017         16.6017 
       0.595184         19.6708         16.2186         16.2186 
       0.601379         19.2353         15.8453         15.8453 
       0.607522         18.8737         15.4871         15.4871 
       0.613639         18.6321         15.1417         15.1417 
       0.619772         18.1228         14.8063         14.8063 
       0.625918         17.9733         14.4806         14.4806 
       0.632068         17.6603         14.1647         14.1647 
       0.638161         17.2196         13.8611         13.8611 
         0.6443         16.8564         13.5642         13.5642 
       0.650464         16.5094         13.2748         13.2748 
       0.656582         16.3769         12.9958         12.9958 
       0.662703         16.0397         12.7247         12.7247 
       0.668861         15.7095         12.4597         12.4597 
       0.675024         15.3918         12.2021         12.2021 
       0.681124          15.116         11.9545         11.9545 
       0.687237         14.8324         11.7133         11.7133 
       0.693381         14.6493         11.4778         11.4778 
       0.699536         14.2561         11.2485         11.2485 
       0.705665         14.1383         11.0264         11.0264 
       0.711789         13.8239         10.8107         10.8107 
       0.717957         13.5971         10.5992         10.5992 
        0.72409         13.3699         10.3946         10.3946 
       0.730186         13.1751         10.1966         10.1966 
       0.736317         13.0002         10.0027         10.0027 
       0.742472         12.7642         9.81314         9.81314 
       0.748622         12.5872         9.62867         9.62867 
        0.75476         12.3197         9.44934         9.44934 
       0.760888         12.1331         9.27486         9.27486 
       0.767043         11.9679          9.1041          9.1041 
       0.773185         11.7237         8.93802         8.93802 
       0.779291         11.6285         8.77703         8.77703 
       0.785407         11.4662         8.61979         8.61979 
       0.791564         11.2475         8.46543         8.46543 
       0.797719         10.9881         8.31495         8.31495 
       0.803834         10.9462         8.16908         8.16908 
       0.809972         10.8208         8.02621         8.02621 
       0.816124         10.5521         7.88646         7.88646 
       0.822261         10.4118         7.75042         7.75042 
       0.828378         10.2922           7.618           7.618 
       0.834502         10.1803         7.48858         7.48858 
       0.840667         9.99885         7.36134         7.36134 
       0.846816         9.80448         7.23743         7.23743 
       0.852925         9.70419         7.11715         7.11715 
       0.859047         9.57298         6.99937         6.99937 
       0.865192         9.47073         6.88388         6.88388 
       0.871341         9.35792         6.77092         6.77092 
       0.877463         9.18819         6.66102         6.66102 
       0.883569         9.04264         6.55385         6.55385 
       0.889708         8.88129         6.44849         6.44849 
       0.895864         8.79597         6.34518         6.34518 
       0.902008         8.71529         6.24436         6.24436 
       0.908149          8.6072         6.14579         6.14579 
       0.914301          8.5034          6.0492          6.0492 
       0.920448         8.34293         5.95478         5.95478 
       0.926574         8.24685         5.86272         5.86272 
       0.932687         8.14246         5.77279         5.77279 
       0.938823         8.02659         5.68444         5.68444 
       0.944975          7.9152         5.59773         5.59773 
       0.951105          7.8305         5.51315         5.51315 
       0.957225         7.76599         5.43046         5.43046 
       0.963368         7.66034         5.34919         5.34919 
       0.969511         7.57343         5.26958         5.26958 
       0.975621         7.48209         5.19202         5.19202 
       0.981748         7.37812         5.11582         5.11582 
       0.987916         7.30827         5.04067         5.04067 
        0.99406         7.19193         4.96732         4.96732 
        1.00019         7.07262         4.89558         4.89558 
        1.00632         7.04054         4.82531         4.82531 
        1.01246         6.95394         4.75633         4.75633 
        1.01859          6.8385         4.68881         4.68881 
        1.02471           6.788         4.62268         4.62268 
        1.03085         6.70673          4.5576          4.5576 
        1.03698         6.59478         4.49391         4.49391 
        1.04314         6.54757         4.43117         4.43117 
        1.04929         6.45684         4.36978         4.36978 
        1.05541         6.36902         4.30979         4.30979 
        1.06154         6.31805         4.25079         4.25079 
        1.06769         6.27676          4.1928          4.1928 
        1.07382         6.17802         4.13608         4.13608 
        1.07993          6.1061         4.08054         4.08054 
        1.08607         6.05193         4.02579         4.02579 
        1.09222         5.98638           3.972           3.972 
        1.09836         5.90716         3.91925         3.91925 
        1.10449         5.85258         3.86752         3.86752 
        1.11063          5.7781         3.81667         3.81667 
        1.11677         5.73921         3.76675         3.76675 
         1.1229         5.68631         3.71782         3.71782 
        1.12903          5.6075         3.66971         3.66971 
        1.13518         5.53521         3.62241         3.62241 
        1.14131          5.4811         3.57598         3.57598 
        1.14745         5.41941         3.53038         3.53038 
        1.15359         5.38028         3.48557         3.48557 
        1.15973         5.31629         3.44152         3.44152 
        1.16584         5.23713         3.39843         3.39843 
        1.17197         5.19611         3.35601         3.35601 
        1.17811         5.16425         3.31419         3.31419 
        1.18424           5.105         3.27321         3.27321 
        1.19038         5.07259          3.2328          3.2328 
        1.19652         5.00703         3.19308         3.19308 
        1.20267         4.94945         3.15404         3.15404 
        1.20881         4.92458         3.11565         3.11565 
        1.21495         4.87357         3.07797         3.07797 
        1.22108         4.80807         3.04091         3.04091 
         1.2272           4.769         3.00455         3.00455 
        1.23334         4.70956         2.96871         2.96871 
        1.23949         4.66285         2.93336         2.93336 
        1.24562         4.63174         2.89868         2.89868 
        1.25174         4.58769         2.86461         2.86461 
        1.25789         4.54613         2.83099         2.83099 
        1.26402         4.51639         2.79797         2.79797 
        1.27014         4.46681         2.76555         2.76555 
        1.27628         4.41187         2.73355         2.73355 
        1.28244         4.35977         2.70199         2.70199 
        1.28858         4.35172         2.67097         2.67097 
        1.29471         4.29379         2.64051         2.64051 
        1.30084         4.24557         2.61055         2.61055 
        1.30697          4.2371         2.58101         2.58101 
        1.31312         4.15836         2.55189         2.55189 
        1.31925         4.12629          2.5233          2.5233 
        1.32537         4.09051         2.49519         2.49519 
        1.33151         4.07572          2.4674          2.4674 
        1.33765          4.0201         2.44004         2.44004 
        1.34378         3.98796         2.41316         2.41316 
        1.34992         3.95941         2.38667         2.38667 
        1.35606          3.9139         2.36051         2.36051 
         1.3622         3.89024         2.33479         2.33479 
        1.36833         3.84672         2.30952         2.30952 
        1.37445         3.81713         2.28463         2.28463 
        1.38059         3.80046         2.26003         2.26003 
        1.38675         3.76173         2.23574         2.23574 
        1.39288         3.73617          2.2119          2.2119 
        1.39901         3.68527         2.18842         2.18842 
        1.40515         3.66223         2.16522         2.16522 
         1.4113         3.63008         2.14237         2.14237 
        1.41742         3.60126         2.11994         2.11994 
        1.42355         3.56359         2.09778         2.09778 
         1.4297         3.53958         2.07588         2.07588 
        1.43585         3.51987          2.0543          2.0543 
        1.44198         3.49517          2.0331          2.0331 
        1.44809         3.45731         2.01225         2.01225 
        1.45423         3.42548         1.99161         1.99161 
        1.46036         3.39367         1.97129         1.97129 
        1.46649         3.37149         1.95125         1.95125 
        1.47263          3.3378         1.93148         1.93148 
        1.47877         3.31097         1.91198         1.91198 
        1.48491         3.28933         1.89273         1.89273 
        1.49104          3.2633         1.87378         1.87378 
        1.49718         3.23594         1.85507         1.85507 
        1.50333         3.21495         1.83659         1.83659 
        1.50947         3.18156          1.8184          1.8184 
         1.5156           3.162         1.80048         1.80048 
        1.52172         3.14019          1.7828          1.7828 
        1.52787         3.11685         1.76532         1.76532 
          1.534           3.087          1.7481          1.7481 
        1.54013         3.06912         1.73112         1.73112 
        1.54627         3.03727         1.71434         1.71434 
        1.55241         3.01192         1.69778         1.69778 
        1.55855         2.99836         1.68146         1.68146 
        1.56467         2.97274          1.6654          1.6654 
         1.5708         2.95232          1.6495          1.6495 
        1.57695         2.92504         1.63379         1.63379 
        1.58308         2.89716         1.61831         1.61831 
        1.58922         2.88816         1.60303         1.60303 
        1.59535          2.8685         1.58795         1.58795 
         1.6015         2.83945         1.57304         1.57304 
        1.60764         2.81751         1.55833         1.55833 
        1.61376          2.8013         1.54385         1.54385 
        1.61989         2.77833         1.52954         1.52954 
        1.62604         2.75745         1.51538         1.51538 
        1.63218         2.74737          1.5014          1.5014 
        1.63831         2.72094         1.48764         1.48764 
        1.64444         2.70382         1.47404         1.47404 
        1.65059         2.67135         1.46058         1.46058 
        1.65673         2.66844          1.4473          1.4473 
        1.66285         2.63691         1.43422         1.43422 
        1.66898         2.62101          1.4213          1.4213 
        1.67512         2.60317         1.40851         1.40851 
        1.68127         2.58439         1.39587         1.39587 
         1.6874         2.57265         1.38341         1.38341 
        1.69353         2.54555         1.37111         1.37111 
        1.69967         2.53433         1.35894         1.35894 
        1.70581         2.51748         1.34691         1.34691 
        1.71193         2.49652         1.33507         1.33507 
        1.71806         2.48224         1.32335         1.32335 
        1.72421          2.4643         1.31175         1.31175 
        1.73035         2.45023          1.3003          1.3003 
        1.73649         2.43131         1.28899         1.28899 
        1.74262         2.41175         1.27782         1.27782 
        1.74876         2.39998         1.26678         1.26678 
        1.75489         2.38511         1.25589         1.25589 
        1.76101         2.36226         1.24513         1.24513 
        1.76715         2.35332         1.23448         1.23448 
        1.77329         2.33852         1.22395         1.22395 
        1.77943         2.31275         1.21353         1.21353 
        1.78557         2.30337         1.20324         1.20324 
        1.79171         2.28996         1.19308         1.19308 
        1.79785          2.2736         1.18303         1.18303 
        1.80399         2.25664          1.1731          1.1731 
        1.81012         2.24181         1.16329         1.16329 
        1.81625         2.22981          1.1536          1.1536 
        1.82239         2.21552         1.14401         1.14401 
        1.82853         2.19608         1.13453         1.13453 
        1.83466          2.1881         1.12516         1.12516 
        1.84078         2.17715         1.11591         1.11591 
        1.84692         2.16373         1.10675         1.10675 
        1.85306         2.14316         1.09768         1.09768 
         1.8592         2.12797         1.08873         1.08873 
        1.86533         2.11489         1.07988         1.07988 
        1.87147         2.10557         1.07112         1.07112 
