# k  (h/Mpc)    Pcb(k)  (Mpc/h)^3    Pcb_linear(k) (Mpc/h)^3    Pcb_NL(k) (Mpc/h)^3   ShotnoiseSubtracted = false
     0.00783031         5979.57         6052.34         6052.34 
       0.013688         7074.96         7044.68         7044.68 
       0.019231         6810.12         6793.43         6793.43 
      0.0249154          5934.9         5997.13         5997.13 
      0.0312784         4957.76         4967.92         4967.92 
      0.0375637         4124.74         4103.77         4103.77 
      0.0433917         3509.82         3524.66         3524.66 
      0.0492413         3139.71         3136.44         3136.44 
      0.0555754         2825.91         2858.22         2858.22 
      0.0619321         2659.93          2638.8          2638.8 
       0.067871         2408.57         2428.16         2428.16 
      0.0738098         2172.74         2189.68         2189.68 
      0.0800417         1898.54         1920.53         1920.53 
      0.0862327          1661.4         1664.39         1664.39 
      0.0921407         1471.41         1457.43         1457.43 
      0.0982031          1302.7         1296.87         1296.87 
       0.104506         1211.64         1183.53         1183.53 
       0.110769         1131.92         1110.28         1110.28 
       0.116806          1069.6         1057.65         1057.65 
       0.122832         1022.23         1005.59         1005.59 
       0.129052         945.805         941.486         941.486 
       0.135211         874.462         866.149         866.149 
       0.141259         807.953         786.868         786.868 
       0.147318         739.453         711.308         711.308 
       0.153489         670.033         646.099         646.099 
       0.159709         625.001         596.036         596.036 
       0.165845         596.158         561.006         561.006 
       0.171974         563.822         535.946         535.946 
       0.178125         542.001          515.11          515.11 
       0.184229          520.69         493.753         493.753 
        0.19034         485.189          468.89          468.89 
       0.196428         466.688         440.507         440.507 
       0.202534         443.712         410.373         410.373 
       0.208729         413.087         380.973         380.973 
       0.214876         386.011         355.402         355.402 
       0.220989         369.989         334.713         334.713 
       0.227147         350.049         318.468         318.468 
        0.23329         336.363         305.617         305.617 
       0.239377         327.392         294.508         294.508 
       0.245482         307.499         283.469         283.469 
       0.251667         301.322         271.456         271.456 
       0.257832          289.12         258.483         258.483 
       0.263955         275.973         245.134         245.134 
       0.270079         263.416         232.137         232.137 
        0.27624         256.274         220.178         220.178 
       0.282372         245.609         209.837         209.837 
        0.28843         235.996         201.159         201.159 
       0.294538         225.719         193.656         193.656 
       0.300721         222.246          186.83          186.83 
        0.30691         211.977         180.273         180.273 
       0.313033         205.981         173.715         173.715 
       0.319153         196.766         166.989         166.989 
       0.325316         192.039          160.14          160.14 
        0.33145         184.338         153.475         153.475 
       0.337538         180.376          147.23          147.23 
       0.343633         173.674         141.516         141.516 
       0.349808         167.902         136.303         136.303 
       0.355968         164.422         131.622         131.622 
       0.362074         159.604         127.346         127.346 
       0.368217         154.768         123.257         123.257 
       0.374374         149.706         119.256         119.256 
       0.380519         146.491         115.291         115.291 
       0.386598         142.288         111.414         111.414 
       0.392688         139.505         107.618         107.618 
        0.39888         135.568         103.913         103.913 
       0.405048         131.879          100.44          100.44 
       0.411186         128.698         97.2151         97.2151 
       0.417313         125.428          94.214          94.214 
       0.423458         122.359         91.3934         91.3934 
       0.429607         119.239         88.7066         88.7066 
       0.435692         115.314         86.1386         86.1386 
       0.441815         114.093         83.6244         83.6244 
       0.447964         111.799         81.1595         81.1595 
       0.454126         106.706          78.753          78.753 
       0.460267         105.336         76.4377         76.4377 
       0.466387          103.41         74.2307         74.2307 
        0.47254         101.075         72.1172         72.1172 
       0.478662          99.812         70.1165         70.1165 
       0.484765         96.7585         68.2186         68.2186 
       0.490885         94.9276         66.3997         66.3997 
       0.497035         93.5221         64.6391         64.6391 
       0.503198         90.7621         62.9297         62.9297 
       0.509342          88.879         61.2756         61.2756 
       0.515458         87.3698           59.68           59.68 
       0.521598         85.9467         58.1298         58.1298 
       0.527764         84.4701         56.6264         56.6264 
       0.533884          83.034         55.1887         55.1887 
           0.54         81.1826         53.8076         53.8076 
       0.546137          80.218          52.477          52.477 
       0.552299         78.8655         51.1916         51.1916 
       0.558452         76.9285         49.9534         49.9534 
       0.564573         75.4848         48.7605         48.7605 
       0.570708         74.3278         47.6006         47.6006 
       0.576825          73.115         46.4793         46.4793 
       0.582926         71.5284         45.3957         45.3957 
       0.589034         70.0922         44.3453         44.3453 
       0.595184         69.0932         43.3219         43.3219 
       0.601379         68.0855         42.3249         42.3249 
       0.607522          66.405         41.3679         41.3679 
       0.613639         66.0996         40.4453         40.4453 
       0.619772         64.5768         39.5494         39.5494 
       0.625918         63.7694         38.6795         38.6795 
       0.632068         62.9732         37.8357         37.8357 
       0.638161          62.009         37.0247         37.0247 
         0.6443         61.0762         36.2317         36.2317 
       0.650464         60.1472         35.4586         35.4586 
       0.656582         59.3214         34.7134         34.7134 
       0.662703           58.13         33.9891         33.9891 
       0.668861         57.3837         33.2814         33.2814 
       0.675024         56.5549         32.5933         32.5933 
       0.681124         55.7251         31.9319         31.9319 
       0.687237         54.6406         31.2878         31.2878 
       0.693381         54.0845         30.6587         30.6587 
       0.699536         53.2093         30.0461         30.0461 
       0.705665          53.293          29.453          29.453 
       0.711789         51.7755         28.8766         28.8766 
       0.717957         51.2777         28.3118         28.3118 
        0.72409         50.5404         27.7652         27.7652 
       0.730186         49.6793         27.2364         27.2364 
       0.736317         49.4534         26.7185         26.7185 
       0.742472         48.6904         26.2121         26.2121 
       0.748622         48.1218         25.7194         25.7194 
        0.75476         47.5161         25.2404         25.2404 
       0.760888         46.7499         24.7743         24.7743 
       0.767043         46.2271         24.3182         24.3182 
       0.773185         45.5847         23.8746         23.8746 
       0.779291         45.2705         23.4445         23.4445 
       0.785407         44.8337         23.0245         23.0245 
       0.791564         44.1318         22.6122         22.6122 
       0.797719         43.3134         22.2102         22.2102 
       0.803834         43.1459         21.8206         21.8206 
       0.809972         42.3497          21.439          21.439 
       0.816124         41.8689         21.0657         21.0657 
       0.822261         41.5067         20.7023         20.7023 
       0.828378         41.2071         20.3486         20.3486 
       0.834502         40.6714         20.0029         20.0029 
       0.840667         40.2148         19.6631         19.6631 
       0.846816         39.6041         19.3321         19.3321 
       0.852925         39.2717         19.0108         19.0108 
       0.859047         38.7087         18.6962         18.6962 
       0.865192         38.3688         18.3877         18.3877 
       0.871341         38.1741          18.086          18.086 
       0.877463         37.4074         17.7924         17.7924 
       0.883569         37.0866         17.5061         17.5061 
       0.889708         36.8174         17.2247         17.2247 
       0.895864         36.4132         16.9488         16.9488 
       0.902008         36.0634         16.6794         16.6794 
       0.908149         35.7144         16.4162         16.4162 
       0.914301         35.4582         16.1582         16.1582 
       0.920448          35.012          15.906          15.906 
       0.926574         34.6184           15.66           15.66 
       0.932687         34.3227         15.4198         15.4198 
       0.938823         33.7932         15.1838         15.1838 
       0.944975         33.6463         14.9522         14.9522 
       0.951105         33.2612         14.7263         14.7263 
       0.957225         32.8488         14.5054         14.5054 
       0.963368          32.817         14.2883         14.2883 
       0.969511         32.4343         14.0757         14.0757 
       0.975621         32.1639         13.8685         13.8685 
       0.981748         31.7294          13.665          13.665 
       0.987916         31.4621         13.4643         13.4643 
        0.99406          31.261         13.2683         13.2683 
        1.00019         30.8583         13.0767         13.0767 
        1.00632         30.6727          12.889          12.889 
        1.01246         30.4784         12.7047         12.7047 
        1.01859         29.9822         12.5244         12.5244 
        1.02471         29.9237         12.3477         12.3477 
        1.03085         29.6499         12.1739         12.1739 
        1.03698         29.2346         12.0038         12.0038 
        1.04314         29.0096         11.8362         11.8362 
        1.04929         28.7781         11.6722         11.6722 
        1.05541         28.4586          11.512          11.512 
        1.06154         28.3739         11.3544         11.3544 
        1.06769         28.0717         11.1995         11.1995 
        1.07382          27.883          11.048          11.048 
        1.07993          27.714         10.8996         10.8996 
        1.08607         27.3483         10.7534         10.7534 
        1.09222         27.2283         10.6097         10.6097 
        1.09836         26.9688         10.4688         10.4688 
        1.10449         26.7379         10.3306         10.3306 
        1.11063          26.387         10.1948         10.1948 
        1.11677         26.2645         10.0615         10.0615 
         1.1229         26.1333         9.93075         9.93075 
        1.12903         25.7618         9.80224         9.80224 
        1.13518         25.7025         9.67591         9.67591 
        1.14131         25.5646         9.55187         9.55187 
        1.14745         25.2168         9.43007         9.43007 
        1.15359         25.1758         9.31038         9.31038 
        1.15973         24.8493         9.19272         9.19272 
        1.16584         24.6339         9.07762         9.07762 
        1.17197         24.5957         8.96432         8.96432 
        1.17811         24.3044         8.85262         8.85262 
        1.18424         24.0915         8.74314         8.74314 
        1.19038         24.0101          8.6352          8.6352 
        1.19652         23.8827         8.52912         8.52912 
        1.20267         23.6816         8.42482         8.42482 
        1.20881         23.4503         8.32229         8.32229 
        1.21495         23.2759         8.22163         8.22163 
        1.22108          23.123         8.12265         8.12265 
         1.2272          22.851         8.02553         8.02553 
        1.23334         22.7861         7.92977         7.92977 
        1.23949         22.6644         7.83535         7.83535 
        1.24562         22.4577         7.74273         7.74273 
        1.25174         22.3588         7.65174         7.65174 
        1.25789         22.1557         7.56192         7.56192 
        1.26402         22.0364         7.47371         7.47371 
        1.27014         21.7795         7.38712         7.38712 
        1.27628          21.673         7.30164         7.30164 
        1.28244         21.5355         7.21735         7.21735 
        1.28858          21.442          7.1345          7.1345 
        1.29471         21.3138         7.05313         7.05313 
        1.30084         21.1595         6.97311         6.97311 
        1.30697         20.9647          6.8942          6.8942 
        1.31312         20.7779         6.81641         6.81641 
        1.31925         20.6813         6.74005         6.74005 
        1.32537          20.587         6.66495         6.66495 
        1.33151          20.411         6.59071         6.59071 
        1.33765         20.3447         6.51766         6.51766 
        1.34378         20.1994         6.44585         6.44585 
        1.34992         19.9781         6.37507         6.37507 
        1.35606         19.8935         6.30521         6.30521 
         1.3622         19.7684         6.23651         6.23651 
        1.36833         19.6086           6.169           6.169 
        1.37445         19.5986         6.10253         6.10253 
        1.38059         19.4208         6.03683         6.03683 
        1.38675         19.2041         5.97193         5.97193 
        1.39288         19.1794         5.90825         5.90825 
        1.39901         19.0104         5.84553         5.84553 
        1.40515         18.9205         5.78357         5.78357 
         1.4113         18.7993         5.72254         5.72254 
        1.41742         18.6129         5.66261         5.66261 
        1.42355         18.5775         5.60344         5.60344 
         1.4297         18.4605         5.54493         5.54493 
        1.43585         18.4034         5.48727         5.48727 
        1.44198         18.2005         5.43066         5.43066 
        1.44809         18.1122         5.37495         5.37495 
        1.45423         18.0268         5.31982         5.31982 
        1.46036          17.949         5.26556         5.26556 
        1.46649         17.8172         5.21203         5.21203 
        1.47263          17.682         5.15921         5.15921 
        1.47877         17.6208         5.10714         5.10714 
        1.48491         17.5317          5.0557          5.0557 
        1.49104         17.4444         5.00509         5.00509 
        1.49718         17.2736         4.95512         4.95512 
        1.50333         17.2223         4.90575         4.90575 
        1.50947         17.1531         4.85716         4.85716 
         1.5156         17.0076          4.8093          4.8093 
        1.52172          16.877         4.76207         4.76207 
        1.52787         16.8642         4.71539         4.71539 
          1.534         16.7131         4.66938         4.66938 
        1.54013         16.5768         4.62404         4.62404 
        1.54627         16.5295         4.57922         4.57922 
        1.55241         16.4184         4.53498         4.53498 
        1.55855         16.3215         4.49138         4.49138 
        1.56467         16.2242         4.44848         4.44848 
         1.5708         16.1945         4.40602         4.40602 
        1.57695         16.0188         4.36405         4.36405 
        1.58308         16.0268         4.32271         4.32271 
        1.58922         15.9089         4.28189         4.28189 
        1.59535         15.7972         4.24161         4.24161 
         1.6015         15.7137         4.20178         4.20178 
        1.60764         15.6664         4.16249         4.16249 
        1.61376         15.5236         4.12381         4.12381 
        1.61989         15.4246         4.08558         4.08558 
        1.62604         15.4063         4.04776         4.04776 
        1.63218         15.3047         4.01043         4.01043 
        1.63831         15.2507         3.97366         3.97366 
        1.64444         15.1305         3.93734         3.93734 
        1.65059         15.0449         3.90138         3.90138 
        1.65673         14.9721         3.86591         3.86591 
        1.66285         14.8965         3.83098         3.83098 
        1.66898         14.8466         3.79647         3.79647 
        1.67512         14.7816         3.76231         3.76231 
        1.68127         14.6826         3.72855         3.72855 
         1.6874         14.5979         3.69527         3.69527 
        1.69353         14.5247         3.66241         3.66241 
        1.69967         14.4242         3.62988         3.62988 
        1.70581         14.3595         3.59776         3.59776 
        1.71193         14.3067         3.56614         3.56614 
        1.71806         14.2177         3.53484         3.53484 
        1.72421         14.1476         3.50385         3.50385 
        1.73035         14.0648         3.47326         3.47326 
        1.73649         14.0209         3.44305         3.44305 
        1.74262         13.9623         3.41322         3.41322 
        1.74876         13.8936         3.38372         3.38372 
        1.75489         13.8131         3.35463         3.35463 
        1.76101         13.7307         3.32589         3.32589 
        1.76715         13.6873         3.29745         3.29745 
        1.77329          13.619         3.26931         3.26931 
        1.77943         13.5308         3.24148         3.24148 
        1.78557          13.489         3.21401         3.21401 
        1.79171         13.4349         3.18686         3.18686 
        1.79785         13.3166         3.16001         3.16001 
        1.80399         13.2674         3.13348         3.13348 
        1.81012         13.2549         3.10729         3.10729 
        1.81625           13.17         3.08141         3.08141 
        1.82239         13.1383         3.05578         3.05578 
        1.82853         13.0142         3.03045         3.03045 
        1.83466         12.9337         3.00544         3.00544 
        1.84078          12.866         2.98073         2.98073 
        1.84692         12.8562         2.95626         2.95626 
        1.85306         12.7671         2.93204         2.93204 
         1.8592         12.7189         2.90812         2.90812 
        1.86533         12.6617         2.88448         2.88448 
        1.87147         12.5973         2.86108         2.86108 
