# k  (h/Mpc)    P(k)  (Mpc/h)^3    P_linear(k)  (Mpc/h)^3     P_NL(k)  ShotnoiseSubtracted = false
     0.00783031         20316.2         20627.1         20627.1 
       0.013688         24255.7         23977.1         23977.1 
       0.019231         23195.7         23112.7         23112.7 
      0.0249154         19957.1         20399.6         20399.6 
      0.0312784         16731.2         16896.7         16896.7 
      0.0375637         14013.2         13956.6         13956.6 
      0.0433917         11815.7         11986.6         11986.6 
      0.0492413         10631.1         10666.1         10666.1 
      0.0555754         9442.01         9719.69         9719.69 
      0.0619321         9029.64         8973.38         8973.38 
       0.067871         8060.98            8257            8257 
      0.0738098         7293.64         7445.97         7445.97 
      0.0800417         6359.57         6530.67         6530.67 
      0.0862327         5624.62         5659.64         5659.64 
      0.0921407         5066.87         4955.87         4955.87 
      0.0982031         4494.48         4409.87         4409.87 
       0.104506         4241.57         4024.46         4024.46 
       0.110769         3952.24         3775.36         3775.36 
       0.116806         3750.56          3596.4          3596.4 
       0.122832         3564.29         3419.36         3419.36 
       0.129052         3272.66         3201.39         3201.39 
       0.135211         3050.46         2945.21         2945.21 
       0.141259         2875.15         2675.62         2675.62 
       0.147318         2672.45         2418.69         2418.69 
       0.153489         2431.12         2196.95         2196.95 
       0.159709         2296.66         2026.72         2026.72 
       0.165845         2216.14          1907.6          1907.6 
       0.171974         2110.12         1822.39         1822.39 
       0.178125         2012.59         1751.54         1751.54 
       0.184229          1919.3         1678.92         1678.92 
        0.19034         1810.78         1594.37         1594.37 
       0.196428         1757.66         1497.86         1497.86 
       0.202534         1678.28          1395.4          1395.4 
       0.208729         1589.69         1295.43         1295.43 
       0.214876         1522.59         1208.48         1208.48 
       0.220989         1465.23         1138.12         1138.12 
       0.227147         1408.08         1082.88         1082.88 
        0.23329         1353.09         1039.19         1039.19 
       0.239377         1329.92         1001.42         1001.42 
       0.245482         1246.25          963.88          963.88 
       0.251667         1236.75         923.032         923.032 
       0.257832         1183.41         878.921         878.921 
       0.263955         1141.09         833.528         833.528 
       0.270079         1098.73         789.334         789.334 
        0.27624         1083.23         748.668         748.668 
       0.282372         1038.51          713.51          713.51 
        0.28843         1029.34         683.998         683.998 
       0.294538         976.468         658.489         658.489 
       0.300721         969.568         635.276         635.276 
        0.30691         931.389         612.982         612.982 
       0.313033         911.553          590.68          590.68 
       0.319153          893.83         567.813         567.813 
       0.325316         864.996         544.524         544.524 
        0.33145         843.981          521.86          521.86 
       0.337538         826.237         500.623         500.623 
       0.343633         807.765         481.197         481.197 
       0.349808         778.403         463.467         463.467 
       0.355968         772.341         447.553         447.553 
       0.362074         764.393         433.013         433.013 
       0.368217         739.527         419.109         419.109 
       0.374374         710.103         405.509         405.509 
       0.380519         710.881         392.024         392.024 
       0.386598         688.795         378.841         378.841 
       0.392688         685.659         365.932         365.932 
        0.39888         665.111         353.333         353.333 
       0.405048         655.728         341.526         341.526 
       0.411186         646.389         330.559         330.559 
       0.417313         632.865         320.355         320.355 
       0.423458         619.287         310.764         310.764 
       0.429607         612.796         301.629         301.629 
       0.435692         597.691         292.896         292.896 
       0.441815         591.299         284.347         284.347 
       0.447964         579.291         275.966         275.966 
       0.454126         573.363         267.783         267.783 
       0.460267         558.607          259.91          259.91 
       0.466387          551.82         252.406         252.406 
        0.47254         547.268         245.219         245.219 
       0.478662         541.379         238.416         238.416 
       0.484765         523.544         231.963         231.963 
       0.490885         519.693         225.778         225.778 
       0.497035         509.088         219.792         219.792 
       0.503198         504.943         213.979         213.979 
       0.509342         500.832         208.355         208.355 
       0.515458          496.48         202.929         202.929 
       0.521598         482.524         197.658         197.658 
       0.527764         475.728         192.546         192.546 
       0.533884         472.197         187.657         187.657 
           0.54          466.83         182.961         182.961 
       0.546137         462.872         178.437         178.437 
       0.552299          455.89         174.066         174.066 
       0.558452         452.256         169.856         169.856 
       0.564573         446.988           165.8           165.8 
       0.570708         440.349         161.856         161.856 
       0.576825         429.715         158.043         158.043 
       0.582926         429.646         154.358         154.358 
       0.589034          424.88         150.786         150.786 
       0.595184         421.574         147.307         147.307 
       0.601379          413.95         143.917         143.917 
       0.607522         409.027         140.663         140.663 
       0.613639         406.996         137.526         137.526 
       0.619772         399.858         134.479         134.479 
       0.625918         397.559         131.521         131.521 
       0.632068         390.971         128.652         128.652 
       0.638161         388.927         125.895         125.895 
         0.6443         383.277         123.198         123.198 
       0.650464         380.483         120.569         120.569 
       0.656582         376.127         118.035         118.035 
       0.662703         375.567         115.573         115.573 
       0.668861         369.803         113.166         113.166 
       0.675024         366.126         110.827         110.827 
       0.681124         362.691         108.577         108.577 
       0.687237         359.693         106.387         106.387 
       0.693381          354.22         104.248         104.248 
       0.699536         349.623         102.165         102.165 
       0.705665         347.868         100.149         100.149 
       0.711789         346.531         98.1887         98.1887 
       0.717957         343.171         96.2681         96.2681 
        0.72409         341.226         94.4097         94.4097 
       0.730186         336.072         92.6115         92.6115 
       0.736317         333.543         90.8504         90.8504 
       0.742472         330.929         89.1286         89.1286 
       0.748622         327.933         87.4531         87.4531 
        0.75476         323.409         85.8243         85.8243 
       0.760888         320.236         84.2396         84.2396 
       0.767043         320.265         82.6887         82.6887 
       0.773185         317.154         81.1802         81.1802 
       0.779291         312.737          79.718          79.718 
       0.785407         311.554         78.2899         78.2899 
       0.791564         307.845         76.8879         76.8879 
       0.797719         305.714         75.5211         75.5211 
       0.803834         301.823         74.1963         74.1963 
       0.809972         301.521         72.8987         72.8987 
       0.816124          300.09         71.6293         71.6293 
       0.822261         296.852         70.3937         70.3937 
       0.828378         294.446         69.1911         69.1911 
       0.834502         291.159         68.0156         68.0156 
       0.840667         289.332         66.8599         66.8599 
       0.846816         287.797         65.7344         65.7344 
       0.852925         285.949         64.6421         64.6421 
       0.859047         283.613         63.5723         63.5723 
       0.865192         280.018         62.5233         62.5233 
       0.871341         277.733         61.4974         61.4974 
       0.877463         277.778         60.4992         60.4992 
       0.883569         275.169         59.5258         59.5258 
       0.889708         272.423         58.5688         58.5688 
       0.895864         271.754         57.6305         57.6305 
       0.902008         269.008         56.7148         56.7148 
       0.908149         266.133         55.8196         55.8196 
       0.914301         264.048         54.9423         54.9423 
       0.920448         262.489         54.0847         54.0847 
       0.926574         259.362         53.2485         53.2485 
       0.932687         259.097         52.4318         52.4318 
       0.938823         256.212         51.6293         51.6293 
       0.944975         256.068         50.8418         50.8418 
       0.951105         253.612         50.0736         50.0736 
       0.957225         252.026         49.3225         49.3225 
       0.963368         248.419         48.5844         48.5844 
       0.969511         247.792         47.8613         47.8613 
       0.975621         246.065         47.1568         47.1568 
       0.981748         244.611         46.4648         46.4648 
       0.987916         243.302         45.7823         45.7823 
        0.99406         240.502          45.116          45.116 
        1.00019         238.928         44.4644         44.4644 
        1.00632         237.965         43.8263         43.8263 
        1.01246         235.928         43.1997         43.1997 
        1.01859         236.005         42.5864         42.5864 
        1.02471         232.222         41.9858         41.9858 
        1.03085         231.221         41.3947         41.3947 
        1.03698         229.861         40.8163         40.8163 
        1.04314         228.054         40.2464         40.2464 
        1.04929         226.673         39.6888         39.6888 
        1.05541         226.292          39.144          39.144 
        1.06154         223.024         38.6081         38.6081 
        1.06769         222.606         38.0814         38.0814 
        1.07382         220.683         37.5662         37.5662 
        1.07993         219.327         37.0618         37.0618 
        1.08607          218.94         36.5645         36.5645 
        1.09222         216.518         36.0759         36.0759 
        1.09836             215         35.5968         35.5968 
        1.10449         213.242          35.127          35.127 
        1.11063         211.448         34.6652         34.6652 
        1.11677         210.906         34.2118         34.2118 
         1.1229         208.857         33.7673         33.7673 
        1.12903         208.143         33.3304         33.3304 
        1.13518         206.698         32.9008         32.9008 
        1.14131         204.973          32.479          32.479 
        1.14745         204.947         32.0649         32.0649 
        1.15359         202.994         31.6579         31.6579 
        1.15973          201.11         31.2578         31.2578 
        1.16584         200.157         30.8664         30.8664 
        1.17197         200.101         30.4812         30.4812 
        1.17811          197.23         30.1014         30.1014 
        1.18424         196.395         29.7291         29.7291 
        1.19038         195.694         29.3621         29.3621 
        1.19652          193.74         29.0014         29.0014 
        1.20267         193.706         28.6468         28.6468 
        1.20881         191.693         28.2981         28.2981 
        1.21495         190.674         27.9558         27.9558 
        1.22108           189.4         27.6193         27.6193 
         1.2272         188.121          27.289          27.289 
        1.23334         187.901         26.9635         26.9635 
        1.23949         185.509         26.6424         26.6424 
        1.24562         184.877         26.3274         26.3274 
        1.25174         183.984          26.018          26.018 
        1.25789         182.809         25.7127         25.7127 
        1.26402         180.779         25.4127         25.4127 
        1.27014         179.979         25.1183         25.1183 
        1.27628           178.8         24.8276         24.8276 
        1.28244         178.666          24.541          24.541 
        1.28858         176.884         24.2593         24.2593 
        1.29471         176.059         23.9826         23.9826 
        1.30084         174.581         23.7105         23.7105 
        1.30697          173.34         23.4422         23.4422 
        1.31312         172.151         23.1777         23.1777 
        1.31925         170.952         22.9181         22.9181 
        1.32537         170.917         22.6627         22.6627 
        1.33151         169.212         22.4103         22.4103 
        1.33765         168.006         22.1618         22.1618 
        1.34378         167.341         21.9177         21.9177 
        1.34992         166.561          21.677          21.677 
        1.35606         166.156         21.4395         21.4395 
         1.3622         164.184         21.2059         21.2059 
        1.36833         163.317         20.9763         20.9763 
        1.37445         162.536         20.7503         20.7503 
        1.38059         161.265         20.5269         20.5269 
        1.38675         160.752         20.3062         20.3062 
        1.39288         159.687         20.0897         20.0897 
        1.39901         158.742         19.8764         19.8764 
        1.40515         157.626         19.6657         19.6657 
         1.4113         156.856         19.4582         19.4582 
        1.41742         155.559         19.2545         19.2545 
        1.42355         154.971         19.0532         19.0532 
         1.4297         153.661         18.8543         18.8543 
        1.43585         152.927         18.6583         18.6583 
        1.44198         152.454         18.4658         18.4658 
        1.44809         151.432         18.2763         18.2763 
        1.45423         150.826         18.0889         18.0889 
        1.46036         149.477         17.9044         17.9044 
        1.46649         148.593         17.7224         17.7224 
        1.47263         147.793         17.5427         17.5427 
        1.47877         146.608         17.3657         17.3657 
        1.48491         145.425         17.1908         17.1908 
        1.49104         145.307         17.0187         17.0187 
        1.49718         143.824         16.8488         16.8488 
        1.50333         143.155         16.6809         16.6809 
        1.50947          142.19         16.5157         16.5157 
         1.5156         141.556         16.3529         16.3529 
        1.52172         140.807         16.1924         16.1924 
        1.52787         139.519         16.0336         16.0336 
          1.534         139.173         15.8772         15.8772 
        1.54013         138.282          15.723          15.723 
        1.54627         137.382         15.5706         15.5706 
        1.55241         136.423         15.4202         15.4202 
        1.55855          135.75          15.272          15.272 
        1.56467         134.613         15.1261         15.1261 
         1.5708         133.812         14.9817         14.9817 
        1.57695         133.704          14.839          14.839 
        1.58308         132.682         14.6984         14.6984 
        1.58922         132.013         14.5596         14.5596 
        1.59535         131.111         14.4226         14.4226 
         1.6015         130.448         14.2872         14.2872 
        1.60764         129.819         14.1536         14.1536 
        1.61376         128.889         14.0221         14.0221 
        1.61989         128.011         13.8921         13.8921 
        1.62604         127.122         13.7635         13.7635 
        1.63218         126.857         13.6366         13.6366 
        1.63831         125.869         13.5116         13.5116 
        1.64444         125.109          13.388          13.388 
        1.65059         124.448         13.2658         13.2658 
        1.65673         123.741         13.1452         13.1452 
        1.66285         123.022         13.0264         13.0264 
        1.66898         122.295          12.909          12.909 
        1.67512         121.531         12.7929         12.7929 
        1.68127         120.802         12.6781         12.6781 
         1.6874         120.295         12.5649         12.5649 
        1.69353         119.528         12.4532         12.4532 
        1.69967         118.652         12.3426         12.3426 
        1.70581         117.957         12.2334         12.2334 
        1.71193         117.249         12.1259         12.1259 
        1.71806          116.85         12.0194         12.0194 
        1.72421          116.27         11.9141         11.9141 
        1.73035         115.726         11.8101         11.8101 
        1.73649         114.947         11.7073         11.7073 
        1.74262         114.319         11.6059         11.6059 
        1.74876         113.562         11.5056         11.5056 
        1.75489         112.868         11.4067         11.4067 
        1.76101         111.993          11.309          11.309 
        1.76715         111.718         11.2123         11.2123 
        1.77329         110.981         11.1165         11.1165 
        1.77943         110.549         11.0219         11.0219 
        1.78557         110.045         10.9285         10.9285 
        1.79171          109.09         10.8362         10.8362 
        1.79785         108.584         10.7449         10.7449 
        1.80399         107.967         10.6547         10.6547 
        1.81012         107.454         10.5656         10.5656 
        1.81625         106.955         10.4776         10.4776 
        1.82239         106.289         10.3905         10.3905 
        1.82853         105.463         10.3044         10.3044 
        1.83466         105.022         10.2193         10.2193 
        1.84078         104.438         10.1353         10.1353 
        1.84692          103.57         10.0521         10.0521 
        1.85306         103.372         9.96974         9.96974 
         1.8592         102.583         9.88841         9.88841 
        1.86533         102.123         9.80804         9.80804 
        1.87147         101.391         9.72847         9.72847 
        1.87761         100.601         9.64974         9.64974 
