# k  (h/Mpc)    P(k)  (Mpc/h)^3    P_linear(k)  (Mpc/h)^3     P_NL(k)  ShotnoiseSubtracted = false
     0.00783031         21219.9           21548           21548 
       0.013688         25344.5         25045.3         25045.3 
       0.019231         24228.6         24141.8         24141.8 
      0.0249154         20832.5         21307.6         21307.6 
      0.0312784         17467.5         17648.7         17648.7 
      0.0375637           14635         14577.7         14577.7 
      0.0433917         12334.5           12520           12520 
      0.0492413           11101         11140.7         11140.7 
      0.0555754         9852.57         10152.2         10152.2 
      0.0619321         9428.75         9372.64         9372.64 
       0.067871          8411.7         8624.38         8624.38 
      0.0738098         7612.49         7777.26         7777.26 
      0.0800417         6637.21         6821.23         6821.23 
      0.0862327         5873.43         5911.45         5911.45 
      0.0921407         5295.68         5176.36         5176.36 
      0.0982031         4698.72         4606.07         4606.07 
       0.104506         4436.69         4203.51         4203.51 
       0.110769         4133.79         3943.33         3943.33 
       0.116806         3924.37         3756.41         3756.41 
       0.122832         3728.05         3571.49         3571.49 
       0.129052         3422.28         3343.82         3343.82 
       0.135211          3190.7         3076.24         3076.24 
       0.141259         3010.31         2794.66         2794.66 
       0.147318         2800.55         2526.29         2526.29 
       0.153489         2548.55          2294.7          2294.7 
       0.159709         2408.36         2116.89         2116.89 
       0.165845         2325.63         1992.47         1992.47 
       0.171974         2215.03         1903.47         1903.47 
       0.178125         2112.14         1829.47         1829.47 
       0.184229         2012.85         1753.61         1753.61 
        0.19034         1902.18         1665.31         1665.31 
       0.196428         1846.04          1564.5          1564.5 
       0.202534         1762.35         1457.48         1457.48 
       0.208729         1670.84         1353.06         1353.06 
       0.214876         1602.67         1262.24         1262.24 
       0.220989         1542.33         1188.76         1188.76 
       0.227147         1483.21         1131.06         1131.06 
        0.23329         1425.35         1085.43         1085.43 
       0.239377         1401.62         1045.97         1045.97 
       0.245482         1314.39         1006.76         1006.76 
       0.251667         1304.58         964.098         964.098 
       0.257832         1248.42         918.024         918.024 
       0.263955          1203.8         870.611         870.611 
       0.270079         1159.83         824.452         824.452 
        0.27624         1143.34         781.976         781.976 
       0.282372         1096.36         745.254         745.254 
        0.28843         1088.22         714.428         714.428 
       0.294538         1032.71         687.784         687.784 
       0.300721         1024.96          663.54          663.54 
        0.30691         985.673         640.253         640.253 
       0.313033         964.509         616.959         616.959 
       0.319153           946.9         593.074         593.074 
       0.325316         916.264          568.75          568.75 
        0.33145         894.581         545.078         545.078 
       0.337538         875.286         522.895         522.895 
       0.343633         856.801         502.605         502.605 
       0.349808          825.99         484.086         484.086 
       0.355968         819.396         467.465         467.465 
       0.362074         811.417         452.277         452.277 
       0.368217         784.691         437.755         437.755 
       0.374374         754.491          423.55          423.55 
       0.380519         755.575         409.465         409.465 
       0.386598         731.815         395.695         395.695 
       0.392688         728.477         382.212         382.212 
        0.39888         706.793         369.053         369.053 
       0.405048         697.631          356.72          356.72 
       0.411186         687.687         345.266         345.266 
       0.417313         673.315         334.607         334.607 
       0.423458           658.9         324.589         324.589 
       0.429607         652.397         315.048         315.048 
       0.435692         636.572         305.926         305.926 
       0.441815         629.657         296.997         296.997 
       0.447964          617.21         288.244         288.244 
       0.454126         611.612         279.696         279.696 
       0.460267         595.512         271.473         271.473 
       0.466387         588.134         263.635         263.635 
        0.47254         584.555         256.129         256.129 
       0.478662         577.368         249.023         249.023 
       0.484765         558.924         242.283         242.283 
       0.490885         554.891         235.822         235.822 
       0.497035         543.547          229.57          229.57 
       0.503198          539.38         223.499         223.499 
       0.509342         534.844         217.624         217.624 
       0.515458         530.527         211.957         211.957 
       0.521598         515.697         206.452         206.452 
       0.527764         508.569         201.112         201.112 
       0.533884         504.725         196.006         196.006 
           0.54         499.362         191.101         191.101 
       0.546137         494.683         186.375         186.375 
       0.552299         487.808          181.81          181.81 
       0.558452         483.561         177.412         177.412 
       0.564573         478.153         173.176         173.176 
       0.570708         471.336         169.056         169.056 
       0.576825         460.065         165.074         165.074 
       0.582926         460.303         161.226         161.226 
       0.589034         455.008         157.495         157.495 
       0.595184         451.459          153.86          153.86 
       0.601379         443.476         150.319         150.319 
       0.607522         438.114         146.921         146.921 
       0.613639         436.017         143.644         143.644 
       0.619772         428.802         140.462         140.462 
       0.625918         426.086         137.373         137.373 
       0.632068         419.244         134.376         134.376 
       0.638161         416.914         131.496         131.496 
         0.6443         411.076         128.679         128.679 
       0.650464         408.367         125.933         125.933 
       0.656582         403.442         123.287         123.287 
       0.662703         402.825         120.714         120.714 
       0.668861         396.797         118.201         118.201 
       0.675024          392.96         115.757         115.757 
       0.681124          389.32         113.408         113.408 
       0.687237         386.303          111.12          111.12 
       0.693381         380.375         108.886         108.886 
       0.699536         375.184          106.71          106.71 
       0.705665         373.684         104.604         104.604 
       0.711789         372.206         102.557         102.557 
       0.717957          368.57         100.551         100.551 
        0.72409         366.698         98.6099         98.6099 
       0.730186         361.129         96.7317         96.7317 
       0.736317         358.589         94.8922         94.8922 
       0.742472          355.68         93.0939         93.0939 
       0.748622         352.441         91.3438         91.3438 
        0.75476         347.459         89.6426         89.6426 
       0.760888          344.12         87.9873         87.9873 
       0.767043         344.127         86.3675         86.3675 
       0.773185         340.916         84.7919         84.7919 
       0.779291         336.465         83.2646         83.2646 
       0.785407         334.934          81.773          81.773 
       0.791564         331.118         80.3086         80.3086 
       0.797719         329.101          78.881          78.881 
       0.803834         324.627         77.4972         77.4972 
       0.809972         324.384         76.1419         76.1419 
       0.816124         322.848         74.8161         74.8161 
       0.822261         319.262         73.5255         73.5255 
       0.828378         316.905         72.2693         72.2693 
       0.834502         313.086         71.0416         71.0416 
       0.840667         311.226         69.8345         69.8345 
       0.846816         309.688         68.6589         68.6589 
       0.852925         307.732         67.5179         67.5179 
       0.859047         305.261         66.4006         66.4006 
       0.865192         301.466         65.3049         65.3049 
       0.871341         298.963         64.2334         64.2334 
       0.877463          299.16         63.1908         63.1908 
       0.883569         296.101          62.174          62.174 
       0.889708         293.472         61.1745         61.1745 
       0.895864         293.042         60.1945         60.1945 
       0.902008         289.913          59.238          59.238 
       0.908149         286.419          58.303          58.303 
       0.914301         284.618         57.3867         57.3867 
       0.920448         282.886         56.4909         56.4909 
       0.926574         279.425         55.6175         55.6175 
       0.932687         278.965         54.7644         54.7644 
       0.938823         275.951         53.9263         53.9263 
       0.944975         276.004         53.1037         53.1037 
       0.951105          273.19         52.3013         52.3013 
       0.957225         271.481         51.5169         51.5169 
       0.963368         267.694         50.7459         50.7459 
       0.969511         267.086         49.9906         49.9906 
       0.975621         265.438         49.2548         49.2548 
       0.981748         263.558          48.532          48.532 
       0.987916         262.264         47.8191         47.8191 
        0.99406         259.254         47.1232         47.1232 
        1.00019         257.383         46.4426         46.4426 
        1.00632         256.506          45.776          45.776 
        1.01246         254.282         45.1216         45.1216 
        1.01859         254.224          44.481          44.481 
        1.02471         250.356         43.8537         43.8537 
        1.03085         249.376         43.2363         43.2363 
        1.03698         247.835         42.6322         42.6322 
        1.04314         246.087          42.037          42.037 
        1.04929         244.381         41.4545         41.4545 
        1.05541         243.988         40.8855         40.8855 
        1.06154         240.402         40.3257         40.3257 
        1.06769         240.003         39.7756         39.7756 
        1.07382         237.875         39.2375         39.2375 
        1.07993         236.589         38.7106         38.7106 
        1.08607         236.057         38.1913         38.1913 
        1.09222         233.313         37.6809         37.6809 
        1.09836         231.673         37.1805         37.1805 
        1.10449         230.005         36.6898         36.6898 
        1.11063         227.935         36.2074         36.2074 
        1.11677          227.52         35.7339         35.7339 
         1.1229         225.229         35.2696         35.2696 
        1.12903         224.428         34.8132         34.8132 
        1.13518         222.818         34.3645         34.3645 
        1.14131         221.132          33.924          33.924 
        1.14745         220.897         33.4914         33.4914 
        1.15359         218.921         33.0663         33.0663 
        1.15973         217.017         32.6485         32.6485 
        1.16584         215.831         32.2397         32.2397 
        1.17197         215.779         31.8373         31.8373 
        1.17811         212.789         31.4406         31.4406 
        1.18424         211.758         31.0517         31.0517 
        1.19038         210.979         30.6684         30.6684 
        1.19652         208.908         30.2916         30.2916 
        1.20267         208.937         29.9212         29.9212 
        1.20881         206.651         29.5571         29.5571 
        1.21495         205.624         29.1996         29.1996 
        1.22108         204.219          28.848          28.848 
         1.2272         202.886         28.5031         28.5031 
        1.23334         202.636          28.163          28.163 
        1.23949         199.989         27.8277         27.8277 
        1.24562         199.342         27.4987         27.4987 
        1.25174         198.434         27.1756         27.1756 
        1.25789         197.117         26.8566         26.8566 
        1.26402         195.033         26.5433         26.5433 
        1.27014         194.215         26.2358         26.2358 
        1.27628         192.722         25.9322         25.9322 
        1.28244         192.621         25.6328         25.6328 
        1.28858          190.78         25.3386         25.3386 
        1.29471         190.033         25.0496         25.0496 
        1.30084         188.164         24.7654         24.7654 
        1.30697         187.128         24.4851         24.4851 
        1.31312         185.711         24.2088         24.2088 
        1.31925         184.341         23.9377         23.9377 
        1.32537         184.307         23.6709         23.6709 
        1.33151         182.508         23.4073         23.4073 
        1.33765         181.168         23.1478         23.1478 
        1.34378         180.487         22.8928         22.8928 
        1.34992         179.671         22.6414         22.6414 
        1.35606           179.1         22.3933         22.3933 
         1.3622         176.915         22.1493         22.1493 
        1.36833         176.156         21.9096         21.9096 
        1.37445         175.167         21.6735         21.6735 
        1.38059         173.918         21.4401         21.4401 
        1.38675         173.335         21.2096         21.2096 
        1.39288         172.241         20.9835         20.9835 
        1.39901         170.976         20.7607         20.7607 
        1.40515         170.084         20.5407         20.5407 
         1.4113         169.109         20.3239         20.3239 
        1.41742         167.788         20.1111         20.1111 
        1.42355         167.034         19.9009         19.9009 
         1.4297         165.666         19.6931         19.6931 
        1.43585         164.826         19.4883         19.4883 
        1.44198         164.478         19.2873         19.2873 
        1.44809         163.178         19.0894         19.0894 
        1.45423         162.539         18.8936         18.8936 
        1.46036         161.151         18.7009         18.7009 
        1.46649         160.298         18.5108         18.5108 
        1.47263         159.437         18.3232         18.3232 
        1.47877         158.161         18.1383         18.1383 
        1.48491         156.852         17.9556         17.9556 
        1.49104         156.668         17.7758         17.7758 
        1.49718         155.005         17.5984         17.5984 
        1.50333         154.414         17.4231         17.4231 
        1.50947         153.264         17.2505         17.2505 
         1.5156         152.573         17.0805         17.0805 
        1.52172         151.833         16.9128         16.9128 
        1.52787         150.397          16.747          16.747 
          1.534         150.078         16.5836         16.5836 
        1.54013         149.004         16.4225         16.4225 
        1.54627         148.096         16.2633         16.2633 
        1.55241         147.052         16.1062         16.1062 
        1.55855         146.226         15.9514         15.9514 
        1.56467         145.141          15.799          15.799 
         1.5708         144.295         15.6482         15.6482 
        1.57695         144.131         15.4991         15.4991 
        1.58308         142.932         15.3524         15.3524 
        1.58922         142.173         15.2074         15.2074 
        1.59535         141.214         15.0643         15.0643 
         1.6015         140.395         14.9229         14.9229 
        1.60764         139.837         14.7833         14.7833 
        1.61376         138.857         14.6459         14.6459 
        1.61989         137.967         14.5102         14.5102 
        1.62604         137.011         14.3758         14.3758 
        1.63218         136.605         14.2433         14.2433 
        1.63831         135.495         14.1127         14.1127 
        1.64444         134.739         13.9837         13.9837 
        1.65059         134.049          13.856          13.856 
        1.65673         133.358           13.73           13.73 
        1.66285         132.406         13.6059         13.6059 
        1.66898         131.765         13.4834         13.4834 
        1.67512          130.85         13.3621         13.3621 
        1.68127          130.07         13.2421         13.2421 
         1.6874         129.593         13.1239         13.1239 
        1.69353         128.608         13.0073         13.0073 
        1.69967         127.685         12.8917         12.8917 
        1.70581         127.013         12.7776         12.7776 
        1.71193         126.159         12.6653         12.6653 
        1.71806         125.761         12.5542         12.5542 
        1.72421         125.093         12.4441         12.4441 
        1.73035         124.455         12.3355         12.3355 
        1.73649         123.623         12.2282         12.2282 
        1.74262          123.02         12.1222         12.1222 
        1.74876         122.019         12.0175         12.0175 
        1.75489         121.472         11.9142         11.9142 
        1.76101         120.441         11.8121         11.8121 
        1.76715           120.2         11.7111         11.7111 
        1.77329         119.241         11.6111         11.6111 
        1.77943         118.928         11.5123         11.5123 
        1.78557         118.316         11.4147         11.4147 
        1.79171         117.348         11.3183         11.3183 
        1.79785         116.773         11.2229         11.2229 
        1.80399         116.122         11.1287         11.1287 
        1.81012         115.594         11.0357         11.0357 
        1.81625         115.008         10.9438         10.9438 
        1.82239         114.271         10.8528         10.8528 
        1.82853         113.415         10.7628         10.7628 
        1.83466          112.97          10.674          10.674 
        1.84078         112.239         10.5862         10.5862 
        1.84692         111.356         10.4993         10.4993 
        1.85306         111.215         10.4133         10.4133 
         1.8592         110.317         10.3283         10.3283 
        1.86533         109.904         10.2444         10.2444 
        1.87147         109.052         10.1613         10.1613 
        1.87761         108.201          10.079          10.079 
