# k  (h/Mpc)    Pcb(k)  (Mpc/h)^3    Pcb_linear(k) (Mpc/h)^3    Pcb_NL(k) (Mpc/h)^3   ShotnoiseSubtracted = false
     0.00783031         20965.4         21287.9         21287.9 
       0.013688         25035.8         24744.1         24744.1 
       0.019231         23937.5         23851.8         23851.8 
      0.0249154         20588.7         21051.8         21051.8 
      0.0312784         17261.9         17436.9         17436.9 
      0.0375637         14460.2         14402.8         14402.8 
      0.0433917         12189.9         12369.8         12369.8 
      0.0492413         10969.3           11007           11007 
      0.0555754         9739.02         10030.4         10030.4 
      0.0619321         9316.93         9260.19         9260.19 
       0.067871         8314.66         8520.91         8520.91 
      0.0738098         7523.92         7683.95         7683.95 
      0.0800417         6560.16          6739.4          6739.4 
      0.0862327         5803.66         5840.53         5840.53 
      0.0921407          5230.5         5114.27         5114.27 
      0.0982031         4640.26         4550.81         4550.81 
       0.104506         4380.35         4153.08         4153.08 
       0.110769         4081.41         3896.03         3896.03 
       0.116806          3873.9         3711.35         3711.35 
       0.122832         3680.79         3528.65         3528.65 
       0.129052         3379.25         3303.71         3303.71 
       0.135211         3150.21         3039.34         3039.34 
       0.141259         2970.66         2761.14         2761.14 
       0.147318         2762.46         2495.99         2495.99 
       0.153489         2513.45         2267.17         2267.17 
       0.159709         2374.83         2091.49         2091.49 
       0.165845         2292.41         1968.57         1968.57 
       0.171974         2183.08         1880.64         1880.64 
       0.178125         2081.91         1807.52         1807.52 
       0.184229         1984.72         1732.58         1732.58 
        0.19034         1874.05         1645.33         1645.33 
       0.196428         1818.92         1545.74         1545.74 
       0.202534         1736.62            1440            1440 
       0.208729         1645.71         1336.83         1336.83 
       0.214876         1577.43          1247.1          1247.1 
       0.220989         1518.01          1174.5          1174.5 
       0.227147         1459.33          1117.5          1117.5 
        0.23329         1402.36         1072.41         1072.41 
       0.239377         1378.69         1033.42         1033.42 
       0.245482         1292.42         994.687         994.687 
       0.251667         1282.68         952.532         952.532 
       0.257832          1227.4         907.011         907.011 
       0.263955         1183.53         860.168         860.168 
       0.270079         1139.95         814.562         814.562 
        0.27624         1123.81         772.598         772.598 
       0.282372         1077.52         736.314         736.314 
        0.28843         1068.78         705.859         705.859 
       0.294538         1014.07         679.535         679.535 
       0.300721         1006.69          655.58          655.58 
        0.30691         967.572         632.572         632.572 
       0.313033         946.885         609.559         609.559 
       0.319153         929.044         585.961         585.961 
       0.325316         899.026         561.926         561.926 
        0.33145         877.478          538.54          538.54 
       0.337538         858.786         516.624         516.624 
       0.343633         840.127         496.575         496.575 
       0.349808         809.745         478.282         478.282 
       0.355968         803.363         461.857         461.857 
       0.362074          795.33         446.851         446.851 
       0.368217         769.289         432.505         432.505 
       0.374374          739.18         418.466         418.466 
       0.380519         740.126         404.554         404.554 
       0.386598         716.986         390.949         390.949 
       0.392688         713.726         377.627         377.627 
        0.39888         692.404         364.627         364.627 
       0.405048         683.039          352.44          352.44 
       0.411186         673.314         341.124         341.124 
       0.417313         659.233         330.593         330.593 
       0.423458         645.099         320.696         320.696 
       0.429607         638.546         311.268         311.268 
       0.435692         622.928         302.257         302.257 
       0.441815         616.213         293.435         293.435 
       0.447964         603.866         284.786         284.786 
       0.454126         598.059         276.341         276.341 
       0.460267         582.473         268.217         268.217 
       0.466387         575.333         260.473         260.473 
        0.47254         571.215         253.056         253.056 
       0.478662         564.628         246.036         246.036 
       0.484765         546.304         239.376         239.376 
       0.490885         542.328         232.994         232.994 
       0.497035         531.249         226.816         226.816 
       0.503198         527.063         220.818         220.818 
       0.509342         522.703         215.014         215.014 
       0.515458         518.324         209.415         209.415 
       0.521598         503.784         203.975         203.975 
       0.527764         496.757           198.7           198.7 
       0.533884         493.038         193.655         193.655 
           0.54         487.616         188.809         188.809 
       0.546137         483.268          184.14          184.14 
       0.552299         476.269         179.629         179.629 
       0.558452         472.296         175.284         175.284 
       0.564573         466.907         171.099         171.099 
       0.570708         460.121         167.029         167.029 
       0.576825         449.046         163.094         163.094 
       0.582926         449.141         159.292         159.292 
       0.589034         444.066         155.606         155.606 
       0.595184         440.612         152.015         152.015 
       0.601379          432.72         148.516         148.516 
       0.607522         427.536         145.158         145.158 
       0.613639         425.459         141.921         141.921 
       0.619772         418.209         138.777         138.777 
       0.625918         415.679         135.725         135.725 
       0.632068         408.895         132.764         132.764 
       0.638161         406.693         129.918         129.918 
         0.6443         400.892         127.135         127.135 
       0.650464         398.111         124.423         124.423 
       0.656582         393.433         121.808         121.808 
       0.662703         392.838         119.266         119.266 
       0.668861         386.887         116.783         116.783 
       0.675024         383.101         114.369         114.369 
       0.681124         379.524         112.048         112.048 
       0.687237         376.484         109.787         109.787 
       0.693381         370.731          107.58          107.58 
       0.699536         365.792          105.43          105.43 
       0.705665          364.15         103.349         103.349 
       0.711789         362.737         101.327         101.327 
       0.717957         359.199         99.3449         99.3449 
        0.72409          357.28          97.427          97.427 
       0.730186          351.86         95.5714         95.5714 
       0.736317         349.301         93.7539         93.7539 
       0.742472         346.521         91.9772         91.9772 
       0.748622         343.373         90.2481         90.2481 
        0.75476         338.571         88.5673         88.5673 
       0.760888         335.281         86.9319         86.9319 
       0.767043         335.302         85.3315         85.3315 
       0.773185         332.114         83.7748         83.7748 
       0.779291         327.637         82.2658         82.2658 
       0.785407         326.275         80.7921         80.7921 
       0.791564         322.469         79.3453         79.3453 
       0.797719         320.377         77.9348         77.9348 
       0.803834         316.153         76.5676         76.5676 
       0.809972          315.88         75.2285         75.2285 
       0.816124         314.381         73.9186         73.9186 
       0.822261         310.941         72.6435         72.6435 
       0.828378         308.536         71.4024         71.4024 
       0.834502         304.942         70.1894         70.1894 
       0.840667         303.092         68.9968         68.9968 
       0.846816         301.544         67.8353         67.8353 
       0.852925         299.619          66.708          66.708 
       0.859047          297.19         65.6041         65.6041 
       0.865192         293.466         64.5216         64.5216 
       0.871341         291.043         63.4629         63.4629 
       0.877463         291.181         62.4328         62.4328 
       0.883569         288.312         61.4282         61.4282 
       0.889708         285.591         60.4407         60.4407 
       0.895864         285.045         59.4724         59.4724 
       0.902008         282.073         58.5274         58.5274 
       0.908149         278.859         57.6036         57.6036 
       0.914301           276.9         56.6983         56.6983 
       0.920448         275.232         55.8133         55.8133 
       0.926574         271.905         54.9504         54.9504 
       0.932687         271.544         54.1075         54.1075 
       0.938823         268.569         53.2794         53.2794 
       0.944975         268.528         52.4667         52.4667 
       0.951105         265.862         51.6739         51.6739 
       0.957225         264.201         50.8989         50.8989 
       0.963368         260.467         50.1371         50.1371 
       0.969511         259.848          49.391          49.391 
       0.975621         258.145          48.664          48.664 
       0.981748         256.458         47.9498         47.9498 
       0.987916         255.152         47.2455         47.2455 
        0.99406         252.213          46.558          46.558 
        1.00019         250.466         45.8855         45.8855 
        1.00632         249.549         45.2269         45.2269 
        1.01246         247.396         44.5804         44.5804 
        1.01859         247.416         43.9475         43.9475 
        1.02471         243.541         43.3277         43.3277 
        1.03085         242.547         42.7177         42.7177 
        1.03698         241.088         42.1208         42.1208 
        1.04314         239.285         41.5327         41.5327 
        1.04929         237.727         40.9573         40.9573 
        1.05541         237.341          40.395          40.395 
        1.06154         233.878          39.842          39.842 
        1.06769         233.465         39.2984         39.2984 
        1.07382         231.424         38.7668         38.7668 
        1.07993         230.089         38.2463         38.2463 
        1.08607         229.629         37.7331         37.7331 
        1.09222         227.015         37.2289         37.2289 
        1.09836         225.429         36.7345         36.7345 
        1.10449         223.696         36.2497         36.2497 
        1.11063         221.754         35.7731         35.7731 
        1.11677         221.262         35.3052         35.3052 
         1.1229         219.067         34.8465         34.8465 
        1.12903         218.309         34.3956         34.3956 
        1.13518         216.773         33.9523         33.9523 
        1.14131         215.046         33.5171         33.5171 
        1.14745         214.925         33.0897         33.0897 
        1.15359         212.934         32.6697         32.6697 
        1.15973         211.012         32.2568         32.2568 
        1.16584         209.943         31.8529         31.8529 
        1.17197         209.897         31.4554         31.4554 
        1.17811          206.92         31.0634         31.0634 
        1.18424         205.987         30.6793         30.6793 
        1.19038          205.24         30.3005         30.3005 
        1.19652         203.203         29.9283         29.9283 
        1.20267         203.202         29.5623         29.5623 
        1.20881         201.032         29.2025         29.2025 
        1.21495         200.003         28.8493         28.8493 
        1.22108         198.654          28.502          28.502 
         1.2272         197.335         28.1612         28.1612 
        1.23334         197.097         27.8252         27.8252 
        1.23949         194.551         27.4939         27.4939 
        1.24562         193.912         27.1689         27.1689 
        1.25174         192.998         26.8496         26.8496 
        1.25789         191.746         26.5344         26.5344 
        1.26402         189.656         26.2249         26.2249 
        1.27014         188.852         25.9211         25.9211 
        1.27628         187.502         25.6211         25.6211 
        1.28244          187.38         25.3253         25.3253 
        1.28858          185.55         25.0346         25.0346 
        1.29471         184.756         24.7491         24.7491 
        1.30084         183.061         24.4683         24.4683 
        1.30697         181.914         24.1914         24.1914 
        1.31312         180.599         23.9184         23.9184 
        1.31925           179.3         23.6505         23.6505 
        1.32537         179.272          23.387          23.387 
        1.33151         177.501         23.1265         23.1265 
        1.33765         176.224         22.8701         22.8701 
        1.34378         175.532         22.6182         22.6182 
        1.34992          174.73         22.3698         22.3698 
        1.35606         174.245         22.1247         22.1247 
         1.3622         172.148         21.8836         21.8836 
        1.36833         171.321         21.6467         21.6467 
        1.37445         170.439         21.4135         21.4135 
        1.38059         169.161         21.1829         21.1829 
        1.38675          168.61         20.9552         20.9552 
        1.39288         167.519         20.7318         20.7318 
        1.39901           166.4         20.5117         20.5117 
        1.40515         165.387         20.2943         20.2943 
         1.4113         164.509         20.0801         20.0801 
        1.41742         163.184         19.8698         19.8698 
        1.42355         162.511         19.6622         19.6622 
         1.4297          161.15         19.4569         19.4569 
        1.43585         160.365         19.2546         19.2546 
        1.44198         159.947         19.0559         19.0559 
        1.44809          158.78         18.8604         18.8604 
        1.45423         158.154          18.667          18.667 
        1.46036         156.773         18.4766         18.4766 
        1.46649         155.893         18.2888         18.2888 
        1.47263         155.054         18.1034         18.1034 
        1.47877         153.804         17.9207         17.9207 
        1.48491         152.555         17.7402         17.7402 
        1.49104         152.405         17.5626         17.5626 
        1.49718         150.811         17.3873         17.3873 
        1.50333         150.173         17.2141         17.2141 
        1.50947         149.105         17.0435         17.0435 
         1.5156          148.44         16.8756         16.8756 
        1.52172         147.692         16.7099         16.7099 
        1.52787         146.311         16.5461         16.5461 
          1.534         145.977         16.3846         16.3846 
        1.54013         144.988         16.2255         16.2255 
        1.54627          144.07         16.0682         16.0682 
        1.55241         143.057          15.913          15.913 
        1.55855         142.311           15.76           15.76 
        1.56467          141.17         15.6095         15.6095 
         1.5708          140.35         15.4605         15.4605 
        1.57695         140.221         15.3132         15.3132 
        1.58308         139.092         15.1682         15.1682 
        1.58922         138.373         15.0249         15.0249 
        1.59535         137.433         14.8836         14.8836 
         1.6015         136.687         14.7439         14.7439 
        1.60764         136.087          14.606          14.606 
        1.61376         135.121         14.4702         14.4702 
        1.61989         134.226         14.3361         14.3361 
        1.62604         133.296         14.2034         14.2034 
        1.63218         132.957         14.0724         14.0724 
        1.63831         131.905         13.9434         13.9434 
        1.64444         131.134         13.8159         13.8159 
        1.65059         130.453         13.6898         13.6898 
        1.65673         129.748         13.5653         13.5653 
        1.66285         128.904         13.4427         13.4427 
        1.66898         128.212         13.3216         13.3216 
        1.67512         127.367         13.2018         13.2018 
        1.68127         126.601         13.0833         13.0833 
         1.6874         126.105         12.9665         12.9665 
        1.69353          125.22         12.8512         12.8512 
        1.69967         124.306         12.7371         12.7371 
        1.70581         123.623         12.6243         12.6243 
        1.71193         122.838         12.5134         12.5134 
        1.71806         122.434         12.4036         12.4036 
        1.72421         121.809         12.2948         12.2948 
        1.73035         121.205         12.1875         12.1875 
        1.73649         120.395         12.0815         12.0815 
        1.74262         119.775         11.9768         11.9768 
        1.74876         118.892         11.8733         11.8733 
        1.75489         118.263         11.7712         11.7712 
        1.76101         117.295         11.6704         11.6704 
        1.76715          117.04         11.5706         11.5706 
        1.77329         116.183         11.4718         11.4718 
        1.77943         115.816         11.3742         11.3742 
        1.78557         115.251         11.2778         11.2778 
        1.79171         114.277         11.1825         11.1825 
        1.79785         113.734         11.0883         11.0883 
        1.80399         113.094         10.9952         10.9952 
        1.81012         112.568         10.9033         10.9033 
        1.81625         112.025         10.8125         10.8125 
        1.82239         111.315         10.7226         10.7226 
        1.82853         110.465         10.6337         10.6337 
        1.83466         110.016         10.5459         10.5459 
        1.84078         109.354         10.4592         10.4592 
        1.84692         108.468         10.3734         10.3734 
        1.85306         108.294         10.2884         10.2884 
         1.8592         107.443         10.2044         10.2044 
        1.86533         107.004         10.1215         10.1215 
        1.87147         106.204         10.0394         10.0394 
