# k  (h/Mpc)    Pcb(k)  (Mpc/h)^3    Pcb_linear(k) (Mpc/h)^3    Pcb_NL(k) (Mpc/h)^3   ShotnoiseSubtracted = false
     0.00783031         14321.5         14523.9         14523.9 
       0.013688         17046.6         16892.4         16892.4 
       0.019231         16341.7         16286.1         16286.1 
      0.0249154         14126.5         14375.4         14375.4 
      0.0312784         11829.7         11907.5         11907.5 
      0.0375637         9883.05         9835.83         9835.83 
      0.0433917         8361.06         8447.62         8447.62 
      0.0492413         7507.06         7517.03         7517.03 
      0.0555754         6700.98         6850.12         6850.12 
      0.0619321         6374.13         6324.18         6324.18 
       0.067871         5718.99         5819.33         5819.33 
      0.0738098         5167.82         5247.75         5247.75 
      0.0800417         4508.55         4602.69         4602.69 
      0.0862327         3971.64         3988.81         3988.81 
      0.0921407         3554.58         3492.81         3492.81 
      0.0982031         3148.38         3108.01         3108.01 
       0.104506         2957.82         2836.38         2836.38 
       0.110769         2758.07         2660.82         2660.82 
       0.116806          2610.9          2534.7          2534.7 
       0.122832         2488.04         2409.92         2409.92 
       0.129052         2289.33          2256.3          2256.3 
       0.135211         2128.65         2075.75         2075.75 
       0.141259         1991.69         1885.75         1885.75 
       0.147318         1839.74         1704.67         1704.67 
       0.153489          1670.1         1548.39         1548.39 
       0.159709          1572.5         1428.41         1428.41 
       0.165845         1509.95         1344.46         1344.46 
       0.171974         1433.94          1284.4          1284.4 
       0.178125         1371.31         1234.47         1234.47 
       0.184229         1313.08         1183.29         1183.29 
        0.19034         1227.25          1123.7          1123.7 
       0.196428         1190.97         1055.68         1055.68 
       0.202534         1137.58         983.465         983.465 
       0.208729         1070.47         913.006         913.006 
       0.214876         1014.35         851.724         851.724 
       0.220989         975.682         802.142         802.142 
       0.227147         932.305         763.211         763.211 
        0.23329         895.877         732.415         732.415 
       0.239377         877.431         705.792         705.792 
       0.245482         819.313         679.336         679.336 
       0.251667         810.938         650.546         650.546 
       0.257832         776.857         619.457         619.457 
       0.263955         747.857         587.464         587.464 
       0.270079         717.223         556.317         556.317 
        0.27624         706.127         527.658         527.658 
       0.282372         676.747         502.877         502.877 
        0.28843          662.75         482.077         482.077 
       0.294538         628.677         464.098         464.098 
       0.300721         624.696         447.738         447.738 
        0.30691         596.454         432.025         432.025 
       0.313033         583.809         416.308         416.308 
       0.319153         567.153         400.191         400.191 
       0.325316         549.705         383.776         383.776 
        0.33145         533.199         367.804         367.804 
       0.337538         523.727         352.836         352.836 
       0.343633         507.649         339.143         339.143 
       0.349808         489.169          326.65          326.65 
       0.355968         484.769         315.433         315.433 
       0.362074         476.785         305.184         305.184 
       0.368217         462.722         295.386         295.386 
       0.374374         442.218         285.798         285.798 
       0.380519         440.184         276.296         276.296 
       0.386598         427.939         267.005         267.005 
       0.392688         424.693         257.907         257.907 
        0.39888         412.286         249.028         249.028 
       0.405048         403.112         240.705         240.705 
       0.411186         396.272         232.976         232.976 
       0.417313         388.275         225.784         225.784 
       0.423458         380.006         219.024         219.024 
       0.429607         373.728         212.586         212.586 
       0.435692         363.963         206.431         206.431 
       0.441815         360.332         200.406         200.406 
       0.447964         352.168         194.499         194.499 
       0.454126         343.623         188.732         188.732 
       0.460267         337.261         183.183         183.183 
       0.466387         333.261         177.894         177.894 
        0.47254         326.316         172.829         172.829 
       0.478662         325.239         168.034         168.034 
       0.484765         313.587         163.486         163.486 
       0.490885         310.308         159.127         159.127 
       0.497035         304.486         154.908         154.908 
       0.503198          299.53         150.811         150.811 
       0.509342         297.092         146.847         146.847 
       0.515458         293.263         143.023         143.023 
       0.521598         285.972         139.308         139.308 
       0.527764         281.685         135.705         135.705 
       0.533884         278.946          132.26          132.26 
           0.54          274.84          128.95          128.95 
       0.546137         273.164         125.761         125.761 
       0.552299         267.346         122.681         122.681 
       0.558452         265.713         119.713         119.713 
       0.564573         261.809         116.854         116.854 
       0.570708         256.357         114.075         114.075 
       0.576825         251.746         111.388         111.388 
       0.582926         249.409         108.791         108.791 
       0.589034         246.857         106.273         106.273 
       0.595184         244.325         103.821         103.821 
       0.601379         240.745         101.431         101.431 
       0.607522         237.073         99.1382         99.1382 
       0.613639         235.171         96.9272         96.9272 
       0.619772         230.187         94.7802         94.7802 
       0.625918         229.058         92.6954         92.6954 
       0.632068         225.139         90.6733         90.6733 
       0.638161         223.992         88.7298         88.7298 
         0.6443         220.318         86.8291         86.8291 
       0.650464         217.942         84.9766         84.9766 
       0.656582         215.766         83.1906         83.1906 
       0.662703          214.94         81.4549         81.4549 
       0.668861         211.075         79.7588         79.7588 
       0.675024         208.145         78.1099         78.1099 
       0.681124         206.818         76.5247         76.5247 
       0.687237          204.37         74.9811         74.9811 
       0.693381         201.073         73.4735         73.4735 
       0.699536         199.451         72.0054         72.0054 
       0.705665         197.581         70.5841         70.5841 
       0.711789         195.645         69.2028         69.2028 
       0.717957         194.602         67.8492         67.8492 
        0.72409         192.249         66.5394         66.5394 
       0.730186         189.722          65.272          65.272 
       0.736317         187.643         64.0308         64.0308 
       0.742472         186.375         62.8173         62.8173 
       0.748622         184.706         61.6364         61.6364 
        0.75476         182.839         60.4885         60.4885 
       0.760888         180.687         59.3716         59.3716 
       0.767043         180.411         58.2785         58.2785 
       0.773185         178.424         57.2153         57.2153 
       0.779291         174.957         56.1848         56.1848 
       0.785407          174.47         55.1783         55.1783 
       0.791564         172.692         54.1902         54.1902 
       0.797719          170.16         53.2268         53.2268 
       0.803834         169.184         52.2931         52.2931 
       0.809972         168.221         51.3785         51.3785 
       0.816124         167.447         50.4839         50.4839 
       0.822261         165.613         49.6131         49.6131 
       0.828378         163.905         48.7655         48.7655 
       0.834502         163.434          47.937          47.937 
       0.840667         160.982         47.1225         47.1225 
       0.846816         159.508         46.3292         46.3292 
       0.852925         158.877         45.5593         45.5593 
       0.859047         157.309         44.8054         44.8054 
       0.865192         155.376         44.0661         44.0661 
       0.871341         154.169          43.343          43.343 
       0.877463         152.889         42.6395         42.6395 
       0.883569         152.569         41.9534         41.9534 
       0.889708         150.801          41.279          41.279 
       0.895864          149.07         40.6177         40.6177 
       0.902008         148.257         39.9723         39.9723 
       0.908149         147.714         39.3413         39.3413 
       0.914301         145.652          38.723          38.723 
       0.920448         144.738         38.1186         38.1186 
       0.926574         143.688         37.5292         37.5292 
       0.932687         143.544         36.9536         36.9536 
       0.938823         141.496          36.388          36.388 
       0.944975         140.444          35.833          35.833 
       0.951105         139.638         35.2916         35.2916 
       0.957225         138.392         34.7622         34.7622 
       0.963368         136.462          34.242          34.242 
       0.969511         136.203         33.7324         33.7324 
       0.975621         135.036         33.2359         33.2359 
       0.981748          134.82         32.7481         32.7481 
       0.987916          133.31         32.2671         32.2671 
        0.99406         132.115         31.7975         31.7975 
        1.00019         131.941         31.3382         31.3382 
        1.00632          130.47         30.8885         30.8885 
        1.01246         129.758         30.4469         30.4469 
        1.01859         129.067         30.0147         30.0147 
        1.02471         127.465         29.5913         29.5913 
        1.03085         126.419         29.1748         29.1748 
        1.03698         125.884         28.7671         28.7671 
        1.04314         124.551         28.3655         28.3655 
        1.04929         124.092         27.9724         27.9724 
        1.05541         123.347         27.5884         27.5884 
        1.06154         122.455         27.2107         27.2107 
        1.06769         122.203         26.8395         26.8395 
        1.07382         120.932         26.4764         26.4764 
        1.07993         119.957         26.1209         26.1209 
        1.08607         119.278         25.7705         25.7705 
        1.09222         118.893         25.4261         25.4261 
        1.09836         117.826         25.0884         25.0884 
        1.10449         116.567         24.7573         24.7573 
        1.11063         115.754         24.4318         24.4318 
        1.11677         115.299         24.1123         24.1123 
         1.1229         114.432          23.799          23.799 
        1.12903         113.825         23.4911         23.4911 
        1.13518         113.332         23.1883         23.1883 
        1.14131          112.18          22.891          22.891 
        1.14745         111.822         22.5992         22.5992 
        1.15359         110.973         22.3123         22.3123 
        1.15973         110.399         22.0303         22.0303 
        1.16584         109.281         21.7545         21.7545 
        1.17197          108.76          21.483          21.483 
        1.17811         108.141         21.2153         21.2153 
        1.18424         107.678         20.9529         20.9529 
        1.19038         107.282         20.6942         20.6942 
        1.19652         106.341           20.44           20.44 
        1.20267         105.636         20.1901         20.1901 
        1.20881         104.889         19.9444         19.9444 
        1.21495         104.239         19.7031         19.7031 
        1.22108         103.704         19.4659         19.4659 
         1.2272         102.744         19.2332         19.2332 
        1.23334         102.325         19.0037         19.0037 
        1.23949         101.689         18.7774         18.7774 
        1.24562         101.021         18.5554         18.5554 
        1.25174         100.373         18.3374         18.3374 
        1.25789         99.8796         18.1221         18.1221 
        1.26402         98.8435         17.9107         17.9107 
        1.27014         98.4491         17.7032         17.7032 
        1.27628         98.0239         17.4984         17.4984 
        1.28244         97.5437         17.2964         17.2964 
        1.28858         97.1238         17.0978         17.0978 
        1.29471         96.1164         16.9028         16.9028 
        1.30084         95.8998          16.711          16.711 
        1.30697         94.9542         16.5219         16.5219 
        1.31312         94.5754         16.3355         16.3355 
        1.31925         93.8553         16.1525         16.1525 
        1.32537         93.4281         15.9725         15.9725 
        1.33151         92.6188         15.7946         15.7946 
        1.33765         92.2502         15.6195         15.6195 
        1.34378         91.7912         15.4475         15.4475 
        1.34992         91.4803         15.2778         15.2778 
        1.35606         90.8598         15.1104         15.1104 
         1.3622         89.9846         14.9458         14.9458 
        1.36833         89.6498          14.784          14.784 
        1.37445         89.1573         14.6247         14.6247 
        1.38059         88.5066         14.4672         14.4672 
        1.38675         87.9777         14.3117         14.3117 
        1.39288         87.7857         14.1591         14.1591 
        1.39901         87.1911         14.0088         14.0088 
        1.40515         86.4763         13.8603         13.8603 
         1.4113         86.0947          13.714          13.714 
        1.41742         85.6952         13.5704         13.5704 
        1.42355         85.1068         13.4286         13.4286 
         1.4297         84.7549         13.2884         13.2884 
        1.43585         84.0362         13.1502         13.1502 
        1.44198          83.662         13.0146         13.0146 
        1.44809         83.2352         12.8811         12.8811 
        1.45423         82.8371         12.7489         12.7489 
        1.46036         82.4313         12.6189         12.6189 
        1.46649         81.7616         12.4906         12.4906 
        1.47263         81.2112          12.364          12.364 
        1.47877         81.0734         12.2392         12.2392 
        1.48491         80.3047          12.116          12.116 
        1.49104          80.168         11.9947         11.9947 
        1.49718         79.6166         11.8749         11.8749 
        1.50333         79.1967         11.7566         11.7566 
        1.50947         78.7231         11.6402         11.6402 
         1.5156         78.2821         11.5255         11.5255 
        1.52172         77.7636         11.4123         11.4123 
        1.52787         77.4438         11.3004         11.3004 
          1.534         76.8843         11.1902         11.1902 
        1.54013         76.5132         11.0815         11.0815 
        1.54627         76.2277         10.9741         10.9741 
        1.55241         75.6475         10.8681         10.8681 
        1.55855         75.3188         10.7636         10.7636 
        1.56467         75.0337         10.6608         10.6608 
         1.5708          74.459          10.559          10.559 
        1.57695         74.4208         10.4584         10.4584 
        1.58308         73.7236         10.3594         10.3594 
        1.58922         73.4458         10.2615         10.2615 
        1.59535         73.0987          10.165          10.165 
         1.6015         72.5162         10.0696         10.0696 
        1.60764         72.2057         9.97539         9.97539 
        1.61376         71.9614         9.88269         9.88269 
        1.61989         71.4311         9.79108         9.79108 
        1.62604         71.1938         9.70043         9.70043 
        1.63218         70.8623         9.61098         9.61098 
        1.63831         70.0435         9.52287         9.52287 
        1.64444         69.8831         9.43582         9.43582 
        1.65059         69.5652         9.34965         9.34965 
        1.65673         68.9851         9.26464         9.26464 
        1.66285         68.7517         9.18093         9.18093 
        1.66898         68.5283         9.09822         9.09822 
        1.67512          67.928         9.01637         9.01637 
        1.68127          67.709         8.93544         8.93544 
         1.6874         67.2559         8.85569         8.85569 
        1.69353         66.8783         8.77696         8.77696 
        1.69967         66.5803         8.69899         8.69899 
        1.70581         66.3014         8.62201         8.62201 
        1.71193         65.9998         8.54624         8.54624 
        1.71806         65.5691         8.47122         8.47122 
        1.72421         65.1342         8.39695         8.39695 
        1.73035         64.8858         8.32366         8.32366 
        1.73649         64.6203         8.25125         8.25125 
        1.74262         64.1562         8.17977         8.17977 
        1.74876         63.9237         8.10908         8.10908 
        1.75489         63.4752         8.03936         8.03936 
        1.76101         63.2774         7.97049         7.97049 
        1.76715         62.7784         7.90233         7.90233 
        1.77329         62.5259         7.83488         7.83488 
        1.77943         62.1231         7.76819         7.76819 
        1.78557          61.982         7.70237         7.70237 
        1.79171         61.4765         7.63729         7.63729 
        1.79785         61.1286         7.57296         7.57296 
        1.80399         60.9954         7.50937         7.50937 
        1.81012         60.7062          7.4466          7.4466 
        1.81625         60.2711         7.38457         7.38457 
        1.82239         60.0149         7.32316         7.32316 
        1.82853         59.7168         7.26247         7.26247 
        1.83466         59.4353         7.20252         7.20252 
        1.84078         59.0446         7.14331         7.14331 
        1.84692         58.7413         7.08467         7.08467 
        1.85306         58.4401         7.02661         7.02661 
         1.8592         58.1894          6.9693          6.9693 
        1.86533         57.8303         6.91265         6.91265 
        1.87147         57.3918         6.85657         6.85657 
