# k  (h/Mpc)    P(k)  (Mpc/h)^3    P_linear(k)  (Mpc/h)^3     P_NL(k)  ShotnoiseSubtracted = false
     0.00783031         1389.76         1404.35         1404.35 
       0.013688         1634.52         1635.68         1635.68 
       0.019231          1578.8         1577.68         1577.68 
      0.0249154         1385.85          1392.9          1392.9 
      0.0312784         1154.38         1153.93         1153.93 
      0.0375637         957.038         953.247         953.247 
      0.0433917         818.511         818.748         818.748 
      0.0492413         729.807         728.579         728.579 
      0.0555754         661.225         663.957         663.957 
      0.0619321         615.832         612.993         612.993 
       0.067871         562.326         564.066         564.066 
      0.0738098         506.892         508.669         508.669 
      0.0800417         443.802         446.146         446.146 
      0.0862327         386.306         386.645         386.645 
      0.0921407         339.593         338.569         338.569 
      0.0982031         301.239          301.27          301.27 
       0.104506         277.264         274.942         274.942 
       0.110769         259.473         257.925         257.925 
       0.116806         245.736           245.7           245.7 
       0.122832         234.543         233.606         233.606 
       0.129052         218.346         218.715         218.715 
       0.135211         201.004         201.213         201.213 
       0.141259         183.844         182.796         182.796 
       0.147318         167.118         165.243         165.243 
       0.153489          151.48         150.094         150.094 
       0.159709         140.083         138.464         138.464 
       0.165845         132.829         130.327         130.327 
       0.171974          125.76         124.505         124.505 
       0.178125         121.045         119.665         119.665 
       0.184229         116.266         114.703         114.703 
        0.19034         109.292         108.927         108.927 
       0.196428         103.626         102.334         102.334 
       0.202534         97.5882         95.3336         95.3336 
       0.208729         90.3368         88.5037         88.5037 
       0.214876         84.0043         82.5633         82.5633 
       0.220989         79.9601         77.7568         77.7568 
       0.227147         75.4542         73.9828         73.9828 
        0.23329         72.4295         70.9979         70.9979 
       0.239377         70.0012         68.4171         68.4171 
       0.245482         66.8088         65.8526         65.8526 
       0.251667         64.6136         63.0619         63.0619 
       0.257832          61.584         60.0482         60.0482 
       0.263955         58.5098         56.9469         56.9469 
       0.270079         55.6049         53.9277         53.9277 
        0.27624         53.2745         51.1493         51.1493 
       0.282372         50.8763         48.7473         48.7473 
        0.28843         48.5875          46.731          46.731 
       0.294538         46.7143         44.9883         44.9883 
       0.300721         45.4351         43.4024         43.4024 
        0.30691         43.5475         41.8792         41.8792 
       0.313033         42.0053         40.3556         40.3556 
       0.319153         39.9615         38.7933         38.7933 
       0.325316         39.0286         37.2022         37.2022 
        0.33145         37.3079         35.6538         35.6538 
       0.337538         35.9787         34.2029         34.2029 
       0.343633         34.5114         32.8757         32.8757 
       0.349808         33.3896         31.6644         31.6644 
       0.355968         32.3457         30.5771         30.5771 
       0.362074         31.2584         29.5837         29.5837 
       0.368217         30.2535         28.6338         28.6338 
       0.374374         29.2258         27.7046         27.7046 
       0.380519          28.405         26.7834         26.7834 
       0.386598         27.5229         25.8827         25.8827 
       0.392688         26.7741         25.0007         25.0007 
        0.39888         25.8298           24.14           24.14 
       0.405048         25.0781         23.3333         23.3333 
       0.411186         24.3499         22.5841         22.5841 
       0.417313         23.5176         21.8869         21.8869 
       0.423458          22.863         21.2316         21.2316 
       0.429607         22.1728         20.6075         20.6075 
       0.435692         21.5092         20.0109         20.0109 
       0.441815         20.9874         19.4268         19.4268 
       0.447964          20.532         18.8542         18.8542 
       0.454126         19.7315         18.2951         18.2951 
       0.460267         19.2769         17.7573         17.7573 
       0.466387         18.6397         17.2446         17.2446 
        0.47254         18.2531         16.7536         16.7536 
       0.478662         17.8536         16.2888         16.2888 
       0.484765         17.2906         15.8479         15.8479 
       0.490885         16.8654         15.4253         15.4253 
       0.497035         16.5782         15.0164         15.0164 
       0.503198         16.1053         14.6192         14.6192 
       0.509342         15.6909          14.235          14.235 
       0.515458         15.2681         13.8643         13.8643 
       0.521598         14.9416         13.5041         13.5041 
       0.527764         14.5538         13.1549         13.1549 
       0.533884         14.2795         12.8209         12.8209 
           0.54         13.9192         12.5001         12.5001 
       0.546137         13.6338         12.1909         12.1909 
       0.552299         13.3472         11.8923         11.8923 
       0.558452          12.928         11.6047         11.6047 
       0.564573         12.7191         11.3276         11.3276 
       0.570708          12.444         11.0581         11.0581 
       0.576825          12.106         10.7976         10.7976 
       0.582926         11.8687         10.5459         10.5459 
       0.589034         11.5129         10.3019         10.3019 
       0.595184         11.3255         10.0641         10.0641 
       0.601379         11.0584          9.8325          9.8325 
       0.607522         10.8689          9.6102          9.6102 
       0.613639         10.6998         9.39587         9.39587 
       0.619772         10.3992         9.18774         9.18774 
       0.625918         10.2858         8.98565         8.98565 
       0.632068         10.1035         8.78963         8.78963 
       0.638161         9.83203         8.60123         8.60123 
         0.6443         9.62211         8.41699         8.41699 
       0.650464         9.40615         8.23741         8.23741 
       0.656582         9.31401         8.06428         8.06428 
       0.662703         9.12017         7.89603         7.89603 
       0.668861         8.93824         7.73161         7.73161 
       0.675024         8.74257         7.57177         7.57177 
       0.681124         8.57972         7.41811         7.41811 
       0.687237         8.42631         7.26847         7.26847 
       0.693381         8.29067         7.12233         7.12233 
       0.699536         8.06242         6.98002         6.98002 
       0.705665         7.95844         6.84224         6.84224 
       0.711789         7.80651         6.70834         6.70834 
       0.717957         7.65843         6.57713         6.57713 
        0.72409         7.51654         6.45015         6.45015 
       0.730186         7.40889          6.3273          6.3273 
       0.736317         7.30964         6.20698         6.20698 
       0.742472         7.17885         6.08935         6.08935 
       0.748622         7.05015         5.97488         5.97488 
        0.75476          6.8886          5.8636          5.8636 
       0.760888         6.78858         5.75533         5.75533 
       0.767043          6.6962         5.64937         5.64937 
       0.773185         6.54781         5.54631         5.54631 
       0.779291         6.47998         5.44641         5.44641 
       0.785407         6.37031         5.34884         5.34884 
       0.791564         6.26043         5.25306         5.25306 
       0.797719         6.13591         5.15967         5.15967 
       0.803834         6.08489         5.06916         5.06916 
       0.809972         6.00125          4.9805          4.9805 
       0.816124         5.85983         4.89378         4.89378 
       0.822261         5.76005         4.80937         4.80937 
       0.828378         5.68882          4.7272          4.7272 
       0.834502          5.6265         4.64689         4.64689 
       0.840667         5.50935         4.56793         4.56793 
       0.846816          5.4072         4.49104         4.49104 
       0.852925         5.35344         4.41641         4.41641 
       0.859047         5.26884         4.34332         4.34332 
       0.865192         5.20906         4.27165         4.27165 
       0.871341         5.13862         4.20156         4.20156 
       0.877463         5.05058         4.13336         4.13336 
       0.883569         4.95847         4.06686         4.06686 
       0.889708         4.87169         4.00148         4.00148 
       0.895864         4.81391         3.93737         3.93737 
       0.902008         4.75505         3.87481         3.87481 
       0.908149         4.69632         3.81365         3.81365 
       0.914301         4.61518         3.75371         3.75371 
       0.920448         4.54088         3.69512         3.69512 
       0.926574         4.47632         3.63799         3.63799 
       0.932687         4.42254         3.58219         3.58219 
       0.938823         4.35935         3.52736         3.52736 
       0.944975         4.29639         3.47356         3.47356 
       0.951105         4.24446         3.42107         3.42107 
       0.957225         4.21617         3.36976         3.36976 
       0.963368         4.14649         3.31933         3.31933 
       0.969511         4.08706         3.26993         3.26993 
       0.975621         4.02894          3.2218          3.2218 
       0.981748         3.98063         3.17452         3.17452 
       0.987916          3.9303         3.12789         3.12789 
        0.99406         3.86064         3.08237         3.08237 
        1.00019         3.80455         3.03785         3.03785 
        1.00632         3.77262         2.99425         2.99425 
        1.01246         3.72356         2.95145         2.95145 
        1.01859         3.67005         2.90955         2.90955 
        1.02471         3.62845         2.86851         2.86851 
        1.03085         3.57944         2.82813         2.82813 
        1.03698         3.52616         2.78861         2.78861 
        1.04314         3.49179         2.74968         2.74968 
        1.04929         3.44504         2.71158         2.71158 
        1.05541         3.39789         2.67436         2.67436 
        1.06154         3.36267         2.63774         2.63774 
        1.06769         3.33727         2.60176         2.60176 
        1.07382         3.27987         2.56656         2.56656 
        1.07993         3.23391          2.5321          2.5321 
        1.08607         3.21221         2.49813         2.49813 
        1.09222          3.1679         2.46474         2.46474 
        1.09836         3.13131         2.43201         2.43201 
        1.10449         3.09614         2.39991         2.39991 
        1.11063         3.05384         2.36836         2.36836 
        1.11677           3.025         2.33738         2.33738 
         1.1229         2.98933         2.30702         2.30702 
        1.12903          2.9493         2.27717         2.27717 
        1.13518          2.9171         2.24782         2.24782 
        1.14131         2.87422           2.219           2.219 
        1.14745         2.83383         2.19071         2.19071 
        1.15359         2.81613          2.1629          2.1629 
        1.15973         2.77511         2.13557         2.13557 
        1.16584         2.74675         2.10883         2.10883 
        1.17197         2.71675         2.08251         2.08251 
        1.17811         2.69455         2.05656         2.05656 
        1.18424         2.66375         2.03112         2.03112 
        1.19038         2.63844         2.00605         2.00605 
        1.19652         2.60711          1.9814          1.9814 
        1.20267         2.57761         1.95718         1.95718 
        1.20881         2.55163         1.93336         1.93336 
        1.21495         2.52648         1.90997         1.90997 
        1.22108         2.49602         1.88698         1.88698 
         1.2272         2.47452         1.86442         1.86442 
        1.23334         2.43835         1.84217         1.84217 
        1.23949         2.41223         1.82024         1.82024 
        1.24562         2.39452         1.79872         1.79872 
        1.25174         2.36341         1.77758         1.77758 
        1.25789          2.3435         1.75672         1.75672 
        1.26402         2.31739         1.73622         1.73622 
        1.27014         2.29221         1.71611         1.71611 
        1.27628         2.27335         1.69625         1.69625 
        1.28244         2.24083         1.67667         1.67667 
        1.28858         2.22786         1.65742         1.65742 
        1.29471         2.19783         1.63852         1.63852 
        1.30084          2.1731         1.61993         1.61993 
        1.30697         2.16506          1.6016          1.6016 
        1.31312         2.12309         1.58352         1.58352 
        1.31925         2.10955         1.56579         1.56579 
        1.32537         2.08685         1.54834         1.54834 
        1.33151         2.07626         1.53109         1.53109 
        1.33765         2.04536         1.51412         1.51412 
        1.34378         2.02914         1.49744         1.49744 
        1.34992         2.01515           1.481           1.481 
        1.35606         1.98246         1.46477         1.46477 
         1.3622          1.9729         1.44881         1.44881 
        1.36833         1.95107         1.43313         1.43313 
        1.37445         1.93073         1.41768         1.41768 
        1.38059         1.92084         1.40242         1.40242 
        1.38675         1.90401         1.38734         1.38734 
        1.39288         1.88221         1.37255         1.37255 
        1.39901          1.8585         1.35798         1.35798 
        1.40515         1.84283         1.34359         1.34359 
         1.4113          1.8276         1.32941         1.32941 
        1.41742         1.81235         1.31549         1.31549 
        1.42355         1.79536         1.30174         1.30174 
         1.4297         1.77647         1.28815         1.28815 
        1.43585         1.76543         1.27475         1.27475 
        1.44198         1.75014          1.2616          1.2616 
        1.44809         1.72914         1.24866         1.24866 
        1.45423         1.71319         1.23585         1.23585 
        1.46036         1.69602         1.22325         1.22325 
        1.46649         1.68237         1.21081         1.21081 
        1.47263         1.66491         1.19854         1.19854 
        1.47877         1.64856         1.18644         1.18644 
        1.48491         1.63616         1.17449         1.17449 
        1.49104         1.62357         1.16274         1.16274 
        1.49718         1.60824         1.15113         1.15113 
        1.50333         1.59451         1.13966         1.13966 
        1.50947         1.58004         1.12837         1.12837 
         1.5156         1.56607         1.11725         1.11725 
        1.52172         1.55298         1.10628         1.10628 
        1.52787         1.53989         1.09544         1.09544 
          1.534         1.52492         1.08475         1.08475 
        1.54013           1.513         1.07421         1.07421 
        1.54627           1.497          1.0638          1.0638 
        1.55241         1.48375         1.05352         1.05352 
        1.55855         1.47484          1.0434          1.0434 
        1.56467         1.46247         1.03343         1.03343 
         1.5708         1.44681         1.02357         1.02357 
        1.57695         1.43637         1.01381         1.01381 
        1.58308         1.42239         1.00421         1.00421 
        1.58922         1.41372        0.994729        0.994729 
        1.59535         1.40112        0.985371        0.985371 
         1.6015         1.38921         0.97612         0.97612 
        1.60764         1.37967        0.966991        0.966991 
        1.61376         1.36879        0.958005        0.958005 
        1.61989         1.35473        0.949125        0.949125 
        1.62604         1.34306        0.940337        0.940337 
        1.63218         1.33693        0.931667        0.931667 
        1.63831         1.32225        0.923125        0.923125 
        1.64444         1.31164        0.914686        0.914686 
        1.65059         1.30167        0.906333        0.906333 
        1.65673         1.29189        0.898093        0.898093 
        1.66285         1.27904        0.889978        0.889978 
        1.66898         1.27156         0.88196         0.88196 
        1.67512         1.25767        0.874026        0.874026 
        1.68127         1.24947        0.866181        0.866181 
         1.6874         1.24394         0.85845         0.85845 
        1.69353         1.22691        0.850818        0.850818 
        1.69967         1.21875         0.84326         0.84326 
        1.70581         1.21354        0.835797        0.835797 
        1.71193         1.20123        0.828453        0.828453 
        1.71806         1.19457        0.821181        0.821181 
        1.72421         1.18466        0.813982        0.813982 
        1.73035         1.17405        0.806877        0.806877 
        1.73649         1.16543        0.799858        0.799858 
        1.74262         1.15625        0.792928        0.792928 
        1.74876         1.14883        0.786075        0.786075 
        1.75489         1.13728        0.779318        0.779318 
        1.76101         1.12867        0.772641        0.772641 
        1.76715         1.12204        0.766034        0.766034 
        1.77329         1.11459        0.759495        0.759495 
        1.77943         1.10222         0.75303         0.75303 
        1.78557         1.09548         0.74665         0.74665 
        1.79171          1.0906        0.740342        0.740342 
        1.79785         1.07855        0.734105        0.734105 
        1.80399         1.07179        0.727942        0.727942 
        1.81012         1.06471        0.721857        0.721857 
        1.81625         1.05644        0.715844        0.715844 
        1.82239         1.04811         0.70989         0.70989 
        1.82853          1.0376        0.704007        0.704007 
        1.83466          1.0334        0.698196        0.698196 
        1.84078         1.02589        0.692457        0.692457 
        1.84692         1.01927        0.686772        0.686772 
        1.85306         1.00981        0.681144        0.681144 
         1.8592         1.00248        0.675588        0.675588 
        1.86533        0.994828        0.670097        0.670097 
        1.87147        0.989631         0.66466         0.66466 
        1.87761        0.981534        0.659281        0.659281 
