# k  (h/Mpc)    P(k)  (Mpc/h)^3    P_linear(k)  (Mpc/h)^3     P_NL(k)  ShotnoiseSubtracted = false
     0.00783031         17902.6         18168.7         18168.7 
       0.013688         21350.5         21124.4         21124.4 
       0.019231         20436.5         20364.2         20364.2 
      0.0249154         17614.4         17974.2         17974.2 
      0.0312784         14761.2         14888.1         14888.1 
      0.0375637         12351.4         12297.7         12297.7 
      0.0433917         10427.5         10561.9         10561.9 
      0.0492413          9374.7         9398.33         9398.33 
      0.0555754         8341.99         8564.46         8564.46 
      0.0619321          7962.1         7906.87         7906.87 
       0.067871         7121.19         7275.65         7275.65 
      0.0738098         6439.95         6561.02         6561.02 
      0.0800417         5616.22         5754.51         5754.51 
      0.0862327         4959.67         4987.01         4987.01 
      0.0921407         4456.88         4366.88         4366.88 
      0.0982031         3950.79         3885.77         3885.77 
       0.104506         3722.59         3546.17         3546.17 
       0.110769         3469.43         3326.68         3326.68 
       0.116806         3289.06         3168.99         3168.99 
       0.122832         3129.02         3012.99         3012.99 
       0.129052            2875         2820.92         2820.92 
       0.135211         2677.64         2595.19         2595.19 
       0.141259         2516.85         2357.64         2357.64 
       0.147318         2333.77         2131.24         2131.24 
       0.153489         2121.13         1935.86         1935.86 
       0.159709         2001.74         1785.86         1785.86 
       0.165845         1927.79          1680.9          1680.9 
       0.171974         1833.89         1605.81         1605.81 
       0.178125          1750.6         1543.38         1543.38 
       0.184229         1672.38         1479.39         1479.39 
        0.19034          1571.3         1404.89         1404.89 
       0.196428         1525.62         1319.85         1319.85 
       0.202534         1457.23         1229.56         1229.56 
       0.208729         1376.86         1141.48         1141.48 
       0.214876         1313.34         1064.86         1064.86 
       0.220989         1263.78         1002.87         1002.87 
       0.227147         1211.95         954.191         954.191 
        0.23329         1164.59         915.692         915.692 
       0.239377         1143.08         882.406         882.406 
       0.245482         1069.33          849.33          849.33 
       0.251667         1060.42         813.337         813.337 
       0.257832         1014.79         774.468         774.468 
       0.263955         978.264          734.47          734.47 
       0.270079         940.399         695.528         695.528 
        0.27624         927.106         659.695         659.695 
       0.282372         888.511         628.715         628.715 
        0.28843         876.957          602.71          602.71 
       0.294538         831.406         580.232         580.232 
       0.300721         826.198         559.779         559.779 
        0.30691         791.513         540.134         540.134 
       0.313033         774.888         520.482         520.482 
       0.319153         757.269         500.333         500.333 
       0.325316          733.14         479.812         479.812 
        0.33145         713.875         459.841         459.841 
       0.337538         699.917         441.128         441.128 
       0.343633         681.887          424.01          424.01 
       0.349808         656.704         408.388         408.388 
       0.355968         651.732         394.365         394.365 
       0.362074          643.75         381.552         381.552 
       0.368217         623.607         369.302         369.302 
       0.374374         596.977         357.317         357.317 
       0.380519         596.766         345.435         345.435 
       0.386598         578.937         333.819         333.819 
       0.392688         576.018         322.444         322.444 
        0.39888         558.699         311.342         311.342 
       0.405048         549.001         300.938         300.938 
       0.411186         540.941         291.275         291.275 
       0.417313         529.658         282.283         282.283 
       0.423458         518.362         273.832         273.832 
       0.429607         511.839         265.783         265.783 
       0.435692         498.849         258.087         258.087 
       0.441815         493.719         250.554         250.554 
       0.447964         483.029          243.17          243.17 
       0.454126         476.036         235.959         235.959 
       0.460267         464.945         229.022         229.022 
       0.466387         459.422          222.41          222.41 
        0.47254          453.08         216.077         216.077 
       0.478662         449.914         210.082         210.082 
       0.484765          434.19         204.396         204.396 
       0.490885         430.674         198.946         198.946 
       0.497035         421.993         193.671         193.671 
       0.503198         417.648         188.549         188.549 
       0.509342         414.441         183.593         183.593 
       0.515458         410.171         178.813         178.813 
       0.521598           398.8         174.168         174.168 
       0.527764         392.903         169.663         169.663 
       0.533884         389.963         165.356         165.356 
           0.54          384.87         161.218         161.218 
       0.546137         382.315         157.231         157.231 
       0.552299         375.373          153.38          153.38 
       0.558452         373.021          149.67          149.67 
       0.564573         368.184         146.096         146.096 
       0.570708         361.895          142.62          142.62 
       0.576825         353.554         139.261         139.261 
       0.582926          352.49         136.014         136.014 
       0.589034         348.843         132.867         132.867 
       0.595184         345.983         129.801         129.801 
       0.601379         339.802         126.813         126.813 
       0.607522         335.669         123.946         123.946 
       0.613639         333.673         121.182         121.182 
       0.619772         327.057         118.498         118.498 
       0.625918          325.65         115.891         115.891 
       0.632068         319.927         113.363         113.363 
       0.638161         318.445         110.933         110.933 
         0.6443          313.41         108.557         108.557 
       0.650464         310.591         106.241         106.241 
       0.656582         307.414         104.008         104.008 
       0.662703          306.93         101.838         101.838 
       0.668861         301.886         99.7173         99.7173 
       0.675024         298.445         97.6557         97.6557 
       0.681124         295.772         95.6739         95.6739 
       0.687237         292.995          93.744          93.744 
       0.693381         288.548         91.8592         91.8592 
       0.699536          285.36         90.0237         90.0237 
       0.705665         283.106         88.2468         88.2468 
       0.711789         281.852         86.5198         86.5198 
       0.717957         279.374         84.8275         84.8275 
        0.72409         277.144         83.1899         83.1899 
       0.730186         273.231         81.6054         81.6054 
       0.736317         270.762         80.0536         80.0536 
       0.742472         268.724         78.5364         78.5364 
       0.748622         266.364           77.06           77.06 
        0.75476         263.062         75.6248         75.6248 
       0.760888         260.357         74.2284         74.2284 
       0.767043         260.354         72.8619         72.8619 
       0.773185         257.522         71.5326         71.5326 
       0.779291         253.326         70.2442         70.2442 
       0.785407         252.666         68.9858         68.9858 
       0.791564         249.569         67.7504         67.7504 
       0.797719         247.164         66.5461         66.5461 
       0.803834         244.738         65.3787         65.3787 
       0.809972         244.204         64.2353         64.2353 
       0.816124         243.061         63.1168         63.1168 
       0.822261         240.553          62.028          62.028 
       0.828378         238.156         60.9683         60.9683 
       0.834502          236.31         59.9325         59.9325 
       0.840667         234.252         58.9142         58.9142 
       0.846816         232.665         57.9225         57.9225 
       0.852925         231.293         56.9599         56.9599 
       0.859047         229.369         56.0173         56.0173 
       0.865192         226.258         55.0929         55.0929 
       0.871341         224.571         54.1889         54.1889 
       0.877463         223.905         53.3094         53.3094 
       0.883569         222.551         52.4516         52.4516 
       0.889708         219.874         51.6084         51.6084 
       0.895864         218.524         50.7816         50.7816 
       0.902008         216.778         49.9747         49.9747 
       0.908149         215.319         49.1859         49.1859 
       0.914301         212.687         48.4129         48.4129 
       0.920448         211.659         47.6572         47.6572 
       0.926574         209.462         46.9204         46.9204 
       0.932687         209.454         46.2007         46.2007 
       0.938823         206.848         45.4936         45.4936 
       0.944975         206.209         44.7997         44.7997 
       0.951105         204.645         44.1227         44.1227 
       0.957225         203.264          43.461          43.461 
       0.963368         200.245         42.8105         42.8105 
       0.969511         199.589         42.1734         42.1734 
       0.975621         197.755         41.5527         41.5527 
       0.981748         197.334         40.9428         40.9428 
       0.987916         195.813         40.3414         40.3414 
        0.99406         193.722         39.7544         39.7544 
        1.00019          193.01         39.1802         39.1802 
        1.00632         191.588         38.6179         38.6179 
        1.01246         190.115         38.0658         38.0658 
        1.01859         190.121         37.5254         37.5254 
        1.02471         187.086         36.9962         36.9962 
        1.03085         185.917         36.4753         36.4753 
        1.03698         184.852         35.9656         35.9656 
        1.04314         183.214         35.4635         35.4635 
        1.04929         182.486         34.9721         34.9721 
        1.05541          182.04         34.4921         34.4921 
        1.06154         179.686         34.0198         34.0198 
        1.06769         179.352         33.5557         33.5557 
        1.07382         177.735         33.1018         33.1018 
        1.07993         176.335         32.6573         32.6573 
        1.08607         176.079         32.2192         32.2192 
        1.09222         174.604         31.7886         31.7886 
        1.09836         173.239         31.3665         31.3665 
        1.10449         171.463         30.9525         30.9525 
        1.11063         170.151         30.5455         30.5455 
        1.11677         169.569          30.146          30.146 
         1.1229         168.176         29.7544         29.7544 
        1.12903         167.545         29.3693         29.3693 
        1.13518         166.365         28.9908         28.9908 
        1.14131         164.773         28.6192         28.6192 
        1.14745          164.86         28.2543         28.2543 
        1.15359         163.283         27.8956         27.8956 
        1.15973         161.846         27.5431         27.5431 
        1.16584         160.983         27.1982         27.1982 
        1.17197         160.674         26.8588         26.8588 
        1.17811         158.716         26.5241         26.5241 
        1.18424         158.137         26.1961         26.1961 
        1.19038         157.667         25.8726         25.8726 
        1.19652         156.108         25.5548         25.5548 
        1.20267         155.782         25.2423         25.2423 
        1.20881         154.387         24.9351         24.9351 
        1.21495         153.414         24.6335         24.6335 
        1.22108         152.395          24.337          24.337 
         1.2272         151.289          24.046          24.046 
        1.23334         151.071         23.7591         23.7591 
        1.23949         149.495         23.4762         23.4762 
        1.24562         148.769         23.1986         23.1986 
        1.25174         147.971          22.926          22.926 
        1.25789         147.018         22.6569         22.6569 
        1.26402         145.421         22.3926         22.3926 
        1.27014         144.525         22.1332         22.1332 
        1.27628         144.056         21.8771         21.8771 
        1.28244         143.843         21.6245         21.6245 
        1.28858          142.38         21.3763         21.3763 
        1.29471         141.337         21.1325         21.1325 
        1.30084         140.827         20.8927         20.8927 
        1.30697         139.289         20.6563         20.6563 
        1.31312         138.629         20.4232         20.4232 
        1.31925         137.733         20.1944         20.1944 
        1.32537         137.535         19.9694         19.9694 
        1.33151         136.208          19.747          19.747 
        1.33765         135.219         19.5281         19.5281 
        1.34378         134.731          19.313          19.313 
        1.34992         134.122         19.1009         19.1009 
        1.35606         133.828         18.8916         18.8916 
         1.3622         132.306         18.6857         18.6857 
        1.36833         131.391         18.4835         18.4835 
        1.37445         130.887         18.2843         18.2843 
        1.38059         129.841         18.0874         18.0874 
        1.38675          129.34          17.893          17.893 
        1.39288         128.615         17.7022         17.7022 
        1.39901         128.199         17.5143         17.5143 
        1.40515         126.822         17.3286         17.3286 
         1.4113         126.398         17.1458         17.1458 
        1.41742         125.301         16.9662         16.9662 
        1.42355         124.843         16.7889         16.7889 
         1.4297         124.006         16.6136         16.6136 
        1.43585         123.226         16.4409         16.4409 
        1.44198         122.705         16.2713         16.2713 
        1.44809          122.11         16.1043         16.1043 
        1.45423         121.579         15.9392         15.9392 
        1.46036         120.442         15.7766         15.7766 
        1.46649         119.615         15.6162         15.6162 
        1.47263         118.952         15.4579         15.4579 
        1.47877         118.244         15.3019         15.3019 
        1.48491         117.214         15.1478         15.1478 
        1.49104         117.139         14.9962         14.9962 
        1.49718         116.161         14.8465         14.8465 
        1.50333         115.492         14.6985         14.6985 
        1.50947         114.866         14.5529         14.5529 
         1.5156         114.281         14.4095         14.4095 
        1.52172         113.529          14.268          14.268 
        1.52787         112.733         14.1282         14.1282 
          1.534         112.341         13.9903         13.9903 
        1.54013          111.73         13.8545         13.8545 
        1.54627          111.04         13.7202         13.7202 
        1.55241         110.271         13.5876         13.5876 
        1.55855         109.671          13.457          13.457 
        1.56467         108.986         13.3285         13.3285 
         1.5708         108.143         13.2012         13.2012 
        1.57695         107.955         13.0755         13.0755 
        1.58308         107.382         12.9516         12.9516 
        1.58922         106.901         12.8293         12.8293 
        1.59535         106.097         12.7086         12.7086 
         1.6015         105.736         12.5893         12.5893 
        1.60764         104.997         12.4716         12.4716 
        1.61376         104.383         12.3557         12.3557 
        1.61989         103.657         12.2412         12.2412 
        1.62604         102.981         12.1278         12.1278 
        1.63218          102.89          12.016          12.016 
        1.63831         102.004         11.9058         11.9058 
        1.64444          101.42          11.797          11.797 
        1.65059         100.851         11.6893         11.6893 
        1.65673         100.161          11.583          11.583 
        1.66285          99.831         11.4783         11.4783 
        1.66898         99.2244         11.3749         11.3749 
        1.67512          98.575         11.2726         11.2726 
        1.68127         98.0929         11.1714         11.1714 
         1.6874         97.4467         11.0717         11.0717 
        1.69353         97.0795         10.9733         10.9733 
        1.69967         96.6155         10.8758         10.8758 
        1.70581         95.8285         10.7795         10.7795 
        1.71193         95.3166         10.6848         10.6848 
        1.71806         94.9783          10.591          10.591 
        1.72421         94.3892         10.4982         10.4982 
        1.73035         94.0656         10.4065         10.4065 
        1.73649         93.5003          10.316          10.316 
        1.74262         92.8061         10.2266         10.2266 
        1.74876         92.4435         10.1383         10.1383 
        1.75489         91.7499         10.0511         10.0511 
        1.76101          91.162         9.96499         9.96499 
        1.76715         90.7543         9.87977         9.87977 
        1.77329         90.4285         9.79544         9.79544 
        1.77943         89.6894         9.71206         9.71206 
        1.78557         89.4375         9.62977         9.62977 
        1.79171         88.6069         9.54841         9.54841 
        1.79785         88.2112         9.46798         9.46798 
        1.80399           87.71         9.38848         9.38848 
        1.81012         87.2617            9.31            9.31 
        1.81625         86.9038         9.23245         9.23245 
        1.82239          86.389         9.15567         9.15567 
        1.82853         85.7964         9.07979         9.07979 
        1.83466         85.3458         9.00484         9.00484 
        1.84078         84.9506         8.93082         8.93082 
        1.84692         84.3528          8.8575          8.8575 
        1.85306         84.0336         8.78492         8.78492 
         1.8592         83.5761         8.71326         8.71326 
        1.86533         83.0195         8.64244         8.64244 
        1.87147         82.4966         8.57232         8.57232 
        1.87761         82.0077         8.50295         8.50295 
