# k  (h/Mpc)    P(k)  (Mpc/h)^3    P_linear(k)  (Mpc/h)^3     P_NL(k)  ShotnoiseSubtracted = false
     0.00783031         8219.51         8324.63         8324.63 
       0.013688         9744.69         9687.32         9687.32 
       0.019231         9367.93         9341.15         9341.15 
      0.0249154         8142.93         8245.91         8245.91 
      0.0312784         6808.13         6830.62         6830.62 
      0.0375637         5671.59         5642.39         5642.39 
      0.0433917         4817.17         4846.12         4846.12 
      0.0492413         4314.31         4312.32         4312.32 
      0.0555754         3873.18         3929.77         3929.77 
      0.0619321         3658.57         3628.08         3628.08 
       0.067871         3302.98         3338.47         3338.47 
      0.0738098         2980.97         3010.57         3010.57 
      0.0800417         2603.26         2640.52         2640.52 
      0.0862327          2282.8         2288.35         2288.35 
      0.0921407         2028.19          2003.8          2003.8 
      0.0982031         1795.34         1783.05         1783.05 
       0.104506         1675.67         1627.22         1627.22 
       0.110769         1564.43          1526.5          1526.5 
       0.116806         1478.49         1454.15         1454.15 
       0.122832         1412.28         1382.57         1382.57 
       0.129052          1304.1         1294.43         1294.43 
       0.135211            1208         1190.85         1190.85 
       0.141259         1120.57         1081.85         1081.85 
       0.147318         1028.36         977.964         977.964 
       0.153489         932.117          888.31          888.31 
       0.159709         872.373         819.479         819.479 
       0.165845         833.738         771.317         771.317 
       0.171974         789.328         736.862         736.862 
       0.178125          757.69         708.215         708.215 
       0.184229         727.473         678.851         678.851 
        0.19034         677.287         644.667         644.667 
       0.196428         654.096         605.645         605.645 
       0.202534         623.288         564.214         564.214 
       0.208729         582.117         523.792         523.792 
       0.214876         545.928         488.635         488.635 
       0.220989          524.04         460.189         460.189 
       0.227147          497.23         437.853         437.853 
        0.23329         477.863         420.187         420.187 
       0.239377         466.121         404.913         404.913 
       0.245482         436.112         389.735         389.735 
       0.251667         429.049         373.219         373.219 
       0.257832         411.864         355.383         355.383 
       0.263955          394.29         337.029         337.029 
       0.270079         376.849          319.16          319.16 
        0.27624         368.424         302.717         302.717 
       0.282372         353.237         288.501         288.501 
        0.28843         341.073         276.568         276.568 
       0.294538          325.25         266.254         266.254 
       0.300721         321.533         256.868         256.868 
        0.30691         306.441         247.854         247.854 
       0.313033         298.727         238.836         238.836 
       0.319153          286.76          229.59          229.59 
       0.325316         279.049         220.173         220.173 
        0.33145         268.744          211.01          211.01 
       0.337538         263.741         202.422         202.422 
       0.343633         254.281         194.568         194.568 
       0.349808         245.605         187.399         187.399 
       0.355968         241.585         180.964         180.964 
       0.362074         235.373         175.085         175.085 
       0.368217         228.502         169.463         169.463 
       0.374374         220.043         163.964         163.964 
       0.380519         216.476         158.512         158.512 
       0.386598         210.488         153.181         153.181 
       0.392688         207.125         147.962         147.962 
        0.39888         201.475         142.867         142.867 
       0.405048         196.067         138.093         138.093 
       0.411186         191.613         133.659         133.659 
       0.417313         187.489         129.533         129.533 
       0.423458          183.19         125.655         125.655 
       0.429607           178.9         121.961         121.961 
       0.435692         173.388          118.43          118.43 
       0.441815         171.714         114.973         114.973 
       0.447964         168.124         111.585         111.585 
       0.454126         161.025         108.276         108.276 
       0.460267         158.982         105.092         105.092 
       0.466387         156.822         102.058         102.058 
        0.47254         152.931         99.1524         99.1524 
       0.478662         151.756         96.4014         96.4014 
       0.484765         146.868         93.7924         93.7924 
       0.490885          144.49         91.2913         91.2913 
       0.497035         142.298          88.871          88.871 
       0.503198         138.351         86.5207         86.5207 
       0.509342         136.204         84.2465         84.2465 
       0.515458         134.126         82.0527         82.0527 
       0.521598         131.727         79.9214         79.9214 
       0.527764         129.749         77.8544         77.8544 
       0.533884         127.678         75.8777         75.8777 
           0.54         125.223         73.9789         73.9789 
       0.546137         123.953         72.1494         72.1494 
       0.552299         121.667         70.3822         70.3822 
       0.558452           119.5         68.6798         68.6798 
       0.564573         117.404         67.0398         67.0398 
       0.570708         115.248          65.445          65.445 
       0.576825         113.689         63.9033         63.9033 
       0.582926         111.465         62.4135         62.4135 
       0.589034          109.77         60.9693         60.9693 
       0.595184          108.22         59.5624         59.5624 
       0.601379         106.822         58.1915         58.1915 
       0.607522         104.389         56.8759         56.8759 
       0.613639          103.77         55.6074         55.6074 
       0.619772         101.553         54.3756         54.3756 
       0.625918         100.218         53.1796         53.1796 
       0.632068          99.072         52.0195         52.0195 
       0.638161         97.9291         50.9045         50.9045 
         0.6443         96.6037         49.8141         49.8141 
       0.650464          95.399         48.7513         48.7513 
       0.656582         93.8555         47.7266         47.7266 
       0.662703         92.3891         46.7309         46.7309 
       0.668861         91.0832         45.7578         45.7578 
       0.675024         89.8959         44.8118         44.8118 
       0.681124         89.0422         43.9024         43.9024 
       0.687237         87.3213         43.0168         43.0168 
       0.693381         86.1662          42.152          42.152 
       0.699536         85.3489         41.3097         41.3097 
       0.705665          85.293         40.4943         40.4943 
       0.711789         83.0681         39.7018         39.7018 
       0.717957         82.5979         38.9253         38.9253 
        0.72409         81.2778         38.1738         38.1738 
       0.730186         79.9222         37.4467         37.4467 
       0.736317         79.6217         36.7346         36.7346 
       0.742472         78.7455         36.0384         36.0384 
       0.748622         77.8204          35.361          35.361 
        0.75476         76.9543         34.7024         34.7024 
       0.760888         75.8307         34.0616         34.0616 
       0.767043         75.2188         33.4345         33.4345 
       0.773185         74.2643         32.8246         32.8246 
       0.779291         73.4117         32.2334         32.2334 
       0.785407         72.8478         31.6559         31.6559 
       0.791564         72.0273          31.089          31.089 
       0.797719         70.7747         30.5364         30.5364 
       0.803834          70.439         30.0007         30.0007 
       0.809972          69.222          29.476          29.476 
       0.816124         68.8491         28.9628         28.9628 
       0.822261         68.2158         28.4632         28.4632 
       0.828378         67.6213         27.9769         27.9769 
       0.834502         66.9832         27.5016         27.5016 
       0.840667         66.1445         27.0343         27.0343 
       0.846816         65.2852         26.5792         26.5792 
       0.852925          64.788         26.1375         26.1375 
       0.859047         63.8742          25.705          25.705 
       0.865192         63.4556         25.2808         25.2808 
       0.871341         62.9964          24.866          24.866 
       0.877463         61.9872         24.4624         24.4624 
       0.883569         61.6165         24.0688         24.0688 
       0.889708         61.1577         23.6819         23.6819 
       0.895864           60.59         23.3025         23.3025 
       0.902008         60.0082         22.9322         22.9322 
       0.908149         59.5373         22.5702         22.5702 
       0.914301         58.9103         22.2155         22.2155 
       0.920448         58.4672         21.8687         21.8687 
       0.926574         57.8096         21.5306         21.5306 
       0.932687         57.6204         21.2004         21.2004 
       0.938823         56.6515         20.8759         20.8759 
       0.944975         56.2595         20.5575         20.5575 
       0.951105         55.7494         20.2469         20.2469 
       0.957225         55.0915         19.9432         19.9432 
       0.963368         54.9399         19.6447         19.6447 
       0.969511         54.5288         19.3523         19.3523 
       0.975621         54.1459         19.0675         19.0675 
       0.981748         53.5287         18.7877         18.7877 
       0.987916         53.0038         18.5117         18.5117 
        0.99406         52.6997         18.2423         18.2423 
        1.00019         52.1401         17.9788         17.9788 
        1.00632         51.8356         17.7208         17.7208 
        1.01246         51.4273         17.4675         17.4675 
        1.01859         50.6774         17.2195         17.2195 
        1.02471         50.6447         16.9766         16.9766 
        1.03085         50.1399         16.7376         16.7376 
        1.03698         49.7147         16.5038         16.5038 
        1.04314         49.2672         16.2733         16.2733 
        1.04929         48.9099         16.0479         16.0479 
        1.05541         48.4127         15.8276         15.8276 
        1.06154         48.3441         15.6109         15.6109 
        1.06769         47.8327         15.3979         15.3979 
        1.07382         47.6188         15.1896         15.1896 
        1.07993         47.2794         14.9856         14.9856 
        1.08607         46.8483         14.7846         14.7846 
        1.09222         46.5676          14.587          14.587 
        1.09836         46.1904         14.3933         14.3933 
        1.10449         45.8549         14.2033         14.2033 
        1.11063         45.3949         14.0166         14.0166 
        1.11677         45.1181         13.8333         13.8333 
         1.1229         44.7644         13.6536         13.6536 
        1.12903         44.1594         13.4769         13.4769 
        1.13518         44.3391         13.3032         13.3032 
        1.14131         44.0191         13.1326         13.1326 
        1.14745         43.3936         12.9652         12.9652 
        1.15359         43.3195         12.8006         12.8006 
        1.15973         42.8234         12.6389         12.6389 
        1.16584         42.5884         12.4806         12.4806 
        1.17197         42.3154         12.3248         12.3248 
        1.17811         42.1047         12.1713         12.1713 
        1.18424         41.6923         12.0207         12.0207 
        1.19038         41.4283         11.8723         11.8723 
        1.19652         41.3012         11.7265         11.7265 
        1.20267         40.9003         11.5831         11.5831 
        1.20881         40.6657         11.4421         11.4421 
        1.21495         40.2828         11.3037         11.3037 
        1.22108         40.1096         11.1676         11.1676 
         1.2272          39.651         11.0341         11.0341 
        1.23334          39.515         10.9025         10.9025 
        1.23949         39.4546         10.7726         10.7726 
        1.24562         38.9833         10.6453         10.6453 
        1.25174         38.8521         10.5202         10.5202 
        1.25789         38.6468         10.3967         10.3967 
        1.26402          38.315         10.2754         10.2754 
        1.27014         37.9268         10.1564         10.1564 
        1.27628          37.773         10.0389         10.0389 
        1.28244         37.5121         9.92297         9.92297 
        1.28858         37.3542         9.80906         9.80906 
        1.29471         37.2213         9.69719         9.69719 
        1.30084         36.9706         9.58716         9.58716 
        1.30697         36.6578         9.47868         9.47868 
        1.31312         36.3833         9.37172         9.37172 
        1.31925         36.2504         9.26675         9.26675 
        1.32537         36.0579         9.16348         9.16348 
        1.33151         35.7099         9.06142         9.06142 
        1.33765         35.6183         8.96098         8.96098 
        1.34378         35.3684         8.86225         8.86225 
        1.34992         35.1189         8.76494         8.76494 
        1.35606         34.9045         8.66889         8.66889 
         1.3622         34.6775         8.57444         8.57444 
        1.36833         34.4575         8.48162         8.48162 
        1.37445         34.3515         8.39023         8.39023 
        1.38059         34.1206         8.29989         8.29989 
        1.38675         33.8406         8.21067         8.21067 
        1.39288         33.7682         8.12312         8.12312 
        1.39901          33.486         8.03688         8.03688 
        1.40515         33.3058          7.9517          7.9517 
         1.4113         33.1691         7.86778         7.86778 
        1.41742         32.9524          7.7854          7.7854 
        1.42355         32.7239         7.70404         7.70404 
         1.4297         32.5683         7.62359         7.62359 
        1.43585         32.4518         7.54433         7.54433 
        1.44198         32.1292         7.46649         7.46649 
        1.44809         32.0547          7.3899          7.3899 
        1.45423           31.88          7.3141          7.3141 
        1.46036         31.7294         7.23949         7.23949 
        1.46649         31.5212         7.16591         7.16591 
        1.47263         31.3113         7.09328         7.09328 
        1.47877         31.2035         7.02169         7.02169 
        1.48491         31.1412         6.95097         6.95097 
        1.49104           30.84         6.88138         6.88138 
        1.49718         30.5236         6.81268         6.81268 
        1.50333         30.5091         6.74481         6.74481 
        1.50947         30.3901           6.678           6.678 
         1.5156         30.1553         6.61219         6.61219 
        1.52172         29.9993         6.54726         6.54726 
        1.52787         29.9379         6.48308         6.48308 
          1.534         29.7293         6.41983         6.41983 
        1.54013         29.5145         6.35749         6.35749 
        1.54627          29.426         6.29586         6.29586 
        1.55241         29.1622         6.23504         6.23504 
        1.55855         29.0757          6.1751          6.1751 
        1.56467         28.7952         6.11612         6.11612 
         1.5708         28.8497         6.05773         6.05773 
        1.57695         28.5706         6.00003         6.00003 
        1.58308         28.4607          5.9432          5.9432 
        1.58922         28.4112         5.88707         5.88707 
        1.59535         28.2243         5.83169         5.83169 
         1.6015         27.9935         5.77694         5.77694 
        1.60764         27.8462         5.72291         5.72291 
        1.61376         27.7256         5.66973         5.66973 
        1.61989         27.5252         5.61717         5.61717 
        1.62604         27.4646         5.56517         5.56517 
        1.63218         27.3745         5.51385         5.51385 
        1.63831         27.1754          5.4633          5.4633 
        1.64444         27.0588         5.41336         5.41336 
        1.65059         26.8719         5.36392         5.36392 
        1.65673         26.7125         5.31515         5.31515 
        1.66285         26.6192         5.26713         5.26713 
        1.66898         26.4775         5.21968         5.21968 
        1.67512         26.3599         5.17272         5.17272 
        1.68127         26.1772         5.12629         5.12629 
         1.6874         26.0723         5.08054         5.08054 
        1.69353         25.9566         5.03537         5.03537 
        1.69967         25.8065         4.99064         4.99064 
        1.70581          25.727         4.94647         4.94647 
        1.71193         25.6039           4.903           4.903 
        1.71806         25.4083         4.85997         4.85997 
        1.72421         25.2641         4.81736         4.81736 
        1.73035         25.1465         4.77531         4.77531 
        1.73649         25.0272         4.73377         4.73377 
        1.74262         24.9153         4.69276         4.69276 
        1.74876         24.8857          4.6522          4.6522 
        1.75489         24.7093         4.61221         4.61221 
        1.76101         24.5585          4.5727          4.5727 
        1.76715         24.4774         4.53359         4.53359 
        1.77329          24.369         4.49489         4.49489 
        1.77943         24.2488         4.45663         4.45663 
        1.78557         24.0885         4.41887         4.41887 
        1.79171         23.9797         4.38154         4.38154 
        1.79785         23.8585         4.34463         4.34463 
        1.80399         23.7949         4.30815         4.30815 
        1.81012         23.6749         4.27214         4.27214 
        1.81625         23.5642         4.23655         4.23655 
        1.82239         23.4656         4.20132         4.20132 
        1.82853         23.2992          4.1665          4.1665 
        1.83466         23.2234         4.13211         4.13211 
        1.84078         23.0318         4.09814         4.09814 
        1.84692         22.9578          4.0645          4.0645 
        1.85306         22.8584         4.03119         4.03119 
         1.8592          22.741         3.99831         3.99831 
        1.86533         22.6169         3.96581         3.96581 
        1.87147         22.5536         3.93363         3.93363 
        1.87761         22.4752          3.9018          3.9018 
