# k  (h/Mpc)    P(k)  (Mpc/h)^3    P_linear(k)  (Mpc/h)^3     P_NL(k)  ShotnoiseSubtracted = false
     0.00783031         20772.6         21092.1         21092.1 
       0.013688         24805.5         24516.5         24516.5 
       0.019231         23717.3         23632.4         23632.4 
      0.0249154         20399.3         20858.1         20858.1 
      0.0312784         17103.1         17276.4         17276.4 
      0.0375637         14327.2         14270.3         14270.3 
      0.0433917         12077.7           12256           12256 
      0.0492413         10868.4         10905.7         10905.7 
      0.0555754         9649.42         9938.08         9938.08 
      0.0619321         9231.22            9175            9175 
       0.067871         8238.16         8442.52         8442.52 
      0.0738098          7454.7         7613.26         7613.26 
      0.0800417         6499.81          6677.4          6677.4 
      0.0862327         5750.27          5786.8          5786.8 
      0.0921407         5182.38         5067.21         5067.21 
      0.0982031         4597.57         4508.95         4508.95 
       0.104506         4340.05         4114.88         4114.88 
       0.110769         4043.86         3860.18         3860.18 
       0.116806         3838.26          3677.2          3677.2 
       0.122832         3646.93         3496.19         3496.19 
       0.129052         3348.16         3273.31         3273.31 
       0.135211         3121.23         3011.38         3011.38 
       0.141259         2943.33         2735.74         2735.74 
       0.147318         2737.05         2473.03         2473.03 
       0.153489         2490.33         2246.31         2246.31 
       0.159709         2352.98         2072.25         2072.25 
       0.165845         2271.32         1950.46         1950.46 
       0.171974         2162.99         1863.33         1863.33 
       0.178125         2062.76         1790.89         1790.89 
       0.184229         1966.46         1716.64         1716.64 
        0.19034         1856.81         1630.19         1630.19 
       0.196428         1802.18         1531.52         1531.52 
       0.202534         1720.64         1426.75         1426.75 
       0.208729         1630.57         1324.53         1324.53 
       0.214876         1562.91         1235.63         1235.63 
       0.220989         1504.05         1163.69         1163.69 
       0.227147          1445.9         1107.21         1107.21 
        0.23329         1389.46         1062.54         1062.54 
       0.239377         1366.01         1023.92         1023.92 
       0.245482         1280.53         985.535         985.535 
       0.251667         1270.88          943.77          943.77 
       0.257832         1216.11         898.667         898.667 
       0.263955         1172.64         852.254         852.254 
       0.270079         1129.46         807.068         807.068 
        0.27624         1113.47         765.488         765.488 
       0.282372          1067.6          729.54          729.54 
        0.28843         1058.95         699.365         699.365 
       0.294538         1004.74         673.282         673.282 
       0.300721         997.425         649.549         649.549 
        0.30691         958.671         626.753         626.753 
       0.313033         938.174          603.95          603.95 
       0.319153         920.497         580.569         580.569 
       0.325316         890.755         556.758         556.758 
        0.33145         869.405         533.585         533.585 
       0.337538         850.886          511.87          511.87 
       0.343633         832.398         492.008         492.008 
       0.349808         802.296          473.88          473.88 
       0.355968         795.973         457.608         457.608 
       0.362074         788.013         442.741         442.741 
       0.368217         762.212         428.525         428.525 
       0.374374          732.38         414.619         414.619 
       0.380519         733.317         400.831         400.831 
       0.386598          710.39         387.352         387.352 
       0.392688          707.16         374.153         374.153 
        0.39888         686.034         361.271         361.271 
       0.405048         676.755         349.199         349.199 
       0.411186         667.119         337.986         337.986 
       0.417313         653.168         327.552         327.552 
       0.423458         639.164         317.746         317.746 
       0.429607         632.672         308.406         308.406 
       0.435692         617.197         299.476         299.476 
       0.441815         610.544         290.735         290.735 
       0.447964         598.311         282.166         282.166 
       0.454126         592.557         273.799         273.799 
       0.460267         577.115         265.749         265.749 
       0.466387          570.04         258.077         258.077 
        0.47254          565.96         250.728         250.728 
       0.478662         559.434         243.772         243.772 
       0.484765         541.278         237.175         237.175 
       0.490885         537.338          230.85          230.85 
       0.497035         526.362          224.73          224.73 
       0.503198         522.214         218.786         218.786 
       0.509342         517.894         213.036         213.036 
       0.515458         513.555         207.488         207.488 
       0.521598         499.149         202.099         202.099 
       0.527764         492.187         196.872         196.872 
       0.533884         488.503         191.873         191.873 
           0.54          483.13         187.072         187.072 
       0.546137         478.822         182.445         182.445 
       0.552299         471.888         177.977         177.977 
       0.558452         467.951         173.672         173.672 
       0.564573         462.612         169.525         169.525 
       0.570708         455.888         165.492         165.492 
       0.576825         444.914         161.593         161.593 
       0.582926         445.009         157.826         157.826 
       0.589034         439.981         154.174         154.174 
       0.595184         436.558         150.616         150.616 
       0.601379         428.739          147.15          147.15 
       0.607522         423.603         143.823         143.823 
       0.613639         421.545         140.615         140.615 
       0.619772         414.362         137.501         137.501 
       0.625918         411.855         134.476         134.476 
       0.632068         405.134         131.543         131.543 
       0.638161         402.951         128.723         128.723 
         0.6443         397.204         125.966         125.966 
       0.650464         394.449         123.278         123.278 
       0.656582         389.813         120.687         120.687 
       0.662703         389.224         118.169         118.169 
       0.668861         383.328         115.709         115.709 
       0.675024         379.577         113.316         113.316 
       0.681124         376.033         111.017         111.017 
       0.687237          373.02         108.777         108.777 
       0.693381         367.321          106.59          106.59 
       0.699536         362.427          104.46          104.46 
       0.705665         360.799         102.399         102.399 
       0.711789         359.399         100.395         100.395 
       0.717957         355.895         98.4309         98.4309 
        0.72409         353.993         96.5307         96.5307 
       0.730186         348.623         94.6921         94.6921 
       0.736317         346.087         92.8914         92.8914 
       0.742472         343.333          91.131          91.131 
       0.748622         340.214         89.4178         89.4178 
        0.75476         335.457         87.7525         87.7525 
       0.760888         332.196         86.1322         86.1322 
       0.767043         332.218         84.5464         84.5464 
       0.773185         329.059          83.004          83.004 
       0.779291         324.623          81.509          81.509 
       0.785407         323.273         80.0488         80.0488 
       0.791564         319.502         78.6153         78.6153 
       0.797719         317.429         77.2178         77.2178 
       0.803834         313.244         75.8632         75.8632 
       0.809972         312.973         74.5364         74.5364 
       0.816124         311.488         73.2386         73.2386 
       0.822261          308.08         71.9752         71.9752 
       0.828378         305.698         70.7456         70.7456 
       0.834502         302.137         69.5437         69.5437 
       0.840667         300.303          68.362          68.362 
       0.846816          298.77         67.2113         67.2113 
       0.852925         296.863         66.0943         66.0943 
       0.859047         294.456         65.0005         65.0005 
       0.865192         290.766          63.928          63.928 
       0.871341         288.366          62.879          62.879 
       0.877463         288.503         61.8584         61.8584 
       0.883569          285.66         60.8631         60.8631 
       0.889708         282.963         59.8847         59.8847 
       0.895864         282.422         58.9253         58.9253 
       0.902008         279.478          57.989          57.989 
       0.908149         276.294         57.0737         57.0737 
       0.914301         274.352         56.1767         56.1767 
       0.920448           272.7         55.2998         55.2998 
       0.926574         269.403         54.4448         54.4448 
       0.932687         269.046         53.6098         53.6098 
       0.938823         266.098         52.7892         52.7892 
       0.944975         266.057          51.984          51.984 
       0.951105         263.416         51.1985         51.1985 
       0.957225         261.771         50.4306         50.4306 
       0.963368          258.07         49.6759         49.6759 
       0.969511         257.458         48.9366         48.9366 
       0.975621          255.77         48.2163         48.2163 
       0.981748         254.099         47.5087         47.5087 
       0.987916         252.805         46.8108         46.8108 
        0.99406         249.893         46.1296         46.1296 
        1.00019         248.162         45.4634         45.4634 
        1.00632         247.253         44.8109         44.8109 
        1.01246          245.12         44.1702         44.1702 
        1.01859          245.14         43.5432         43.5432 
        1.02471           241.3         42.9291         42.9291 
        1.03085         240.315         42.3247         42.3247 
        1.03698          238.87         41.7333         41.7333 
        1.04314         237.084         41.1506         41.1506 
        1.04929          235.54         40.5805         40.5805 
        1.05541         235.158         40.0234         40.0234 
        1.06154         231.726         39.4754         39.4754 
        1.06769         231.317         38.9369         38.9369 
        1.07382         229.295         38.4102         38.4102 
        1.07993         227.973         37.8944         37.8944 
        1.08607         227.517          37.386          37.386 
        1.09222         224.927         36.8864         36.8864 
        1.09836         223.355         36.3966         36.3966 
        1.10449         221.638         35.9162         35.9162 
        1.11063         219.714          35.444          35.444 
        1.11677         219.226         34.9804         34.9804 
         1.1229         217.052          34.526          34.526 
        1.12903           216.3         34.0792         34.0792 
        1.13518         214.779           33.64           33.64 
        1.14131         213.067         33.2087         33.2087 
        1.14745         212.948         32.7853         32.7853 
        1.15359         210.975         32.3691         32.3691 
        1.15973          209.07         31.9601         31.9601 
        1.16584         208.012         31.5599         31.5599 
        1.17197         207.966          31.166          31.166 
        1.17811         205.017         30.7776         30.7776 
        1.18424         204.092          30.397          30.397 
        1.19038         203.352         30.0217         30.0217 
        1.19652         201.333         29.6529         29.6529 
        1.20267         201.333         29.2903         29.2903 
        1.20881         199.183         28.9339         28.9339 
        1.21495         198.163         28.5839         28.5839 
        1.22108         196.827         28.2398         28.2398 
         1.2272         195.519         27.9021         27.9021 
        1.23334         195.283         27.5692         27.5692 
        1.23949         192.762         27.2409         27.2409 
        1.24562         192.128         26.9189         26.9189 
        1.25174         191.223         26.6026         26.6026 
        1.25789         189.982         26.2903         26.2903 
        1.26402         187.912         25.9836         25.9836 
        1.27014         187.114         25.6826         25.6826 
        1.27628         185.777         25.3854         25.3854 
        1.28244         185.656         25.0923         25.0923 
        1.28858         183.843         24.8043         24.8043 
        1.29471         183.056         24.5214         24.5214 
        1.30084         181.376         24.2432         24.2432 
        1.30697          180.24         23.9689         23.9689 
        1.31312         178.938         23.6984         23.6984 
        1.31925         177.651         23.4329         23.4329 
        1.32537         177.623         23.1718         23.1718 
        1.33151         175.868         22.9137         22.9137 
        1.33765         174.603         22.6597         22.6597 
        1.34378         173.918         22.4101         22.4101 
        1.34992         173.122          22.164          22.164 
        1.35606         172.642         21.9211         21.9211 
         1.3622         170.564         21.6823         21.6823 
        1.36833         169.745         21.4476         21.4476 
        1.37445         168.871         21.2165         21.2165 
        1.38059         167.604         20.9881         20.9881 
        1.38675         167.059         20.7624         20.7624 
        1.39288         165.977          20.541          20.541 
        1.39901         164.869          20.323          20.323 
        1.40515         163.865         20.1076         20.1076 
         1.4113         162.995         19.8954         19.8954 
        1.41742         161.683          19.687          19.687 
        1.42355         161.016         19.4813         19.4813 
         1.4297         159.667         19.2779         19.2779 
        1.43585          158.89         19.0774         19.0774 
        1.44198         158.475         18.8806         18.8806 
        1.44809         157.319         18.6869         18.6869 
        1.45423         156.699         18.4953         18.4953 
        1.46036          155.33         18.3066         18.3066 
        1.46649         154.458         18.1205         18.1205 
        1.47263         153.628         17.9369         17.9369 
        1.47877         152.389         17.7558         17.7558 
        1.48491         151.151          17.577          17.577 
        1.49104         151.002          17.401          17.401 
        1.49718         149.424         17.2273         17.2273 
        1.50333         148.791         17.0557         17.0557 
        1.50947         147.734         16.8867         16.8867 
         1.5156         147.074         16.7203         16.7203 
        1.52172         146.334         16.5562         16.5562 
        1.52787         144.965         16.3939         16.3939 
          1.534         144.634         16.2339         16.2339 
        1.54013         143.654         16.0763         16.0763 
        1.54627         142.745         15.9204         15.9204 
        1.55241         141.741         15.7666         15.7666 
        1.55855         141.002         15.6151         15.6151 
        1.56467         139.871         15.4659         15.4659 
         1.5708         139.058         15.3183         15.3183 
        1.57695         138.931         15.1723         15.1723 
        1.58308         137.812         15.0287         15.0287 
        1.58922           137.1         14.8867         14.8867 
        1.59535         136.169         14.7467         14.7467 
         1.6015          135.43         14.6082         14.6082 
        1.60764         134.835         14.4716         14.4716 
        1.61376         133.878         14.3371         14.3371 
        1.61989         132.991         14.2042         14.2042 
        1.62604         132.069         14.0727         14.0727 
        1.63218         131.733         13.9429         13.9429 
        1.63831         130.691         13.8151         13.8151 
        1.64444         129.928         13.6888         13.6888 
        1.65059         129.253         13.5638         13.5638 
        1.65673         128.554         13.4405         13.4405 
        1.66285         127.718         13.3191         13.3191 
        1.66898         127.032         13.1991         13.1991 
        1.67512         126.195         13.0803         13.0803 
        1.68127         125.437         12.9629         12.9629 
         1.6874         124.945         12.8472         12.8472 
        1.69353         124.068          12.733          12.733 
        1.69967         123.163         12.6199         12.6199 
        1.70581         122.486         12.5082         12.5082 
        1.71193         121.708         12.3983         12.3983 
        1.71806         121.307         12.2895         12.2895 
        1.72421         120.688         12.1817         12.1817 
        1.73035          120.09         12.0754         12.0754 
        1.73649         119.288         11.9703         11.9703 
        1.74262         118.674         11.8666         11.8666 
        1.74876         117.798         11.7641         11.7641 
        1.75489         117.175         11.6629         11.6629 
        1.76101         116.216          11.563          11.563 
        1.76715         115.963         11.4641         11.4641 
        1.77329         115.114         11.3663         11.3663 
        1.77943         114.751         11.2695         11.2695 
        1.78557         114.191         11.1741         11.1741 
        1.79171         113.226         11.0796         11.0796 
        1.79785         112.688         10.9863         10.9863 
        1.80399         112.054         10.8941         10.8941 
        1.81012         111.532          10.803          10.803 
        1.81625         110.994          10.713          10.713 
        1.82239         110.291         10.6239         10.6239 
        1.82853         109.448         10.5359         10.5359 
        1.83466         109.004         10.4489         10.4489 
        1.84078         108.348          10.363          10.363 
        1.84692          107.47         10.2779         10.2779 
        1.85306         107.297         10.1937         10.1937 
         1.8592         106.455         10.1106         10.1106 
        1.86533         106.019         10.0284         10.0284 
        1.87147         105.227         9.94703         9.94703 
        1.87761         104.402         9.86653         9.86653 
