# k  (h/Mpc)    P(k)  (Mpc/h)^3    P_linear(k)  (Mpc/h)^3     P_NL(k)  ShotnoiseSubtracted = false
     0.00783031         13104.8         13287.1         13287.1 
       0.013688         15588.5         15455.3         15455.3 
       0.019231         14950.9           14901           14901 
      0.0249154         12936.1           13153           13153 
      0.0312784         10830.2           10895           10895 
      0.0375637         9043.71         8999.56         8999.56 
      0.0433917         7655.98         7729.41         7729.41 
      0.0492413         6871.17         6877.95         6877.95 
      0.0555754         6139.31         6267.74         6267.74 
      0.0619321          5833.4         5786.53         5786.53 
       0.067871         5239.12          5324.6          5324.6 
      0.0738098         4733.12         4801.62         4801.62 
      0.0800417         4129.89         4211.39         4211.39 
      0.0862327         3635.28         3649.71         3649.71 
      0.0921407         3249.49         3195.88         3195.88 
      0.0982031         2877.61         2843.79         2843.79 
       0.104506         2700.75         2595.25         2595.25 
       0.110769         2518.82         2434.62         2434.62 
       0.116806          2383.5         2319.22         2319.22 
       0.122832         2272.44         2205.05         2205.05 
       0.129052         2092.03         2064.49         2064.49 
       0.135211         1944.07         1899.29         1899.29 
       0.141259         1816.39         1725.44         1725.44 
       0.147318         1675.89         1559.75         1559.75 
       0.153489         1520.86         1416.76         1416.76 
       0.159709         1430.76         1306.98         1306.98 
       0.165845         1372.67         1230.17         1230.17 
       0.171974         1302.87         1175.22         1175.22 
       0.178125         1246.75         1129.53         1129.53 
       0.184229         1194.51         1082.69         1082.69 
        0.19034         1115.09         1028.17         1028.17 
       0.196428         1081.66         965.937         965.937 
       0.202534         1032.99          899.86          899.86 
       0.208729          970.81         835.391         835.391 
       0.214876         918.133         779.319         779.319 
       0.220989         882.936          733.95          733.95 
       0.227147         842.704         698.327         698.327 
        0.23329         809.796         670.152         670.152 
       0.239377         792.608         645.791         645.791 
       0.245482          739.93         621.585         621.585 
       0.251667           731.8         595.243         595.243 
       0.257832         701.358         566.797         566.797 
       0.263955         674.698         537.524         537.524 
       0.270079         646.647         509.024         509.024 
        0.27624         636.153         482.799         482.799 
       0.282372         609.747         460.127         460.127 
        0.28843         595.624         441.095         441.095 
       0.294538         565.323         424.645         424.645 
       0.300721         561.516         409.676         409.676 
        0.30691         535.745         395.298         395.298 
       0.313033         524.231         380.916         380.916 
       0.319153         508.273          366.17          366.17 
       0.325316         492.852         351.152         351.152 
        0.33145         477.482         336.536         336.536 
       0.337538         469.139         322.841         322.841 
       0.343633         454.158         310.313         310.313 
       0.349808           437.8          298.88          298.88 
       0.355968         433.462         288.618         288.618 
       0.362074         425.687          279.24          279.24 
       0.368217         413.288         270.275         270.275 
       0.374374         395.146         261.504         261.504 
       0.380519         392.646         252.808         252.808 
       0.386598           381.9         244.306         244.306 
       0.392688         378.543         235.982         235.982 
        0.39888         367.652         227.857         227.857 
       0.405048         359.018         220.243         220.243 
       0.411186         352.566         213.171         213.171 
       0.417313         345.533          206.59          206.59 
       0.423458         338.141         200.405         200.405 
       0.429607         332.127         194.514         194.514 
       0.435692         323.297         188.882         188.882 
       0.441815         320.093         183.369         183.369 
       0.447964         312.866         177.965         177.965 
       0.454126           304.2         172.687         172.687 
       0.460267         298.985         167.611         167.611 
       0.466387         295.448         162.771         162.771 
        0.47254          288.83         158.137         158.137 
       0.478662         287.963         153.749         153.749 
       0.484765         277.718         149.588         149.588 
       0.490885         274.566         145.599         145.599 
       0.497035         269.583         141.739         141.739 
       0.503198         264.616         137.991         137.991 
       0.509342         262.299         134.364         134.364 
       0.515458         258.757         130.865         130.865 
       0.521598         252.637         127.465         127.465 
       0.527764         248.886         124.169         124.169 
       0.533884         246.186         121.016         121.016 
           0.54         242.454         117.988         117.988 
       0.546137         240.881          115.07          115.07 
       0.552299         235.697         112.252         112.252 
       0.558452         234.025         109.536         109.536 
       0.564573         230.494         106.921         106.921 
       0.570708         225.555         104.377         104.377 
       0.576825         221.856         101.918         101.918 
       0.582926         219.338         99.5424         99.5424 
       0.589034         217.048          97.239          97.239 
       0.595184         214.656         94.9951         94.9951 
       0.601379         211.711         92.8088         92.8088 
       0.607522         208.192         90.7105         90.7105 
       0.613639         206.457         88.6874         88.6874 
       0.619772         202.091         86.7229         86.7229 
       0.625918         200.847         84.8154         84.8154 
       0.632068         197.593         82.9651         82.9651 
       0.638161         196.461         81.1868         81.1868 
         0.6443         193.288         79.4478         79.4478 
       0.650464         191.178         77.7527         77.7527 
       0.656582         189.138         76.1185         76.1185 
       0.662703         188.143         74.5304         74.5304 
       0.668861         184.732         72.9785         72.9785 
       0.675024         182.118         71.4697         71.4697 
       0.681124         181.075         70.0193         70.0193 
       0.687237         178.677         68.6069         68.6069 
       0.693381         175.791         67.2275         67.2275 
       0.699536         174.495         65.8842         65.8842 
       0.705665         173.005         64.5837         64.5837 
       0.711789         170.814         63.3199         63.3199 
       0.717957         170.089         62.0813         62.0813 
        0.72409         167.823         60.8828         60.8828 
       0.730186         165.544         59.7232         59.7232 
       0.736317         163.792         58.5875         58.5875 
       0.742472         162.697         57.4772         57.4772 
       0.748622          161.19         56.3967         56.3967 
        0.75476         159.605         55.3463         55.3463 
       0.760888         157.645         54.3244         54.3244 
       0.767043         157.266         53.3242         53.3242 
       0.773185         155.546         52.3514         52.3514 
       0.779291         152.516         51.4085         51.4085 
       0.785407         152.032         50.4875         50.4875 
       0.791564         150.578         49.5834         49.5834 
       0.797719         148.175          48.702          48.702 
       0.803834         147.416         47.8477         47.8477 
       0.809972         146.366         47.0108         47.0108 
       0.816124         145.713         46.1923         46.1923 
       0.822261         144.058         45.3955         45.3955 
       0.828378         142.618         44.6199         44.6199 
       0.834502         142.302         43.8619         43.8619 
       0.840667         139.989         43.1166         43.1166 
       0.846816         138.622         42.3908         42.3908 
       0.852925         138.078         41.6863         41.6863 
       0.859047         136.563         40.9965         40.9965 
       0.865192         135.063           40.32           40.32 
       0.871341         133.977         39.6584         39.6584 
       0.877463         132.717         39.0147         39.0147 
       0.883569         132.421         38.3869         38.3869 
       0.889708         130.991         37.7698         37.7698 
       0.895864         129.429         37.1647         37.1647 
       0.902008         128.709         36.5742         36.5742 
       0.908149         128.181         35.9969         35.9969 
       0.914301         126.509         35.4312         35.4312 
       0.920448         125.615         34.8781         34.8781 
       0.926574         124.739         34.3389         34.3389 
       0.932687         124.583         33.8122         33.8122 
       0.938823         122.697         33.2947         33.2947 
       0.944975         121.624         32.7868         32.7868 
       0.951105         120.988         32.2914         32.2914 
       0.957225         119.839         31.8071         31.8071 
       0.963368         118.293         31.3311         31.3311 
       0.969511         118.138         30.8648         30.8648 
       0.975621         117.225         30.4105         30.4105 
       0.981748         116.817         29.9642         29.9642 
       0.987916         115.477          29.524          29.524 
        0.99406         114.494         29.0944         29.0944 
        1.00019         114.296         28.6742         28.6742 
        1.00632         112.997         28.2626         28.2626 
        1.01246         112.431         27.8586         27.8586 
        1.01859         111.553         27.4631         27.4631 
        1.02471         110.379         27.0758         27.0758 
        1.03085         109.446         26.6946         26.6946 
        1.03698         109.038         26.3216         26.3216 
        1.04314         107.886         25.9541         25.9541 
        1.04929         107.409         25.5945         25.5945 
        1.05541         106.613         25.2432         25.2432 
        1.06154         105.995         24.8975         24.8975 
        1.06769         105.724         24.5579         24.5579 
        1.07382         104.682         24.2257         24.2257 
        1.07993         103.845         23.9004         23.9004 
        1.08607         103.137         23.5797         23.5797 
        1.09222         102.881         23.2646         23.2646 
        1.09836         101.918         22.9557         22.9557 
        1.10449         100.957         22.6527         22.6527 
        1.11063         100.245         22.3549         22.3549 
        1.11677         99.8346         22.0625         22.0625 
         1.1229         98.9967         21.7759         21.7759 
        1.12903         98.3644         21.4941         21.4941 
        1.13518         98.1239          21.217          21.217 
        1.14131         97.1788         20.9451         20.9451 
        1.14745         96.6788          20.678          20.678 
        1.15359          96.002         20.4155         20.4155 
        1.15973         95.5598         20.1575         20.1575 
        1.16584         94.5766         19.9051         19.9051 
        1.17197         94.1006         19.6567         19.6567 
        1.17811         93.5818         19.4118         19.4118 
        1.18424         93.1148         19.1717         19.1717 
        1.19038         92.7327          18.935          18.935 
        1.19652         91.9761         18.7024         18.7024 
        1.20267         91.2565         18.4737         18.4737 
        1.20881         90.6834         18.2489         18.2489 
        1.21495         90.0976         18.0282         18.0282 
        1.22108         89.6845         17.8111         17.8111 
         1.2272         88.7857         17.5981         17.5981 
        1.23334         88.4316         17.3882         17.3882 
        1.23949         87.8556         17.1811         17.1811 
        1.24562         87.2895          16.978          16.978 
        1.25174         86.7318         16.7785         16.7785 
        1.25789         86.3597         16.5816         16.5816 
        1.26402          85.532         16.3881         16.3881 
        1.27014         85.1812         16.1983         16.1983 
        1.27628         84.7524         16.0108         16.0108 
        1.28244         84.2146          15.826          15.826 
        1.28858           83.99         15.6443         15.6443 
        1.29471          83.177         15.4659         15.4659 
        1.30084         82.8561         15.2904         15.2904 
        1.30697         82.1634         15.1174         15.1174 
        1.31312         81.7914         14.9468         14.9468 
        1.31925         81.1747         14.7794         14.7794 
        1.32537         80.7968         14.6147         14.6147 
        1.33151         80.1005         14.4519         14.4519 
        1.33765         79.7923         14.2917         14.2917 
        1.34378         79.3747         14.1343         14.1343 
        1.34992         79.0626         13.9791         13.9791 
        1.35606         78.5065         13.8259         13.8259 
         1.3622         77.7588         13.6752         13.6752 
        1.36833          77.603         13.5272         13.5272 
        1.37445         77.0863         13.3814         13.3814 
        1.38059         76.5289         13.2374         13.2374 
        1.38675         76.0728         13.0951         13.0951 
        1.39288         75.8308         12.9554         12.9554 
        1.39901         75.3649         12.8179         12.8179 
        1.40515         74.7908          12.682          12.682 
         1.4113         74.4348         12.5482         12.5482 
        1.41742         74.2162         12.4168         12.4168 
        1.42355         73.6194          12.287          12.287 
         1.4297         73.3457         12.1587         12.1587 
        1.43585         72.7208         12.0323         12.0323 
        1.44198         72.3465         11.9082         11.9082 
        1.44809         72.0055          11.786          11.786 
        1.45423         71.6404         11.6651         11.6651 
        1.46036         71.3348         11.5462         11.5462 
        1.46649         70.7634         11.4288         11.4288 
        1.47263         70.3094          11.313          11.313 
        1.47877         70.1961         11.1988         11.1988 
        1.48491         69.5571          11.086          11.086 
        1.49104         69.3884          10.975          10.975 
        1.49718         68.9064         10.8654         10.8654 
        1.50333         68.5527         10.7572         10.7572 
        1.50947         68.1665         10.6506         10.6506 
         1.5156         67.7948         10.5457         10.5457 
        1.52172         67.3487         10.4421         10.4421 
        1.52787          67.154         10.3398         10.3398 
          1.534         66.6083         10.2389         10.2389 
        1.54013         66.2438         10.1395         10.1395 
        1.54627         66.0486         10.0412         10.0412 
        1.55241         65.5212         9.94416         9.94416 
        1.55855          65.277         9.84857         9.84857 
        1.56467         64.9571          9.7545          9.7545 
         1.5708         64.5895         9.66139         9.66139 
        1.57695         64.4944         9.56935         9.56935 
        1.58308         63.8337         9.47872         9.47872 
        1.58922         63.6011          9.3892          9.3892 
        1.59535         63.3924         9.30086         9.30086 
         1.6015          62.813         9.21354         9.21354 
        1.60764         62.6154         9.12738         9.12738 
        1.61376         62.3064         9.04256         9.04256 
        1.61989         61.9138         8.95874         8.95874 
        1.62604         61.7109          8.8758          8.8758 
        1.63218         61.4031         8.79395         8.79395 
        1.63831         60.7309         8.71333         8.71333 
        1.64444         60.6017         8.63368         8.63368 
        1.65059         60.3258         8.55483         8.55483 
        1.65673         59.9056         8.47705         8.47705 
        1.66285         59.6055         8.40046         8.40046 
        1.66898         59.4154         8.32478         8.32478 
        1.67512         58.9195         8.24988         8.24988 
        1.68127         58.7249         8.17584         8.17584 
         1.6874         58.4033         8.10287         8.10287 
        1.69353         58.0795         8.03083         8.03083 
        1.69967         57.7558         7.95949         7.95949 
        1.70581         57.5747         7.88905         7.88905 
        1.71193         57.3571         7.81972         7.81972 
        1.71806         56.8685         7.75108         7.75108 
        1.72421         56.5983         7.68313         7.68313 
        1.73035         56.3648         7.61607         7.61607 
        1.73649         56.0926         7.54981         7.54981 
        1.74262         55.7938          7.4844          7.4844 
        1.74876         55.5207         7.41972         7.41972 
        1.75489         55.1876         7.35594         7.35594 
        1.76101         55.0221         7.29292         7.29292 
        1.76715         54.5805         7.23055         7.23055 
        1.77329         54.3371         7.16884         7.16884 
        1.77943         54.0043         7.10781         7.10781 
        1.78557         53.8551         7.04759         7.04759 
        1.79171         53.5103         6.98805         6.98805 
        1.79785         53.1778         6.92918         6.92918 
        1.80399         53.1038           6.871           6.871 
        1.81012         52.7914         6.81357         6.81357 
        1.81625         52.3848         6.75681         6.75681 
        1.82239         52.1961         6.70062         6.70062 
        1.82853         51.9013         6.64508         6.64508 
        1.83466         51.6758         6.59023         6.59023 
        1.84078         51.3715         6.53606         6.53606 
        1.84692         51.0485          6.4824          6.4824 
        1.85306         50.8373         6.42928         6.42928 
         1.8592         50.5656         6.37684         6.37684 
        1.86533         50.3203         6.32501         6.32501 
        1.87147         49.9696         6.27369         6.27369 
        1.87761         49.8182         6.22292         6.22292 
