# k  (h/Mpc)    P(k)  (Mpc/h)^3    P_linear(k)  (Mpc/h)^3     P_NL(k)  ShotnoiseSubtracted = false
     0.00783031           10961         11108.4         11108.4 
       0.013688         13020.8         12923.5         12923.5 
       0.019231         12500.4         12460.7         12460.7 
      0.0249154         10836.5         10999.3         10999.3 
      0.0312784         9067.62         9111.21         9111.21 
      0.0375637         7564.33         7526.16         7526.16 
      0.0433917         6412.37         6463.99         6463.99 
      0.0492413         5750.07         5751.95         5751.95 
      0.0555754         5147.89         5241.66         5241.66 
      0.0619321         4879.78         4839.24         4839.24 
       0.067871            4392         4452.94         4452.94 
      0.0738098         3966.05         4015.58         4015.58 
      0.0800417          3461.7         3521.98         3521.98 
      0.0862327         3042.27         3052.25         3052.25 
      0.0921407         2712.46         2672.71         2672.71 
      0.0982031         2401.36         2378.26         2378.26 
       0.104506         2248.85         2170.41         2170.41 
       0.110769         2098.22         2036.07         2036.07 
       0.116806         1984.16         1939.56         1939.56 
       0.122832         1893.43         1844.09         1844.09 
       0.129052         1745.15         1726.53         1726.53 
       0.135211         1619.64         1588.38         1588.38 
       0.141259         1508.77         1442.99         1442.99 
       0.147318         1388.85         1304.42         1304.42 
       0.153489         1259.63         1184.84         1184.84 
       0.159709         1182.66         1093.03         1093.03 
       0.165845         1132.75         1028.79         1028.79 
       0.171974         1073.95         982.836         982.836 
       0.178125         1029.06         944.625         944.625 
       0.184229          986.96         905.459         905.459 
        0.19034         919.699         859.863         859.863 
       0.196428         890.903         807.816         807.816 
       0.202534         850.282         752.555         752.555 
       0.208729         796.984          698.64          698.64 
       0.214876         750.906         651.747         651.747 
       0.220989         721.661         613.804         613.804 
       0.227147         687.096         584.013         584.013 
        0.23329         660.312          560.45          560.45 
       0.239377         645.401         540.077         540.077 
       0.245482          602.62         519.833         519.833 
       0.251667         594.867         497.803         497.803 
       0.257832         570.637         474.014         474.014 
       0.263955         547.951         449.533         449.533 
       0.270079         524.525         425.699         425.699 
        0.27624          514.91         403.767         403.767 
       0.282372         493.645         384.806         384.806 
        0.28843         479.739         368.889         368.889 
       0.294538         456.099         355.132         355.132 
       0.300721          452.35         342.613         342.613 
        0.30691         431.202         330.589         330.589 
       0.313033         421.462         318.562         318.562 
       0.319153         406.924         306.229         306.229 
       0.325316         395.035         293.669         293.669 
        0.33145         381.777         281.447         281.447 
       0.337538         375.152         269.993         269.993 
       0.343633         362.394         259.516         259.516 
       0.349808         349.653         249.954         249.954 
       0.355968         345.355         241.372         241.372 
       0.362074         338.045          233.53          233.53 
       0.368217         328.322         226.032         226.032 
       0.374374         314.604         218.697         218.697 
       0.380519         311.373         211.424         211.424 
       0.386598         302.952         204.314         204.314 
       0.392688         299.419         197.352         197.352 
        0.39888         291.078         190.558         190.558 
       0.405048         283.675          184.19          184.19 
       0.411186         277.952         178.275         178.275 
       0.417313         272.442         172.772         172.772 
       0.423458         266.489         167.599         167.599 
       0.429607         261.079         162.673         162.673 
       0.435692         253.748         157.963         157.963 
       0.441815         251.278         153.352         153.352 
       0.447964         245.747         148.833         148.833 
       0.454126         237.228         144.419         144.419 
       0.460267         233.735         140.173         140.173 
       0.466387         230.954         136.126         136.126 
        0.47254         225.289          132.25          132.25 
       0.478662         224.437         128.581         128.581 
       0.484765         216.697         125.101         125.101 
       0.490885         213.812         121.765         121.765 
       0.497035         210.235         118.537         118.537 
       0.503198         205.419         115.402         115.402 
       0.509342         203.189         112.369         112.369 
       0.515458         200.276         109.443         109.443 
       0.521598         196.058           106.6           106.6 
       0.527764          193.21         103.843         103.843 
       0.533884         190.632         101.206         101.206 
           0.54         187.505         98.6736         98.6736 
       0.546137         186.036         96.2335         96.2335 
       0.552299         182.159         93.8764         93.8764 
       0.558452         180.221         91.6056         91.6056 
       0.564573          177.34         89.4182         89.4182 
       0.570708         173.577         87.2911         87.2911 
       0.576825         171.134         85.2348         85.2348 
       0.582926         168.508         83.2477         83.2477 
       0.589034         166.556         81.3214         81.3214 
       0.595184         164.467         79.4448         79.4448 
       0.601379         162.397         77.6163         77.6163 
       0.607522         159.243         75.8615         75.8615 
       0.613639         157.957         74.1696         74.1696 
       0.619772         154.649         72.5267         72.5267 
       0.625918         153.171         70.9314         70.9314 
       0.632068         151.083          69.384          69.384 
       0.638161         149.902         67.8968         67.8968 
         0.6443         147.666         66.4425         66.4425 
       0.650464          146.03         65.0249         65.0249 
       0.656582         144.089         63.6582         63.6582 
       0.662703         142.764           62.33           62.33 
       0.668861         140.282         61.0322         61.0322 
       0.675024         138.344         59.7704         59.7704 
       0.681124         137.559         58.5574         58.5574 
       0.687237         135.279         57.3762         57.3762 
       0.693381         133.185         56.2226         56.2226 
       0.699536         132.282         55.0992         55.0992 
       0.705665         131.579         54.0116         54.0116 
       0.711789         129.042         52.9546         52.9546 
       0.717957         128.623         51.9188         51.9188 
        0.72409         126.634         50.9165         50.9165 
       0.730186         124.736         49.9467         49.9467 
       0.736317         123.737         48.9969         48.9969 
       0.742472         122.817         48.0684         48.0684 
       0.748622         121.566         47.1648         47.1648 
        0.75476         120.343         46.2863         46.2863 
       0.760888         118.731         45.4317         45.4317 
       0.767043         118.208         44.5953         44.5953 
       0.773185         116.875         43.7817         43.7817 
       0.779291         114.842         42.9931         42.9931 
       0.785407         114.311         42.2229         42.2229 
       0.791564         113.248         41.4668         41.4668 
       0.797719         111.266         40.7297         40.7297 
       0.803834         110.744         40.0152         40.0152 
       0.809972         109.531         39.3153         39.3153 
       0.816124         109.076         38.6308         38.6308 
       0.822261         107.861         37.9644         37.9644 
       0.828378         106.833         37.3158         37.3158 
       0.834502         106.446         36.6818         36.6818 
       0.840667          104.72         36.0586         36.0586 
       0.846816         103.578         35.4516         35.4516 
       0.852925         103.033         34.8624         34.8624 
       0.859047         101.708         34.2855         34.2855 
       0.865192         100.888         33.7198         33.7198 
       0.871341         100.023         33.1665         33.1665 
       0.877463         98.8824         32.6281         32.6281 
       0.883569         98.5153         32.1031         32.1031 
       0.889708         97.5789         31.5871         31.5871 
       0.895864         96.5428          31.081          31.081 
       0.902008         95.8616         30.5872         30.5872 
       0.908149         95.2928         30.1044         30.1044 
       0.914301         94.2072         29.6312         29.6312 
       0.920448          93.502         29.1687         29.1687 
       0.926574          92.763         28.7177         28.7177 
       0.932687         92.6293         28.2773         28.2773 
       0.938823         91.0904         27.8445         27.8445 
       0.944975         90.1786         27.4197         27.4197 
       0.951105         89.6963         27.0054         27.0054 
       0.957225         88.7546         26.6004         26.6004 
       0.963368         87.9622         26.2023         26.2023 
       0.969511         87.7909         25.8123         25.8123 
       0.975621         87.2046         25.4324         25.4324 
       0.981748         86.5329         25.0592         25.0592 
       0.987916         85.5609         24.6911         24.6911 
        0.99406         84.9406         24.3318         24.3318 
        1.00019          84.513         23.9803         23.9803 
        1.00632          83.729         23.6362         23.6362 
        1.01246         83.2393         23.2982         23.2982 
        1.01859         82.2031         22.9675         22.9675 
        1.02471         81.7953         22.6436         22.6436 
        1.03085         81.0471         22.3248         22.3248 
        1.03698         80.6813         22.0128         22.0128 
        1.04314         79.8871         21.7055         21.7055 
        1.04929         79.3932         21.4048         21.4048 
        1.05541         78.6725         21.1109         21.1109 
        1.06154         78.3799         20.8219         20.8219 
        1.06769         77.9876         20.5378         20.5378 
        1.07382         77.4391           20.26           20.26 
        1.07993         76.8189          19.988          19.988 
        1.08607         76.2135         19.7198         19.7198 
        1.09222         75.9543         19.4563         19.4563 
        1.09836         75.2458         19.1979         19.1979 
        1.10449         74.7704         18.9445         18.9445 
        1.11063         74.1369         18.6954         18.6954 
        1.11677         73.8154         18.4509         18.4509 
         1.1229         73.0302         18.2112         18.2112 
        1.12903         72.3797         17.9756         17.9756 
        1.13518         72.4817         17.7439         17.7439 
        1.14131         71.9153         17.5164         17.5164 
        1.14745         71.2255         17.2931         17.2931 
        1.15359          70.844         17.0736         17.0736 
        1.15973         70.4169         16.8578         16.8578 
        1.16584         69.8388         16.6467         16.6467 
        1.17197         69.4484          16.439          16.439 
        1.17811         69.0151         16.2341         16.2341 
        1.18424          68.552         16.0334         16.0334 
        1.19038         68.1589         15.8354         15.8354 
        1.19652         67.7676         15.6409         15.6409 
        1.20267         67.0836         15.4496         15.4496 
        1.20881         66.7795         15.2616         15.2616 
        1.21495         66.2916          15.077          15.077 
        1.22108         66.0374         14.8955         14.8955 
         1.2272         65.2892         14.7174         14.7174 
        1.23334         65.0709         14.5418         14.5418 
        1.23949         64.7061         14.3686         14.3686 
        1.24562         64.2236         14.1988         14.1988 
        1.25174         63.8828         14.0319         14.0319 
        1.25789         63.6271         13.8672         13.8672 
        1.26402         63.1844         13.7055         13.7055 
        1.27014         62.6429         13.5467         13.5467 
        1.27628         62.3589         13.3899         13.3899 
        1.28244         61.8856         13.2353         13.2353 
        1.28858         61.7147         13.0834         13.0834 
        1.29471           61.36         12.9342         12.9342 
        1.30084         60.9386         12.7874         12.7874 
        1.30697          60.522         12.6427         12.6427 
        1.31312         60.1748         12.5001         12.5001 
        1.31925         59.8334         12.3601         12.3601 
        1.32537         59.5681         12.2223         12.2223 
        1.33151         58.9811         12.0862         12.0862 
        1.33765         58.7471         11.9522         11.9522 
        1.34378         58.3877         11.8205         11.8205 
        1.34992         58.1347         11.6908         11.6908 
        1.35606         57.7887         11.5626         11.5626 
         1.3622         57.2411         11.4367         11.4367 
        1.36833         57.1112         11.3129         11.3129 
        1.37445         56.7355         11.1909         11.1909 
        1.38059         56.3186         11.0705         11.0705 
        1.38675         56.0172         10.9515         10.9515 
        1.39288         55.6867         10.8347         10.8347 
        1.39901         55.4835         10.7197         10.7197 
        1.40515          55.093          10.606          10.606 
         1.4113         54.8443         10.4941         10.4941 
        1.41742         54.7346         10.3842         10.3842 
        1.42355         54.1896         10.2757         10.2757 
         1.4297          54.003         10.1684         10.1684 
        1.43585         53.5824         10.0627         10.0627 
        1.44198         53.2689         9.95887         9.95887 
        1.44809         53.0714         9.85671         9.85671 
        1.45423         52.7622          9.7556          9.7556 
        1.46036         52.5519          9.6561          9.6561 
        1.46649         52.2331         9.55794         9.55794 
        1.47263         51.8417         9.46107         9.46107 
        1.47877         51.6365         9.36558         9.36558 
        1.48491         51.4433         9.27126         9.27126 
        1.49104         51.1023         9.17844         9.17844 
        1.49718         50.6687         9.08681         9.08681 
        1.50333          50.526         8.99628         8.99628 
        1.50947         50.2713         8.90717         8.90717 
         1.5156         49.9479         8.81939         8.81939 
        1.52172         49.7446         8.73279         8.73279 
        1.52787         49.6113         8.64718         8.64718 
          1.534         49.1832         8.56282         8.56282 
        1.54013         48.9115         8.47967         8.47967 
        1.54627         48.7645         8.39747         8.39747 
        1.55241         48.3057         8.31634         8.31634 
        1.55855         48.1116          8.2364          8.2364 
        1.56467          47.783         8.15772         8.15772 
         1.5708         47.7588         8.07985         8.07985 
        1.57695          47.522         8.00288         8.00288 
        1.58308         47.1177         7.92709         7.92709 
        1.58922         46.9908         7.85222         7.85222 
        1.59535          46.847         7.77835         7.77835 
         1.6015         46.3772         7.70532         7.70532 
        1.60764          46.215         7.63326         7.63326 
        1.61376         45.9516         7.56233         7.56233 
        1.61989         45.6953         7.49223         7.49223 
        1.62604         45.5335         7.42286         7.42286 
        1.63218         45.4177         7.35442         7.35442 
        1.63831         45.0382         7.28699         7.28699 
        1.64444         44.8254         7.22038         7.22038 
        1.65059         44.5972         7.15444         7.15444 
        1.65673         44.3921         7.08939         7.08939 
        1.66285         44.0607         7.02534         7.02534 
        1.66898         43.9404         6.96205         6.96205 
        1.67512         43.6116         6.89941         6.89941 
        1.68127         43.4008         6.83749         6.83749 
         1.6874         43.2515         6.77646         6.77646 
        1.69353         42.9966         6.71621         6.71621 
        1.69967         42.8056         6.65655         6.65655 
        1.70581         42.6836         6.59764         6.59764 
        1.71193         42.4812         6.53966         6.53966 
        1.71806         42.0571         6.48226         6.48226 
        1.72421         41.9615         6.42543         6.42543 
        1.73035         41.7734         6.36934         6.36934 
        1.73649         41.4255         6.31394         6.31394 
        1.74262          41.351         6.25924         6.25924 
        1.74876         41.1318         6.20514         6.20514 
        1.75489         40.9306          6.1518          6.1518 
        1.76101         40.7637          6.0991          6.0991 
        1.76715         40.4665         6.04694         6.04694 
        1.77329         40.2629         5.99533         5.99533 
        1.77943          40.056         5.94429         5.94429 
        1.78557         39.9219         5.89392         5.89392 
        1.79171         39.7138         5.84413         5.84413 
        1.79785         39.5102          5.7949          5.7949 
        1.80399         39.4149         5.74625         5.74625 
        1.81012         39.1166         5.69821         5.69821 
        1.81625         38.8533         5.65075         5.65075 
        1.82239          38.767         5.60375         5.60375 
        1.82853         38.4744         5.55731         5.55731 
        1.83466         38.3051         5.51144         5.51144 
        1.84078         38.0724         5.46613         5.46613 
        1.84692         37.8937         5.42126         5.42126 
        1.85306         37.7129         5.37683         5.37683 
         1.8592         37.4705         5.33297         5.33297 
        1.86533         37.3738         5.28963         5.28963 
        1.87147         37.2093         5.24671         5.24671 
        1.87761         37.0518         5.20425         5.20425 
