# k  (h/Mpc)    P(k)  (Mpc/h)^3    P_linear(k)  (Mpc/h)^3     P_NL(k)  ShotnoiseSubtracted = false
     0.00783031         9884.33         10014.8         10014.8 
       0.013688         11733.1         11652.3         11652.3 
       0.019231           11270         11235.4         11235.4 
      0.0249154         9779.83         9917.82         9917.82 
      0.0312784         8180.96         8215.45         8215.45 
      0.0375637         6821.08         6786.26         6786.26 
      0.0433917         5786.54         5828.54         5828.54 
      0.0492413         5186.46         5186.51         5186.51 
      0.0555754         4648.21         4726.39         4726.39 
      0.0619321         4400.36         4363.53         4363.53 
       0.067871         3965.07         4015.21         4015.21 
      0.0738098         3579.73         3620.84         3620.84 
      0.0800417          3125.1         3175.77         3175.77 
      0.0862327         2744.15         2752.21         2752.21 
      0.0921407         2443.37         2409.99         2409.99 
      0.0982031         2162.95         2144.48         2144.48 
       0.104506         2023.07         1957.06         1957.06 
       0.110769         1888.02         1835.93         1835.93 
       0.116806         1784.88         1748.91         1748.91 
       0.122832         1703.97         1662.82         1662.82 
       0.129052         1571.59         1556.82         1556.82 
       0.135211         1457.53         1432.24         1432.24 
       0.141259         1355.59         1301.15         1301.15 
       0.147318         1246.36          1176.2          1176.2 
       0.153489         1130.11         1068.37         1068.37 
       0.159709         1059.83         985.589         985.589 
       0.165845         1014.24         927.664         927.664 
       0.171974         961.047         886.226         886.226 
       0.178125         921.515         851.771         851.771 
       0.184229         884.225         816.455         816.455 
        0.19034         823.501         775.341         775.341 
       0.196428         796.925          728.41          728.41 
       0.202534         760.209         678.581         678.581 
       0.208729         711.569         629.966         629.966 
       0.214876         669.188         587.682         587.682 
       0.220989         642.859         553.469         553.469 
       0.227147         611.265         526.606         526.606 
        0.23329         587.455         505.359         505.359 
       0.239377         573.754         486.989         486.989 
       0.245482         536.001         468.735         468.735 
       0.251667         528.481         448.871         448.871 
       0.257832         507.148          427.42          427.42 
       0.263955         486.447         405.345         405.345 
       0.270079         465.366         383.854         383.854 
        0.27624         456.188         364.078         364.078 
       0.282372         437.382         346.981         346.981 
        0.28843         423.964         332.629         332.629 
       0.294538         403.513         320.224         320.224 
       0.300721         399.759         308.936         308.936 
        0.30691         380.992         298.094         298.094 
       0.313033         372.059         287.248         287.248 
       0.319153         358.426         276.128         276.128 
       0.325316         348.231         264.803         264.803 
        0.33145         336.103         253.781         253.781 
       0.337538          330.18         243.454         243.454 
       0.343633         318.679         234.007         234.007 
       0.349808         307.609         225.385         225.385 
       0.355968         303.377         217.646         217.646 
       0.362074         296.422         210.575         210.575 
       0.368217         287.884         203.814         203.814 
       0.374374         276.334           197.2           197.2 
       0.380519         272.878         190.642         190.642 
       0.386598         265.462         184.231         184.231 
       0.392688         261.933         177.953         177.953 
        0.39888          254.73         171.826         171.826 
       0.405048         248.073         166.084         166.084 
       0.411186           242.8         160.752         160.752 
       0.417313         237.905         155.789         155.789 
       0.423458          232.62         151.125         151.125 
       0.429607         227.609         146.683         146.683 
       0.435692         220.988         142.436         142.436 
       0.441815         218.853         138.278         138.278 
       0.447964         214.126         134.203         134.203 
       0.454126         206.002         130.223         130.223 
       0.460267         203.173         126.395         126.395 
       0.466387         200.689         122.745         122.745 
        0.47254         195.673         119.251         119.251 
       0.478662         194.701         115.942         115.942 
       0.484765         188.147         112.804         112.804 
       0.490885         185.438         109.796         109.796 
       0.497035         182.466         106.885         106.885 
       0.503198           177.9         104.058         104.058 
       0.509342         175.688         101.323         101.323 
       0.515458         173.113         98.6847         98.6847 
       0.521598         169.696         96.1214         96.1214 
       0.527764         167.233         93.6355         93.6355 
       0.533884         164.804         91.2581         91.2581 
           0.54         161.947         88.9744         88.9744 
       0.546137         160.531         86.7741         86.7741 
       0.552299          157.32         84.6487         84.6487 
       0.558452         155.252         82.6011         82.6011 
       0.564573         152.682         80.6287         80.6287 
       0.570708         149.566         78.7107         78.7107 
       0.576825         147.554         76.8565         76.8565 
       0.582926         145.019         75.0648         75.0648 
       0.589034         143.184         73.3278         73.3278 
       0.595184         141.282         71.6357         71.6357 
       0.601379         139.519         69.9869         69.9869 
       0.607522         136.619         68.4046         68.4046 
       0.613639         135.603          66.879          66.879 
       0.619772         132.762         65.3976         65.3976 
       0.625918         131.261         63.9591         63.9591 
       0.632068          129.63         62.5638         62.5638 
       0.638161          128.44         61.2228         61.2228 
         0.6443          126.62         59.9114         59.9114 
       0.650464         125.179         58.6332         58.6332 
       0.656582         123.318         57.4008         57.4008 
       0.662703          121.89         56.2032         56.2032 
       0.668861         119.899         55.0329         55.0329 
       0.675024         118.292         53.8952         53.8952 
       0.681124         117.506         52.8014         52.8014 
       0.687237         115.392         51.7363         51.7363 
       0.693381         113.684         50.6962         50.6962 
       0.699536         112.864         49.6831         49.6831 
       0.705665          112.48         48.7025         48.7025 
       0.711789         109.963         47.7494         47.7494 
       0.717957         109.557         46.8154         46.8154 
        0.72409         107.795         45.9116         45.9116 
       0.730186         106.096         45.0372         45.0372 
       0.736317         105.445         44.1807         44.1807 
       0.742472         104.552         43.3434         43.3434 
       0.748622         103.423         42.5286         42.5286 
        0.75476         102.343         41.7366         41.7366 
       0.760888          100.92         40.9659         40.9659 
       0.767043         100.349         40.2117         40.2117 
       0.773185          99.165         39.4781         39.4781 
       0.779291         97.6424         38.7671         38.7671 
       0.785407         97.0859         38.0726         38.0726 
       0.791564         96.1437         37.3908         37.3908 
       0.797719         94.4409         36.7261         36.7261 
       0.803834         93.9936         36.0818         36.0818 
       0.809972          92.737         35.4508         35.4508 
       0.816124         92.3424         34.8335         34.8335 
       0.822261          91.377         34.2326         34.2326 
       0.828378         90.5261         33.6478         33.6478 
       0.834502         90.0102         33.0761         33.0761 
       0.840667         88.6663         32.5141         32.5141 
       0.846816         87.6328         31.9668         31.9668 
       0.852925         87.0821         31.4356         31.4356 
       0.859047         85.9073         30.9154         30.9154 
       0.865192         85.3085         30.4052         30.4052 
       0.871341         84.5895         29.9063         29.9063 
       0.877463          83.504         29.4209         29.4209 
       0.883569         83.1159         28.9475         28.9475 
       0.889708         82.3821         28.4822         28.4822 
       0.895864          81.596         28.0259         28.0259 
       0.902008         80.9286         27.5806         27.5806 
       0.908149          80.371         27.1452         27.1452 
       0.914301         79.4866         26.7186         26.7186 
       0.920448         78.9094         26.3015         26.3015 
       0.926574         78.1904         25.8949         25.8949 
       0.932687         78.0566         25.4977         25.4977 
       0.938823         76.7336         25.1075         25.1075 
       0.944975         76.0096         24.7245         24.7245 
       0.951105         75.5221         24.3509         24.3509 
       0.957225         74.6893         23.9857         23.9857 
       0.963368         74.2127         23.6267         23.6267 
       0.969511         73.9454         23.2751         23.2751 
       0.975621         73.4626         22.9325         22.9325 
       0.981748          72.761         22.5959         22.5959 
       0.987916         71.9849          22.264          22.264 
        0.99406         71.5051           21.94           21.94 
        1.00019          70.974         21.6231         21.6231 
        1.00632         70.4287         21.3128         21.3128 
        1.01246         69.9523         21.0081         21.0081 
        1.01859         68.9875         20.7099         20.7099 
        1.02471         68.8198         20.4178         20.4178 
        1.03085          68.161         20.1304         20.1304 
        1.03698         67.7683         19.8491         19.8491 
        1.04314         67.1174         19.5719         19.5719 
        1.04929         66.6609         19.3008         19.3008 
        1.05541         66.0286         19.0358         19.0358 
        1.06154         65.8575         18.7752         18.7752 
        1.06769         65.3794         18.5191         18.5191 
        1.07382         65.0236         18.2685         18.2685 
        1.07993         64.5132         18.0232         18.0232 
        1.08607         63.9855         17.7814         17.7814 
        1.09222         63.6872         17.5438         17.5438 
        1.09836         63.1202         17.3108         17.3108 
        1.10449         62.7532         17.0824         17.0824 
        1.11063         62.1806         16.8578         16.8578 
        1.11677         61.8723         16.6373         16.6373 
         1.1229         61.2235         16.4211         16.4211 
        1.12903         60.5707         16.2086         16.2086 
        1.13518         60.7525         15.9997         15.9997 
        1.14131         60.3063         15.7946         15.7946 
        1.14745         59.6104         15.5932         15.5932 
        1.15359          59.363         15.3953         15.3953 
        1.15973         58.8816         15.2008         15.2008 
        1.16584         58.4812         15.0104         15.0104 
        1.17197         58.1251         14.8231         14.8231 
        1.17811         57.7971         14.6384         14.6384 
        1.18424         57.3394         14.4573         14.4573 
        1.19038         56.9512         14.2789         14.2789 
        1.19652         56.7058         14.1034         14.1034 
        1.20267         56.1235          13.931          13.931 
        1.20881         55.8894         13.7615         13.7615 
        1.21495          55.416          13.595          13.595 
        1.22108         55.2134         13.4313         13.4313 
         1.2272         54.5831         13.2707         13.2707 
        1.23334         54.3876         13.1124         13.1124 
        1.23949         54.1794         12.9563         12.9563 
        1.24562         53.6787         12.8031         12.8031 
        1.25174         53.4405         12.6526         12.6526 
        1.25789         53.2202         12.5041         12.5041 
        1.26402         52.8492         12.3583         12.3583 
        1.27014         52.2925         12.2151         12.2151 
        1.27628         52.0769         12.0737         12.0737 
        1.28244         51.6992         11.9344         11.9344 
        1.28858         51.5097         11.7974         11.7974 
        1.29471         51.2906         11.6628         11.6628 
        1.30084         50.9233         11.5305         11.5305 
        1.30697          50.557            11.4            11.4 
        1.31312         50.2354         11.2714         11.2714 
        1.31925          50.012         11.1451         11.1451 
        1.32537         49.7725         11.0209         11.0209 
        1.33151          49.261         10.8982         10.8982 
        1.33765         49.0836         10.7774         10.7774 
        1.34378         48.7611         10.6586         10.6586 
        1.34992          48.527         10.5416         10.5416 
        1.35606         48.2415         10.4261         10.4261 
         1.3622         47.8208         10.3125         10.3125 
        1.36833          47.637         10.2008         10.2008 
        1.37445         47.3837         10.0909         10.0909 
        1.38059         47.0399         9.98228         9.98228 
        1.38675         46.7744         9.87498         9.87498 
        1.39288         46.5143         9.76967         9.76967 
        1.39901         46.3133         9.66595         9.66595 
        1.40515         46.0088         9.56351         9.56351 
         1.4113         45.8167         9.46258         9.46258 
        1.41742         45.6661         9.36349         9.36349 
        1.42355         45.2153         9.26564         9.26564 
         1.4297         45.0604         9.16889         9.16889 
        1.43585         44.7773         9.07356         9.07356 
        1.44198          44.466         8.97995         8.97995 
        1.44809         44.3261         8.88783         8.88783 
        1.45423         44.0747         8.79666         8.79666 
        1.46036         43.8746         8.70694         8.70694 
        1.46649         43.6334         8.61843         8.61843 
        1.47263         43.2841         8.53108         8.53108 
        1.47877         43.0977         8.44498         8.44498 
        1.48491         43.0395         8.35993         8.35993 
        1.49104          42.659         8.27623         8.27623 
        1.49718         42.2389         8.19361         8.19361 
        1.50333          42.191         8.11198         8.11198 
        1.50947         42.0046         8.03163         8.03163 
         1.5156         41.6867         7.95248         7.95248 
        1.52172         41.5497         7.87439         7.87439 
        1.52787         41.4282          7.7972          7.7972 
          1.534         41.1036         7.72113         7.72113 
        1.54013         40.8742         7.64615         7.64615 
        1.54627         40.7341         7.57203         7.57203 
        1.55241         40.3414         7.49888         7.49888 
        1.55855         40.1911         7.42679         7.42679 
        1.56467         39.8543         7.35585         7.35585 
         1.5708         39.9063         7.28564         7.28564 
        1.57695         39.6453         7.21623         7.21623 
        1.58308         39.3519         7.14789         7.14789 
        1.58922         39.3111         7.08038         7.08038 
        1.59535         39.1425         7.01377         7.01377 
         1.6015         38.7601         6.94792         6.94792 
        1.60764         38.5655         6.88294         6.88294 
        1.61376          38.401         6.81898         6.81898 
        1.61989         38.1607         6.75577         6.75577 
        1.62604         38.0251         6.69323         6.69323 
        1.63218         37.9609         6.63151         6.63151 
        1.63831         37.6674         6.57071         6.57071 
        1.64444          37.459         6.51064         6.51064 
        1.65059         37.2506         6.45119         6.45119 
        1.65673         37.0594         6.39253         6.39253 
        1.66285         36.8285         6.33477         6.33477 
        1.66898           36.69          6.2777          6.2777 
        1.67512         36.4642         6.22123         6.22123 
        1.68127         36.2587         6.16539         6.16539 
         1.6874          36.136         6.11036         6.11036 
        1.69353         35.9241         6.05603         6.05603 
        1.69967         35.7689         6.00224         6.00224 
        1.70581         35.6899         5.94912         5.94912 
        1.71193         35.4875         5.89684         5.89684 
        1.71806          35.148         5.84508         5.84508 
        1.72421         35.0462         5.79384         5.79384 
        1.73035         34.8874         5.74326         5.74326 
        1.73649         34.5774          5.6933          5.6933 
        1.74262         34.5423         5.64398         5.64398 
        1.74876         34.4173          5.5952          5.5952 
        1.75489         34.2073          5.5471          5.5471 
        1.76101         34.0472         5.49958         5.49958 
        1.76715         33.8612         5.45255         5.45255 
        1.77329         33.6899         5.40601         5.40601 
        1.77943         33.5522         5.35999         5.35999 
        1.78557         33.3787         5.31457         5.31457 
        1.79171         33.1978         5.26967         5.26967 
        1.79785         33.0427         5.22528         5.22528 
        1.80399         32.9607         5.18141         5.18141 
        1.81012         32.7276          5.1381          5.1381 
        1.81625          32.525          5.0953          5.0953 
        1.82239         32.4409         5.05292         5.05292 
        1.82853         32.2052         5.01105         5.01105 
        1.83466         32.0801         4.96968         4.96968 
        1.84078         31.8435         4.92883         4.92883 
        1.84692         31.7331         4.88837         4.88837 
        1.85306         31.5561         4.84831         4.84831 
         1.8592         31.3842         4.80876         4.80876 
        1.86533         31.2841         4.76968         4.76968 
        1.87147         31.1933         4.73098         4.73098 
        1.87761         31.0411         4.69269         4.69269 
