# k  (h/Mpc)    P(k)  (Mpc/h)^3    P_linear(k)  (Mpc/h)^3     P_NL(k)  ShotnoiseSubtracted = false
     0.00783031         13633.9         13825.1         13825.1 
       0.013688           16223         16080.3         16080.3 
       0.019231         15555.9         15503.4         15503.4 
      0.0249154         13453.5         13684.7         13684.7 
      0.0312784         11264.7         11335.4         11335.4 
      0.0375637         9408.76         9363.29         9363.29 
      0.0433917         7962.45         8041.79         8041.79 
      0.0492413         7147.67         7155.91         7155.91 
      0.0555754         6383.32         6521.04         6521.04 
      0.0619321         6068.57         6020.38         6020.38 
       0.067871         5447.63         5539.77         5539.77 
      0.0738098         4922.03         4995.66         4995.66 
      0.0800417         4294.42         4381.58         4381.58 
      0.0862327         3781.54          3797.2          3797.2 
      0.0921407         3382.29         3325.03         3325.03 
      0.0982031         2995.48         2958.71         2958.71 
       0.104506         2812.76         2700.13         2700.13 
       0.110769         2623.05            2533            2533 
       0.116806         2482.59         2412.94         2412.94 
       0.122832         2366.35         2294.16         2294.16 
       0.129052         2177.92         2147.91         2147.91 
       0.135211         2024.48         1976.04         1976.04 
       0.141259         1892.85         1795.16         1795.16 
       0.147318         1747.41         1622.78         1622.78 
       0.153489         1586.01         1474.01         1474.01 
       0.159709          1492.7          1359.8          1359.8 
       0.165845         1432.69         1279.88         1279.88 
       0.171974          1360.2         1222.71         1222.71 
       0.178125          1301.2         1175.17         1175.17 
       0.184229         1246.33         1126.45         1126.45 
        0.19034         1164.12         1069.72         1069.72 
       0.196428         1129.48         1004.97         1004.97 
       0.202534         1078.76         936.222         936.222 
       0.208729         1014.46         869.149         869.149 
       0.214876         960.322         810.811         810.811 
       0.220989         923.616         763.609         763.609 
       0.227147         882.035         726.546         726.546 
        0.23329          847.58         697.232         697.232 
       0.239377         829.855         671.887         671.887 
       0.245482         774.775         646.703         646.703 
       0.251667         766.562         619.296         619.296 
       0.257832          734.51           589.7           589.7 
       0.263955         706.847         559.245         559.245 
       0.270079          677.67         529.594         529.594 
        0.27624         666.938         502.309         502.309 
       0.282372         639.221          478.72          478.72 
        0.28843         625.193         458.919         458.919 
       0.294538         593.209         441.804         441.804 
       0.300721         589.348         426.231         426.231 
        0.30691         562.485         411.272         411.272 
       0.313033         550.486         396.309         396.309 
       0.319153         534.249         380.967         380.967 
       0.325316         517.925         365.342         365.342 
        0.33145         502.067         350.136         350.136 
       0.337538         493.231         335.887         335.887 
       0.343633         477.771         322.853         322.853 
       0.349808         460.468         310.958         310.958 
       0.355968         456.123          300.28          300.28 
       0.362074         448.275         290.524         290.524 
       0.368217         435.143         281.196         281.196 
       0.374374          415.93         272.071         272.071 
       0.380519         413.658         263.024         263.024 
       0.386598         402.255         254.179         254.179 
       0.392688         398.965         245.518         245.518 
        0.39888         387.397         237.065         237.065 
       0.405048         378.526         229.142         229.142 
       0.411186         371.914         221.785         221.785 
       0.417313         364.455         214.938         214.938 
       0.423458         356.678         208.503         208.503 
       0.429607         350.556         202.374         202.374 
       0.435692         341.323         196.515         196.515 
       0.441815         337.928         190.779         190.779 
       0.447964         330.279         185.156         185.156 
       0.454126         321.691         179.666         179.666 
       0.460267         315.963         174.384         174.384 
       0.466387          312.22         169.349         169.349 
        0.47254         305.453         164.527         164.527 
       0.478662         304.507         159.962         159.962 
       0.484765         293.629         155.633         155.633 
       0.490885         290.427         151.483         151.483 
       0.497035         285.067         147.467         147.467 
       0.503198         280.117         143.567         143.567 
       0.509342         277.759         139.793         139.793 
       0.515458         274.086         136.153         136.153 
       0.521598         267.438         132.616         132.616 
       0.527764         263.447         129.186         129.186 
       0.533884         260.739         125.906         125.906 
           0.54         256.845         122.756         122.756 
       0.546137         255.234          119.72          119.72 
       0.552299         249.757         116.788         116.788 
       0.558452         248.122         113.963         113.963 
       0.564573         244.426         111.241         111.241 
       0.570708         239.248         108.595         108.595 
       0.576825         235.145         106.037         106.037 
       0.582926         232.713         103.565         103.565 
       0.589034         230.313         101.168         101.168 
       0.595184         227.861         98.8338         98.8338 
       0.601379         224.636         96.5591         96.5591 
       0.607522         221.056          94.376          94.376 
       0.613639          219.24         92.2712         92.2712 
       0.619772         214.596         90.2273         90.2273 
       0.625918         213.418         88.2427         88.2427 
       0.632068         209.855         86.3177         86.3177 
       0.638161         208.726         84.4675         84.4675 
         0.6443         205.322         82.6582         82.6582 
       0.650464          203.09         80.8946         80.8946 
       0.656582         201.003         79.1944         79.1944 
       0.662703         200.097         77.5421         77.5421 
       0.668861         196.477         75.9275         75.9275 
       0.675024         193.715         74.3578         74.3578 
       0.681124          192.55         72.8487         72.8487 
       0.687237          190.14         71.3793         71.3793 
       0.693381         187.065         69.9441         69.9441 
       0.699536         185.627         68.5465         68.5465 
       0.705665         183.951         67.1935         67.1935 
       0.711789          181.89         65.8786         65.8786 
       0.717957         181.027           64.59           64.59 
        0.72409         178.724         63.3431         63.3431 
       0.730186         176.342         62.1366         62.1366 
       0.736317         174.429          60.955          60.955 
       0.742472          173.26         59.7998         59.7998 
       0.748622         171.684         58.6756         58.6756 
        0.75476         169.979         57.5828         57.5828 
       0.760888         167.934         56.5196         56.5196 
       0.767043         167.605          55.479          55.479 
       0.773185         165.768         54.4669         54.4669 
       0.779291         162.528         53.4859         53.4859 
       0.785407         162.048         52.5277         52.5277 
       0.791564         160.453         51.5871         51.5871 
       0.797719         157.987           50.67           50.67 
       0.803834         157.137         49.7811         49.7811 
       0.809972         156.135         48.9105         48.9105 
       0.816124         155.425         48.0589         48.0589 
       0.822261         153.687         47.2299         47.2299 
       0.828378         152.128          46.423          46.423 
       0.834502         151.755         45.6343         45.6343 
       0.840667         149.367         44.8589         44.8589 
       0.846816         147.952         44.1038         44.1038 
       0.852925         147.378         43.3708         43.3708 
       0.859047         145.841         42.6531         42.6531 
       0.865192         144.141         41.9493         41.9493 
       0.871341         143.003          41.261          41.261 
       0.877463         141.731         40.5912         40.5912 
       0.883569         141.435         39.9381         39.9381 
       0.889708         139.853         39.2961         39.2961 
       0.895864         138.201         38.6665         38.6665 
       0.902008         137.449         38.0522         38.0522 
       0.908149         136.923         37.4515         37.4515 
       0.914301         135.072         36.8629         36.8629 
       0.920448         134.165         36.2875         36.2875 
       0.926574         133.219         35.7265         35.7265 
       0.932687         133.066         35.1785         35.1785 
       0.938823          131.11         34.6401         34.6401 
       0.944975         130.044         34.1117         34.1117 
       0.951105         129.334         33.5963         33.5963 
       0.957225          128.14         33.0924         33.0924 
       0.963368         126.411         32.5971         32.5971 
       0.969511         126.215          32.112          32.112 
       0.975621         125.189         31.6393         31.6393 
       0.981748         124.876          31.175          31.175 
       0.987916         123.457         30.7171         30.7171 
        0.99406         122.376         30.2701         30.2701 
        1.00019           122.2         29.8329         29.8329 
        1.00632         120.813         29.4047         29.4047 
        1.01246         120.189         28.9843         28.9843 
        1.01859           119.4         28.5729         28.5729 
        1.02471         118.021         28.1699         28.1699 
        1.03085         117.039         27.7733         27.7733 
        1.03698          116.58         27.3852         27.3852 
        1.04314          115.34         27.0029         27.0029 
        1.04929         114.876         26.6288         26.6288 
        1.05541         114.101         26.2632         26.2632 
        1.06154         113.365         25.9036         25.9036 
        1.06769         113.106         25.5502         25.5502 
        1.07382         111.952         25.2046         25.2046 
        1.07993         111.055         24.8662         24.8662 
        1.08607         110.355         24.5326         24.5326 
        1.09222          110.05         24.2047         24.2047 
        1.09836          109.04         23.8833         23.8833 
        1.10449         107.936         23.5681         23.5681 
        1.11063         107.184         23.2582         23.2582 
        1.11677         106.752          22.954          22.954 
         1.1229          105.91         22.6558         22.6558 
        1.12903         105.292         22.3626         22.3626 
        1.13518         104.934         22.0744         22.0744 
        1.14131         103.889         21.7914         21.7914 
        1.14745         103.459         21.5136         21.5136 
        1.15359         102.704         21.2405         21.2405 
        1.15973         102.211         20.9721         20.9721 
        1.16584         101.154         20.7095         20.7095 
        1.17197         100.656          20.451          20.451 
        1.17811         100.104         20.1962         20.1962 
        1.18424         99.6434         19.9464         19.9464 
        1.19038         99.2556         19.7002         19.7002 
        1.19652         98.4129         19.4581         19.4581 
        1.20267         97.7014         19.2202         19.2202 
        1.20881         97.0491         18.9863         18.9863 
        1.21495         96.4347         18.7567         18.7567 
        1.22108         95.9698         18.5308         18.5308 
         1.2272         95.0437         18.3093         18.3093 
        1.23334         94.6532         18.0908         18.0908 
        1.23949         94.0527         17.8754         17.8754 
        1.24562         93.4411         17.6641         17.6641 
        1.25174         92.8392         17.4565         17.4565 
        1.25789         92.4168         17.2516         17.2516 
        1.26402          91.487         17.0504         17.0504 
        1.27014         91.1332         16.8528         16.8528 
        1.27628         90.6986         16.6578         16.6578 
        1.28244         90.1861         16.4655         16.4655 
        1.28858         89.8829         16.2765         16.2765 
        1.29471         88.9705         16.0909         16.0909 
        1.30084         88.7014         15.9083         15.9083 
        1.30697         87.8945         15.7283         15.7283 
        1.31312         87.5244         15.5508         15.5508 
        1.31925         86.8539         15.3766         15.3766 
        1.32537         86.4483         15.2053         15.2053 
        1.33151         85.7053         15.0359         15.0359 
        1.33765          85.375         14.8692         14.8692 
        1.34378         84.9402         14.7054         14.7054 
        1.34992         84.6303          14.544          14.544 
        1.35606          84.033         14.3846         14.3846 
         1.3622         83.2329         14.2278         14.2278 
        1.36833         83.0022         14.0738         14.0738 
        1.37445         82.4948         13.9222         13.9222 
        1.38059          81.893         13.7723         13.7723 
        1.38675         81.4029         13.6242         13.6242 
        1.39288         81.1922          13.479          13.479 
        1.39901         80.6551         13.3359         13.3359 
        1.40515         80.0218         13.1945         13.1945 
         1.4113         79.6509         13.0553         13.0553 
        1.41742          79.355         12.9186         12.9186 
        1.42355         78.7624         12.7836         12.7836 
         1.4297         78.4553         12.6501         12.6501 
        1.43585         77.7883         12.5185         12.5185 
        1.44198         77.4126         12.3894         12.3894 
        1.44809         77.0274         12.2623         12.2623 
        1.45423         76.6516         12.1365         12.1365 
        1.46036         76.3048         12.0127         12.0127 
        1.46649         75.6843         11.8906         11.8906 
        1.47263         75.1863         11.7701         11.7701 
        1.47877         75.0741         11.6513         11.6513 
        1.48491         74.3628          11.534          11.534 
        1.49104         74.2178         11.4185         11.4185 
        1.49718         73.7059         11.3045         11.3045 
        1.50333         73.3181         11.1919         11.1919 
        1.50947         72.8907          11.081          11.081 
         1.5156         72.4895         10.9718         10.9718 
        1.52172         72.0043         10.8641         10.8641 
        1.52787         71.7579         10.7576         10.7576 
          1.534         71.2018         10.6526         10.6526 
        1.54013         70.8369         10.5492         10.5492 
        1.54627         70.6054         10.4469         10.4469 
        1.55241         70.0546          10.346          10.346 
        1.55855           69.78         10.2465         10.2465 
        1.56467         69.4736         10.1487         10.1487 
         1.5708         69.0067         10.0518         10.0518 
        1.57695         68.9473         9.95604         9.95604 
        1.58308         68.2568         9.86175         9.86175 
        1.58922          68.007         9.76861         9.76861 
        1.59535         67.7384          9.6767          9.6767 
         1.6015         67.1532         9.58586         9.58586 
        1.60764         66.9087         9.49621         9.49621 
        1.61376         66.6324         9.40796         9.40796 
        1.61989         66.1739         9.32076         9.32076 
        1.62604         65.9626         9.23446         9.23446 
        1.63218         65.6316         9.14931         9.14931 
        1.63831         64.8855         9.06543         9.06543 
        1.64444         64.7528         8.98256         8.98256 
        1.65059         64.4612         8.90053         8.90053 
        1.65673         63.9577         8.81961         8.81961 
        1.66285         63.6962         8.73991         8.73991 
        1.66898          63.489         8.66118         8.66118 
        1.67512         62.9463         8.58326         8.58326 
        1.68127         62.7434         8.50622         8.50622 
         1.6874         62.3633          8.4303          8.4303 
        1.69353         62.0111         8.35535         8.35535 
        1.69967         61.6924         8.28113         8.28113 
        1.70581         61.4749         8.20784         8.20784 
        1.71193         61.2226         8.13571         8.13571 
        1.71806          60.759          8.0643          8.0643 
        1.72421         60.4107          7.9936          7.9936 
        1.73035           60.17         7.92382         7.92382 
        1.73649         59.9108          7.8549          7.8549 
        1.74262         59.5311         7.78684         7.78684 
        1.74876           59.28         7.71955         7.71955 
        1.75489         58.8887         7.65319         7.65319 
        1.76101          58.719         7.58762         7.58762 
        1.76715         58.2463         7.52273         7.52273 
        1.77329         57.9988         7.45852         7.45852 
        1.77943         57.6397         7.39503         7.39503 
        1.78557         57.4909         7.33237         7.33237 
        1.79171         57.0768         7.27043         7.27043 
        1.79785         56.7311         7.20918         7.20918 
        1.80399          56.638         7.14865         7.14865 
        1.81012         56.3387          7.0889          7.0889 
        1.81625         55.9125         7.02985         7.02985 
        1.82239         55.6954         6.97138         6.97138 
        1.82853         55.3999         6.91361         6.91361 
        1.83466          55.154         6.85654         6.85654 
        1.84078         54.8074         6.80018         6.80018 
        1.84692         54.4896         6.74435         6.74435 
        1.85306         54.2405         6.68908         6.68908 
         1.8592         53.9782         6.63452         6.63452 
        1.86533         53.6811          6.5806          6.5806 
        1.87147         53.2836         6.52721         6.52721 
        1.87761          53.138         6.47438         6.47438 
