# k  (h/Mpc)    P(k)  (Mpc/h)^3    P_linear(k)  (Mpc/h)^3     P_NL(k)  ShotnoiseSubtracted = false
     0.00783031         14189.7         14390.3         14390.3 
       0.013688         16889.8           16737           16737 
       0.019231         16191.3         16136.2         16136.2 
      0.0249154         13996.5         14243.2         14243.2 
      0.0312784         11720.9         11797.9         11797.9 
      0.0375637         9792.13         9745.34         9745.34 
      0.0433917         8284.14         8369.91         8369.91 
      0.0492413         7437.99         7447.87         7447.87 
      0.0555754         6639.33          6787.1          6787.1 
      0.0619321         6315.49            6266            6266 
       0.067871         5666.38         5765.79         5765.79 
      0.0738098         5120.28         5199.47         5199.47 
      0.0800417         4467.07         4560.34         4560.34 
      0.0862327          3935.1         3952.12         3952.12 
      0.0921407         3521.88         3460.68         3460.68 
      0.0982031         3119.41         3079.41         3079.41 
       0.104506          2930.6         2810.29         2810.29 
       0.110769         2732.69         2636.34         2636.34 
       0.116806         2586.88         2511.38         2511.38 
       0.122832         2465.15         2387.75         2387.75 
       0.129052         2268.26         2235.54         2235.54 
       0.135211         2109.07         2056.65         2056.65 
       0.141259         1973.37          1868.4          1868.4 
       0.147318         1822.81         1688.98         1688.98 
       0.153489         1654.73         1534.15         1534.15 
       0.159709         1558.04         1415.27         1415.27 
       0.165845         1496.05         1332.09         1332.09 
       0.171974         1420.75         1272.59         1272.59 
       0.178125          1358.7         1223.11         1223.11 
       0.184229            1301          1172.4          1172.4 
        0.19034         1215.96         1113.36         1113.36 
       0.196428         1180.02         1045.97         1045.97 
       0.202534         1127.11         974.417         974.417 
       0.208729         1060.62         904.607         904.607 
       0.214876         1005.01         843.889         843.889 
       0.220989         966.706         794.761         794.761 
       0.227147         923.728         756.187         756.187 
        0.23329         887.635         725.677         725.677 
       0.239377         869.359         699.298         699.298 
       0.245482         811.776         673.086         673.086 
       0.251667         803.477         644.561         644.561 
       0.257832          769.71         613.758         613.758 
       0.263955         740.977          582.06          582.06 
       0.270079         710.625         551.199         551.199 
        0.27624         699.631         522.801         522.801 
       0.282372         670.521          498.25          498.25 
        0.28843         656.653         477.642         477.642 
       0.294538         622.893         459.828         459.828 
       0.300721         618.949         443.619         443.619 
        0.30691         590.966         428.051         428.051 
       0.313033         578.438         412.477         412.477 
       0.319153         561.936         396.509         396.509 
       0.325316         544.648         380.246         380.246 
        0.33145         528.294          364.42          364.42 
       0.337538         518.909          349.59          349.59 
       0.343633         502.979         336.024         336.024 
       0.349808         484.668         323.643         323.643 
       0.355968         480.309         312.531         312.531 
       0.362074         472.399         302.377         302.377 
       0.368217         458.465         292.668         292.668 
       0.374374          438.15         283.171         283.171 
       0.380519         436.135         273.754         273.754 
       0.386598         424.002         264.548         264.548 
       0.392688         420.786         255.534         255.534 
        0.39888         408.493         246.736         246.736 
       0.405048         399.404         238.491         238.491 
       0.411186         392.627         230.833         230.833 
       0.417313         384.703         223.707         223.707 
       0.423458          376.51         217.009         217.009 
       0.429607          370.29          210.63          210.63 
       0.435692         360.615         204.532         204.532 
       0.441815         357.017         198.562         198.562 
       0.447964         348.929          192.71          192.71 
       0.454126         340.462         186.995         186.995 
       0.460267         334.158         181.498         181.498 
       0.466387         330.195         176.257         176.257 
        0.47254         323.314         171.239         171.239 
       0.478662         322.247         166.488         166.488 
       0.484765         310.702         161.982         161.982 
       0.490885         307.453         157.663         157.663 
       0.497035         301.685         153.483         153.483 
       0.503198         296.774         149.424         149.424 
       0.509342         294.359         145.496         145.496 
       0.515458         290.565         141.707         141.707 
       0.521598         283.341         138.026         138.026 
       0.527764         279.094         134.457         134.457 
       0.533884          276.38         131.043         131.043 
           0.54         272.312         127.764         127.764 
       0.546137         270.651         124.604         124.604 
       0.552299         264.886         121.552         121.552 
       0.558452         263.269         118.612         118.612 
       0.564573           259.4          115.78          115.78 
       0.570708         253.999         113.025         113.025 
       0.576825          249.43         110.363         110.363 
       0.582926         247.114          107.79          107.79 
       0.589034         244.586         105.296         105.296 
       0.595184         242.078         102.866         102.866 
       0.601379          238.53         100.498         100.498 
       0.607522         234.892         98.2262         98.2262 
       0.613639         233.007         96.0355         96.0355 
       0.619772         228.069         93.9082         93.9082 
       0.625918         226.951         91.8427         91.8427 
       0.632068         223.068         89.8391         89.8391 
       0.638161         221.931         87.9135         87.9135 
         0.6443         218.291         86.0303         86.0303 
       0.650464         215.937         84.1948         84.1948 
       0.656582         213.781         82.4252         82.4252 
       0.662703         212.963         80.7055         80.7055 
       0.668861         209.133          79.025          79.025 
       0.675024          206.23         77.3913         77.3913 
       0.681124         204.915         75.8207         75.8207 
       0.687237          202.49         74.2913         74.2913 
       0.693381         199.223         72.7976         72.7976 
       0.699536         197.616          71.343          71.343 
       0.705665         195.763         69.9347         69.9347 
       0.711789         193.845         68.5662         68.5662 
       0.717957         192.812          67.225          67.225 
        0.72409          190.48         65.9272         65.9272 
       0.730186         187.977         64.6715         64.6715 
       0.736317         185.917         63.4417         63.4417 
       0.742472          184.66         62.2394         62.2394 
       0.748622         183.006         61.0694         61.0694 
        0.75476         181.157          59.932          59.932 
       0.760888         179.025         58.8254         58.8254 
       0.767043         178.751         57.7424         57.7424 
       0.773185         176.782          56.689          56.689 
       0.779291         173.347         55.6679         55.6679 
       0.785407         172.865         54.6706         54.6706 
       0.791564         171.103         53.6916         53.6916 
       0.797719         168.595         52.7371         52.7371 
       0.803834         167.627          51.812          51.812 
       0.809972         166.674         50.9059         50.9059 
       0.816124         165.906         50.0195         50.0195 
       0.822261         164.089         49.1566         49.1566 
       0.828378         162.397         48.3168         48.3168 
       0.834502         161.931          47.496          47.496 
       0.840667         159.501          46.689          46.689 
       0.846816          158.04          45.903          45.903 
       0.852925         157.415         45.1402         45.1402 
       0.859047         155.862         44.3932         44.3932 
       0.865192         153.946         43.6607         43.6607 
       0.871341         152.751         42.9442         42.9442 
       0.877463         151.482         42.2472         42.2472 
       0.883569         151.166         41.5674         41.5674 
       0.889708         149.414         40.8992         40.8992 
       0.895864         147.698          40.244          40.244 
       0.902008         146.893         39.6045         39.6045 
       0.908149         146.355         38.9794         38.9794 
       0.914301         144.312         38.3668         38.3668 
       0.920448         143.406         37.7679         37.7679 
       0.926574         142.366          37.184          37.184 
       0.932687         142.224         36.6137         36.6137 
       0.938823         140.194         36.0533         36.0533 
       0.944975         139.152         35.5033         35.5033 
       0.951105         138.353         34.9669         34.9669 
       0.957225         137.119         34.4424         34.4424 
       0.963368         135.207          33.927          33.927 
       0.969511          134.95          33.422          33.422 
       0.975621         133.794         32.9301         32.9301 
       0.981748         133.579         32.4468         32.4468 
       0.987916         132.084         31.9702         31.9702 
        0.99406           130.9          31.505          31.505 
        1.00019         130.727         31.0499         31.0499 
        1.00632          129.27         30.6043         30.6043 
        1.01246         128.564         30.1668         30.1668 
        1.01859          127.88         29.7385         29.7385 
        1.02471         126.293         29.3191         29.3191 
        1.03085         125.256         28.9064         28.9064 
        1.03698         124.725         28.5024         28.5024 
        1.04314         123.405         28.1045         28.1045 
        1.04929          122.95         27.7151         27.7151 
        1.05541         122.213         27.3346         27.3346 
        1.06154         121.329         26.9604         26.9604 
        1.06769         121.079         26.5926         26.5926 
        1.07382         119.819         26.2329         26.2329 
        1.07993         118.853         25.8806         25.8806 
        1.08607         118.181         25.5334         25.5334 
        1.09222         117.799         25.1922         25.1922 
        1.09836         116.742         24.8576         24.8576 
        1.10449         115.495         24.5296         24.5296 
        1.11063         114.689          24.207          24.207 
        1.11677         114.238         23.8904         23.8904 
         1.1229         113.379         23.5801         23.5801 
        1.12903         112.778         23.2749         23.2749 
        1.13518         112.289          22.975          22.975 
        1.14131         111.148         22.6804         22.6804 
        1.14745         110.793         22.3912         22.3912 
        1.15359         109.952          22.107          22.107 
        1.15973         109.383         21.8277         21.8277 
        1.16584         108.276         21.5544         21.5544 
        1.17197          107.76         21.2853         21.2853 
        1.17811         107.146         21.0201         21.0201 
        1.18424         106.687         20.7601         20.7601 
        1.19038         106.295         20.5038         20.5038 
        1.19652         105.363          20.252          20.252 
        1.20267         104.665         20.0043         20.0043 
        1.20881         103.924         19.7609         19.7609 
        1.21495          103.28         19.5219         19.5219 
        1.22108          102.75         19.2868         19.2868 
         1.2272         101.799         19.0562         19.0562 
        1.23334         101.384         18.8289         18.8289 
        1.23949         100.754         18.6047         18.6047 
        1.24562         100.092         18.3847         18.3847 
        1.25174         99.4494         18.1687         18.1687 
        1.25789         98.9607         17.9554         17.9554 
        1.26402         97.9342          17.746          17.746 
        1.27014         97.5434         17.5404         17.5404 
        1.27628         97.1221         17.3374         17.3374 
        1.28244         96.6463         17.1372         17.1372 
        1.28858         96.2303         16.9405         16.9405 
        1.29471         95.2321         16.7473         16.7473 
        1.30084         95.0175         16.5573         16.5573 
        1.30697         94.0807         16.3699         16.3699 
        1.31312         93.7053         16.1852         16.1852 
        1.31925         92.9918         16.0039         16.0039 
        1.32537         92.5686         15.8256         15.8256 
        1.33151         91.7668         15.6493         15.6493 
        1.33765         91.4015         15.4758         15.4758 
        1.34378         90.9467         15.3053         15.3053 
        1.34992         90.6387         15.1373         15.1373 
        1.35606         90.0239         14.9714         14.9714 
         1.3622         89.1568         14.8083         14.8083 
        1.36833          88.825          14.648          14.648 
        1.37445          88.337         14.4901         14.4901 
        1.38059         87.6924         14.3341         14.3341 
        1.38675         87.1683         14.1801         14.1801 
        1.39288         86.9781         14.0288         14.0288 
        1.39901          86.389         13.8799         13.8799 
        1.40515         85.6807         13.7328         13.7328 
         1.4113         85.3026         13.5879         13.5879 
        1.41742         84.9068         13.4456         13.4456 
        1.42355         84.3238         13.3051         13.3051 
         1.4297         83.9752         13.1661         13.1661 
        1.43585         83.2631         13.0293         13.0293 
        1.44198         82.8923         12.8948         12.8948 
        1.44809         82.4695         12.7626         12.7626 
        1.45423          82.075         12.6316         12.6316 
        1.46036         81.6729         12.5028         12.5028 
        1.46649         81.0094         12.3757         12.3757 
        1.47263         80.4641         12.2503         12.2503 
        1.47877         80.3275         12.1266         12.1266 
        1.48491         79.5659         12.0045         12.0045 
        1.49104         79.4304         11.8843         11.8843 
        1.49718         78.8842         11.7657         11.7657 
        1.50333         78.4681         11.6485         11.6485 
        1.50947         77.9988         11.5331         11.5331 
         1.5156         77.5619         11.4194         11.4194 
        1.52172         77.0482         11.3073         11.3073 
        1.52787         76.7313         11.1965         11.1965 
          1.534          76.177         11.0872         11.0872 
        1.54013         75.8093         10.9795         10.9795 
        1.54627         75.5264         10.8731         10.8731 
        1.55241         74.9516         10.7681         10.7681 
        1.55855         74.6259         10.6646         10.6646 
        1.56467         74.3434         10.5627         10.5627 
         1.5708         73.7739         10.4619         10.4619 
        1.57695         73.7362         10.3622         10.3622 
        1.58308         73.0453         10.2641         10.2641 
        1.58922         72.7701         10.1671         10.1671 
        1.59535         72.4262         10.0715         10.0715 
         1.6015         71.8491         9.97692         9.97692 
        1.60764         71.5414         9.88362         9.88362 
        1.61376         71.2993         9.79177         9.79177 
        1.61989         70.7739         9.70101         9.70101 
        1.62604         70.5389         9.61119         9.61119 
        1.63218         70.2104         9.52257         9.52257 
        1.63831         69.3991         9.43526         9.43526 
        1.64444         69.2401         9.34901         9.34901 
        1.65059         68.9252         9.26363         9.26363 
        1.65673         68.3505         9.17941         9.17941 
        1.66285         68.1192         9.09647         9.09647 
        1.66898         67.8979         9.01452         9.01452 
        1.67512         67.3031         8.93342         8.93342 
        1.68127         67.0861         8.85324         8.85324 
         1.6874         66.6371         8.77422         8.77422 
        1.69353         66.2631         8.69621         8.69621 
        1.69967         65.9678         8.61896         8.61896 
        1.70581         65.6914         8.54269         8.54269 
        1.71193         65.3926         8.46762         8.46762 
        1.71806         64.9659         8.39329         8.39329 
        1.72421         64.5349          8.3197          8.3197 
        1.73035         64.2889         8.24708         8.24708 
        1.73649         64.0258         8.17534         8.17534 
        1.74262          63.566         8.10451         8.10451 
        1.74876         63.3357         8.03447         8.03447 
        1.75489         62.8913          7.9654          7.9654 
        1.76101         62.6953         7.89717         7.89717 
        1.76715         62.2008         7.82963         7.82963 
        1.77329         61.9506          7.7628          7.7628 
        1.77943         61.5516         7.69672         7.69672 
        1.78557         61.4117         7.63151         7.63151 
        1.79171         60.9109         7.56703         7.56703 
        1.79785         60.5662         7.50329         7.50329 
        1.80399         60.4342         7.44029         7.44029 
        1.81012         60.1477          7.3781          7.3781 
        1.81625         59.7166         7.31664         7.31664 
        1.82239         59.4628         7.25579         7.25579 
        1.82853         59.1674         7.19565         7.19565 
        1.83466         58.8885         7.13626         7.13626 
        1.84078         58.5014         7.07759         7.07759 
        1.84692         58.2009         7.01949         7.01949 
        1.85306         57.9025         6.96197         6.96197 
         1.8592         57.6541         6.90518         6.90518 
        1.86533         57.2983         6.84906         6.84906 
        1.87147         56.8638         6.79349         6.79349 
        1.87761          56.714         6.73851         6.73851 
