# k  (h/Mpc)    P(k)  (Mpc/h)^3    P_linear(k)  (Mpc/h)^3     P_NL(k)  ShotnoiseSubtracted = false
     0.00783031         16354.3         16592.6         16592.6 
       0.013688           19489         19294.6         19294.6 
       0.019231         18666.2           18601           18601 
      0.0249154         16107.8         16418.3         16418.3 
      0.0312784         13494.8         13599.5         13599.5 
      0.0375637         11284.5         11233.3         11233.3 
      0.0433917         9534.88         9647.82         9647.82 
      0.0492413         8567.66         8584.98         8584.98 
      0.0555754         7633.54         7823.29         7823.29 
      0.0619321         7276.07         7222.62         7222.62 
       0.067871         6515.88         6646.03         6646.03 
      0.0738098          5890.6         5993.25         5993.25 
      0.0800417         5137.88         5256.54         5256.54 
      0.0862327         4532.68         4555.45         4555.45 
      0.0921407         4066.46         3988.99         3988.99 
      0.0982031         3603.37         3549.52         3549.52 
       0.104506         3391.34         3239.31         3239.31 
       0.110769         3161.31         3038.81         3038.81 
       0.116806         2995.09         2894.76         2894.76 
       0.122832         2851.35         2752.27         2752.27 
       0.129052         2621.28         2576.82         2576.82 
       0.135211         2439.81         2370.62         2370.62 
       0.141259         2289.05         2153.63         2153.63 
       0.147318         2119.19         1946.82         1946.82 
       0.153489         1925.09         1768.34         1768.34 
       0.159709         1815.22         1631.32         1631.32 
       0.165845         1745.99         1535.45         1535.45 
       0.171974         1659.82         1466.86         1466.86 
       0.178125         1585.53         1409.83         1409.83 
       0.184229         1516.25         1351.38         1351.38 
        0.19034          1421.2         1283.32         1283.32 
       0.196428         1379.82         1205.64         1205.64 
       0.202534         1318.09         1123.17         1123.17 
       0.208729         1243.33          1042.7          1042.7 
       0.214876         1182.73         972.714         972.714 
       0.220989         1137.98         916.086         916.086 
       0.227147         1089.74         871.623         871.623 
        0.23329         1047.15         836.456         836.456 
       0.239377         1026.89          806.05          806.05 
       0.245482         959.761         775.836         775.836 
       0.251667          951.12         742.958         742.958 
       0.257832         910.492         707.452         707.452 
       0.263955         877.368         670.915         670.915 
       0.270079         842.557         635.343         635.343 
        0.27624         830.361          602.61          602.61 
       0.282372         795.731         574.311         574.311 
        0.28843         782.986         550.557         550.557 
       0.294538         742.303         530.024         530.024 
       0.300721         737.785          511.34          511.34 
        0.30691         705.721         493.395         493.395 
       0.313033         690.928         475.444         475.444 
       0.319153         673.642         457.038         457.038 
       0.325316         652.437         438.293         438.293 
        0.33145         634.321         420.051         420.051 
       0.337538         622.464         402.957         402.957 
       0.343633         605.087          387.32          387.32 
       0.349808         582.756         373.049         373.049 
       0.355968         578.186          360.24          360.24 
       0.362074         570.177         348.536         348.536 
       0.368217         552.798         337.345         337.345 
       0.374374         528.536         326.398         326.398 
       0.380519         527.588         315.544         315.544 
       0.386598         512.282         304.933         304.933 
       0.392688         509.307         294.543         294.543 
        0.39888         494.111         284.401         284.401 
       0.405048         484.483         274.898         274.898 
       0.411186         477.028         266.071         266.071 
       0.417313          467.17         257.857         257.857 
       0.423458         457.248         250.137         250.137 
       0.429607          450.78         242.784         242.784 
       0.435692         439.217         235.755         235.755 
       0.441815         434.777         228.874         228.874 
       0.447964         425.084         222.128         222.128 
       0.454126         417.389         215.541         215.541 
       0.460267         408.476         209.204         209.204 
       0.466387         403.629         203.164         203.164 
        0.47254         396.762          197.38          197.38 
       0.478662         394.773         191.903         191.903 
       0.484765         380.694          186.71          186.71 
       0.490885         377.302         181.731         181.731 
       0.497035         369.855         176.913         176.913 
       0.503198         365.248         172.234         172.234 
       0.509342         362.459         167.707         167.707 
       0.515458         358.338          163.34          163.34 
       0.521598         348.718         159.097         159.097 
       0.527764          343.48         154.982         154.982 
       0.533884         340.705         151.047         151.047 
           0.54         335.975         147.267         147.267 
       0.546137         333.956         143.626         143.626 
       0.552299          327.33         140.108         140.108 
       0.558452         325.476         136.719         136.719 
       0.564573         320.995         133.454         133.454 
       0.570708          314.97         130.279         130.279 
       0.576825         308.284          127.21          127.21 
       0.582926         306.619         124.245         124.245 
       0.589034         303.493          121.37          121.37 
       0.595184         300.799         118.569         118.569 
       0.601379         295.758          115.84          115.84 
       0.607522         291.886         113.221         113.221 
       0.613639         289.891         110.696         110.696 
       0.619772         283.872         108.244         108.244 
       0.625918         282.764         105.863         105.863 
       0.632068         277.734         103.554         103.554 
       0.638161         276.462         101.334         101.334 
         0.6443         271.956         99.1633         99.1633 
       0.650464         269.252         97.0476         97.0476 
       0.656582          266.62         95.0079         95.0079 
       0.662703          266.06         93.0257         93.0257 
       0.668861         261.493         91.0886         91.0886 
       0.675024         258.202         89.2055         89.2055 
       0.681124         256.133         87.3951         87.3951 
       0.687237         253.545         85.6322         85.6322 
       0.693381         249.596         83.9105         83.9105 
       0.699536          247.16         82.2338         82.2338 
       0.705665         244.879         80.6107         80.6107 
       0.711789         243.454         79.0331         79.0331 
       0.717957         241.604         77.4873         77.4873 
        0.72409         239.262         75.9914         75.9914 
       0.730186          236.07          74.544          74.544 
       0.736317         233.677         73.1264         73.1264 
       0.742472         231.983         71.7406         71.7406 
       0.748622         229.972         70.3919         70.3919 
        0.75476         227.362         69.0809         69.0809 
       0.760888         224.909         67.8054         67.8054 
       0.767043         224.823          66.557          66.557 
       0.773185         222.312         65.3428         65.3428 
       0.779291         218.352         64.1659         64.1659 
       0.785407         217.802         63.0164         63.0164 
       0.791564         215.266         61.8879         61.8879 
       0.797719         212.767         60.7878         60.7878 
       0.803834         211.095         59.7214         59.7214 
       0.809972         210.367         58.6769         58.6769 
       0.816124         209.382         57.6552         57.6552 
       0.822261         207.226         56.6607         56.6607 
       0.828378         205.039         55.6926         55.6926 
       0.834502         203.923         54.7465         54.7465 
       0.840667         201.632         53.8163         53.8163 
       0.846816          200.05         52.9104         52.9104 
       0.852925         199.043         52.0311         52.0311 
       0.859047         197.351           51.17           51.17 
       0.865192         194.656         50.3257         50.3257 
       0.871341         193.222         49.4999         49.4999 
       0.877463         192.175         48.6965         48.6965 
       0.883569         191.446         47.9129         47.9129 
       0.889708         189.063         47.1427         47.1427 
       0.895864         187.414         46.3874         46.3874 
       0.902008         186.184         45.6504         45.6504 
       0.908149         185.315         44.9298         44.9298 
       0.914301         182.704         44.2237         44.2237 
       0.920448         181.821         43.5334         43.5334 
       0.926574         180.209         42.8603         42.8603 
       0.932687         180.164         42.2029         42.2029 
       0.938823         177.796          41.557          41.557 
       0.944975         176.945         40.9231         40.9231 
       0.951105         175.757         40.3048         40.3048 
       0.957225         174.426         39.7002         39.7002 
       0.963368         171.857         39.1061         39.1061 
       0.969511         171.322         38.5241         38.5241 
       0.975621         169.661         37.9571         37.9571 
       0.981748         169.573            37.4            37.4 
       0.987916         167.952         36.8506         36.8506 
        0.99406         166.309         36.3144         36.3144 
        1.00019         165.954         35.7899         35.7899 
        1.00632         164.379         35.2762         35.2762 
        1.01246         163.259         34.7719         34.7719 
        1.01859         163.005         34.2783         34.2783 
        1.02471         160.613         33.7948         33.7948 
        1.03085         159.423         33.3191         33.3191 
        1.03698         158.539         32.8535         32.8535 
        1.04314         157.032         32.3948         32.3948 
        1.04929         156.509          31.946          31.946 
        1.05541         155.965         31.5074         31.5074 
        1.06154         154.269          31.076          31.076 
        1.06769         154.015         30.6521         30.6521 
        1.07382         152.496         30.2375         30.2375 
        1.07993          151.23         29.8314         29.8314 
        1.08607         150.816         29.4312         29.4312 
        1.09222         149.896         29.0379         29.0379 
        1.09836         148.655         28.6523         28.6523 
        1.10449         147.004         28.2741         28.2741 
        1.11063         145.916         27.9024         27.9024 
        1.11677         145.408         27.5374         27.5374 
         1.1229         144.319         27.1797         27.1797 
        1.12903         143.735          26.828          26.828 
        1.13518         142.771         26.4822         26.4822 
        1.14131          141.33         26.1427         26.1427 
        1.14745         141.284         25.8094         25.8094 
        1.15359         140.031         25.4818         25.4818 
        1.15973         139.008         25.1598         25.1598 
        1.16584          137.97         24.8447         24.8447 
        1.17197         137.503         24.5347         24.5347 
        1.17811         136.263         24.2289         24.2289 
        1.18424         135.756         23.9293         23.9293 
        1.19038          135.36         23.6339         23.6339 
        1.19652         134.067         23.3435         23.3435 
        1.20267         133.509         23.0581         23.0581 
        1.20881         132.415         22.7775         22.7775 
        1.21495         131.585          22.502          22.502 
        1.22108         130.747         22.2311         22.2311 
         1.2272         129.727         21.9653         21.9653 
        1.23334         129.385         21.7032         21.7032 
        1.23949          128.38         21.4447         21.4447 
        1.24562         127.598         21.1912         21.1912 
        1.25174         126.845         20.9422         20.9422 
        1.25789         126.046         20.6964         20.6964 
        1.26402         124.695          20.455          20.455 
        1.27014         123.977          20.218          20.218 
        1.27628         123.658          19.984          19.984 
        1.28244         123.348         19.7533         19.7533 
        1.28858         122.301         19.5266         19.5266 
        1.29471         121.161         19.3039         19.3039 
        1.30084          120.98         19.0848         19.0848 
        1.30697         119.585         18.8689         18.8689 
        1.31312         119.099          18.656          18.656 
        1.31925         118.298          18.447          18.447 
        1.32537         117.951         18.2414         18.2414 
        1.33151          116.88         18.0383         18.0383 
        1.33765         116.167         17.8383         17.8383 
        1.34378         115.677         17.6418         17.6418 
        1.34992         115.257         17.4481         17.4481 
        1.35606         114.827         17.2569         17.2569 
         1.3622         113.577         17.0688         17.0688 
        1.36833         112.815         16.8841         16.8841 
        1.37445         112.387         16.7021         16.7021 
        1.38059         111.566         16.5223         16.5223 
        1.38675         110.992         16.3447         16.3447 
        1.39288         110.607         16.1704         16.1704 
        1.39901         110.093         15.9987         15.9987 
        1.40515         108.964         15.8292         15.8292 
         1.4113         108.582         15.6621         15.6621 
        1.41742         107.743         15.4981         15.4981 
        1.42355         107.228         15.3362         15.3362 
         1.4297         106.677          15.176          15.176 
        1.43585          105.83         15.0182         15.0182 
        1.44198         105.426         14.8633         14.8633 
        1.44809         104.921         14.7108         14.7108 
        1.45423         104.437         14.5599         14.5599 
        1.46036         103.628         14.4114         14.4114 
        1.46649         102.847         14.2649         14.2649 
        1.47263         102.223         14.1204         14.1204 
        1.47877         101.802         13.9778         13.9778 
        1.48491         100.907         13.8371         13.8371 
        1.49104         100.779         13.6985         13.6985 
        1.49718         100.019         13.5618         13.5618 
        1.50333         99.4787         13.4267         13.4267 
        1.50947          98.928         13.2937         13.2937 
         1.5156         98.3698         13.1627         13.1627 
        1.52172         97.7356         13.0334         13.0334 
        1.52787         97.1586         12.9056         12.9056 
          1.534          96.704         12.7797         12.7797 
        1.54013         96.1918         12.6556         12.6556 
        1.54627         95.6719          12.533          12.533 
        1.55241         94.9959         12.4119         12.4119 
        1.55855         94.4312         12.2926         12.2926 
        1.56467         94.1078         12.1751         12.1751 
         1.5708         93.2841         12.0589         12.0589 
        1.57695           93.13          11.944          11.944 
        1.58308          92.583         11.8309         11.8309 
        1.58922         92.1705         11.7192         11.7192 
        1.59535         91.5208         11.6089         11.6089 
         1.6015         91.1232         11.4999         11.4999 
        1.60764         90.4979         11.3924         11.3924 
        1.61376         90.1598         11.2865         11.2865 
        1.61989          89.515         11.1819         11.1819 
        1.62604         89.0359         11.0784         11.0784 
        1.63218         88.8606         10.9762         10.9762 
        1.63831         87.9624         10.8756         10.8756 
        1.64444         87.5791         10.7762         10.7762 
        1.65059         87.0757         10.6778         10.6778 
        1.65673         86.4453         10.5807         10.5807 
        1.66285         86.1745         10.4851         10.4851 
        1.66898         85.8198         10.3906         10.3906 
        1.67512         85.1086         10.2972         10.2972 
        1.68127         84.7846         10.2047         10.2047 
         1.6874         84.1167         10.1136         10.1136 
        1.69353         83.7628         10.0237         10.0237 
        1.69967         83.5163         9.93469         9.93469 
        1.70581         82.8793         9.84677         9.84677 
        1.71193         82.4403         9.76024         9.76024 
        1.71806         82.0929         9.67457         9.67457 
        1.72421         81.4538         9.58975         9.58975 
        1.73035         81.2135         9.50604         9.50604 
        1.73649         80.8164         9.42335         9.42335 
        1.74262         80.1598         9.34171         9.34171 
        1.74876         79.8788         9.26098         9.26098 
        1.75489         79.3267         9.18136         9.18136 
        1.76101         78.8667         9.10271         9.10271 
        1.76715         78.3839         9.02486         9.02486 
        1.77329         78.1604         8.94783         8.94783 
        1.77943         77.4902         8.87166         8.87166 
        1.78557         77.3739         8.79649         8.79649 
        1.79171         76.5856         8.72218         8.72218 
        1.79785         76.2631          8.6487          8.6487 
        1.80399         75.8946         8.57609         8.57609 
        1.81012         75.5666          8.5044          8.5044 
        1.81625         75.1812         8.43356         8.43356 
        1.82239         74.7525         8.36342         8.36342 
        1.82853         74.3816         8.29411         8.29411 
        1.83466         73.9424         8.22565         8.22565 
        1.84078         73.5344         8.15803         8.15803 
        1.84692         73.1926         8.09106         8.09106 
        1.85306         72.7668         8.02475         8.02475 
         1.8592          72.501         7.95929         7.95929 
        1.86533         71.9703          7.8946          7.8946 
        1.87147         71.4929         7.83055         7.83055 
        1.87761         71.1907         7.76718         7.76718 
