# k  (h/Mpc)    Pcb(k)  (Mpc/h)^3    Pcb_linear(k) (Mpc/h)^3    Pcb_NL(k) (Mpc/h)^3   ShotnoiseSubtracted = false
     0.00783031         295.645         298.519         298.519 
       0.013688         346.661         347.845         347.845 
       0.019231         335.404         335.561         335.561 
      0.0249154         295.456         296.281         296.281 
      0.0312784         245.711         245.461         245.461 
      0.0375637          203.38         202.777         202.777 
      0.0433917         174.369         174.168         174.168 
      0.0492413          155.24         154.989         154.989 
      0.0555754         141.062         141.243         141.243 
      0.0619321         130.674         130.402         130.402 
       0.067871         119.805         119.994         119.994 
      0.0738098         108.005          108.21          108.21 
      0.0800417         94.6782         94.9096         94.9096 
      0.0862327         82.2343         82.2521         82.2521 
      0.0921407          72.115         72.0248         72.0248 
      0.0982031         64.0822         64.0902         64.0902 
       0.104506         58.6864         58.4893         58.4893 
       0.110769         54.9706         54.8693         54.8693 
       0.116806         52.1903         52.2686         52.2686 
       0.122832         49.7096         49.6958         49.6958 
       0.129052          46.421          46.528          46.528 
       0.135211         42.7007         42.8049         42.8049 
       0.141259         38.9051          38.887          38.887 
       0.147318         35.2626         35.1528         35.1528 
       0.153489         31.9962         31.9303         31.9303 
       0.159709         29.5217         29.4562         29.4562 
       0.165845         27.8855          27.725          27.725 
       0.171974         26.5009         26.4865         26.4865 
       0.178125         25.4867         25.4568         25.4568 
       0.184229         24.4579         24.4014         24.4014 
        0.19034         23.1211         23.1726         23.1726 
       0.196428         21.7923           21.77           21.77 
       0.202534         20.4058         20.2808         20.2808 
       0.208729         18.8981         18.8278         18.8278 
       0.214876         17.5898         17.5641         17.5641 
       0.220989         16.6545         16.5416         16.5416 
       0.227147         15.7668         15.7388         15.7388 
        0.23329         15.1279         15.1037         15.1037 
       0.239377         14.5848         14.5547         14.5547 
       0.245482         14.0047         14.0092         14.0092 
       0.251667         13.4648         13.4155         13.4155 
       0.257832         12.8052         12.7744         12.7744 
       0.263955         12.1597         12.1146         12.1146 
       0.270079         11.5294         11.4723         11.4723 
        0.27624         10.9775         10.8813         10.8813 
       0.282372         10.4658         10.3703         10.3703 
        0.28843         10.0033         9.94135         9.94135 
       0.294538         9.62719         9.57059         9.57059 
       0.300721          9.3198         9.23322         9.23322 
        0.30691         8.96057         8.90918         8.90918 
       0.313033         8.63619         8.58507         8.58507 
       0.319153         8.25325         8.25271         8.25271 
       0.325316           7.992         7.91421         7.91421 
        0.33145         7.65048         7.58483         7.58483 
       0.337538         7.34217         7.27617         7.27617 
       0.343633         7.04302          6.9938          6.9938 
       0.349808         6.80021         6.73616         6.73616 
       0.355968         6.57358         6.50483         6.50483 
       0.362074         6.35053         6.29349         6.29349 
       0.368217          6.1475         6.09144         6.09144 
       0.374374         5.93072         5.89372         5.89372 
       0.380519           5.753         5.69777         5.69777 
       0.386598         5.56813         5.50616         5.50616 
       0.392688         5.39396         5.31854         5.31854 
        0.39888         5.19941         5.13544         5.13544 
       0.405048         5.03209          4.9638          4.9638 
       0.411186         4.87492         4.80443         4.80443 
       0.417313         4.71511         4.65611         4.65611 
       0.423458         4.58403         4.51672         4.51672 
       0.429607         4.43825         4.38393         4.38393 
       0.435692         4.31105         4.25702         4.25702 
       0.441815         4.18752         4.13277         4.13277 
       0.447964         4.08106         4.01095         4.01095 
       0.454126         3.94366         3.89202         3.89202 
       0.460267         3.83109          3.7776          3.7776 
       0.466387         3.71323         3.66853         3.66853 
        0.47254         3.61495         3.56408         3.56408 
       0.478662         3.52214          3.4652          3.4652 
       0.484765         3.41824         3.37141         3.37141 
       0.490885         3.33218         3.28151         3.28151 
       0.497035         3.26057         3.19451         3.19451 
       0.503198         3.16624         3.11003         3.11003 
       0.509342         3.08946         3.02828         3.02828 
       0.515458         3.00184         2.94942         2.94942 
       0.521598         2.92686         2.87281         2.87281 
       0.527764          2.8447         2.79851         2.79851 
       0.533884         2.78699         2.72746         2.72746 
           0.54         2.71416         2.65921         2.65921 
       0.546137         2.65065         2.59345         2.59345 
       0.552299         2.58608         2.52992         2.52992 
       0.558452         2.51605         2.46873         2.46873 
       0.564573         2.46381         2.40977         2.40977 
       0.570708         2.40522         2.35245         2.35245 
       0.576825         2.34499         2.29703         2.29703 
       0.582926         2.29769         2.24348         2.24348 
       0.589034         2.23119         2.19157         2.19157 
       0.595184         2.18463           2.141           2.141 
       0.601379         2.13472         2.09172         2.09172 
       0.607522         2.09376         2.04443         2.04443 
       0.613639         2.05334         1.99883         1.99883 
       0.619772         1.99832         1.95456         1.95456 
       0.625918         1.95995         1.91157         1.91157 
       0.632068          1.9226         1.86987         1.86987 
       0.638161         1.87599         1.82979         1.82979 
         0.6443         1.83644         1.79059         1.79059 
       0.650464          1.7924         1.75239         1.75239 
       0.656582         1.76186         1.71556         1.71556 
       0.662703         1.72543         1.67976         1.67976 
       0.668861         1.69529         1.64479         1.64479 
       0.675024         1.65612         1.61078         1.61078 
       0.681124         1.61961         1.57809         1.57809 
       0.687237         1.59202         1.54626         1.54626 
       0.693381         1.56106         1.51517         1.51517 
       0.699536         1.52169          1.4849          1.4849 
       0.705665         1.49411         1.45559         1.45559 
       0.711789         1.46904          1.4271          1.4271 
       0.717957         1.43706         1.39919         1.39919 
        0.72409         1.41057         1.37218         1.37218 
       0.730186         1.38357         1.34604         1.34604 
       0.736317          1.3648         1.32044         1.32044 
       0.742472         1.33781         1.29542         1.29542 
       0.748622         1.31054         1.27107         1.27107 
        0.75476         1.28292          1.2474          1.2474 
       0.760888         1.25965         1.22436         1.22436 
       0.767043         1.24413         1.20182         1.20182 
       0.773185         1.21647          1.1799          1.1799 
       0.779291         1.19652         1.15864         1.15864 
       0.785407         1.17504         1.13789         1.13789 
       0.791564         1.15587         1.11751         1.11751 
       0.797719         1.13726         1.09765         1.09765 
       0.803834         1.11861         1.07839         1.07839 
       0.809972         1.09794         1.05953         1.05953 
       0.816124         1.07704         1.04108         1.04108 
       0.822261          1.0568         1.02312         1.02312 
       0.828378          1.0419         1.00564         1.00564 
       0.834502         1.02713        0.988558        0.988558 
       0.840667         1.00515        0.971761        0.971761 
       0.846816        0.989074        0.955403        0.955403 
       0.852925        0.977037        0.939526        0.939526 
       0.859047        0.960461        0.923978        0.923978 
       0.865192        0.942867        0.908732        0.908732 
       0.871341        0.928229        0.893821        0.893821 
       0.877463         0.91621        0.879313        0.879313 
       0.883569         0.89893        0.865165        0.865165 
       0.889708        0.885129        0.851256        0.851256 
       0.895864          0.8706        0.837619        0.837619 
       0.902008        0.856415         0.82431         0.82431 
       0.908149        0.843566        0.811298        0.811298 
       0.914301        0.827061        0.798548        0.798548 
       0.920448        0.815895        0.786084        0.786084 
       0.926574        0.803166         0.77393         0.77393 
       0.932687        0.790666        0.762059        0.762059 
       0.938823        0.782007        0.750396        0.750396 
       0.944975        0.769813         0.73895         0.73895 
       0.951105        0.758659        0.727784        0.727784 
       0.957225        0.749773        0.716868        0.716868 
       0.963368        0.737458         0.70614         0.70614 
       0.969511        0.725077         0.69563         0.69563 
       0.975621        0.713701        0.685392        0.685392 
       0.981748        0.706489        0.675333        0.675333 
       0.987916        0.694872        0.665413        0.665413 
        0.99406        0.684002         0.65573         0.65573 
        1.00019        0.676442        0.646259        0.646259 
        1.00632        0.664258        0.636984        0.636984 
        1.01246         0.65521        0.627877        0.627877 
        1.01859        0.647372        0.618964        0.618964 
        1.02471        0.637661        0.610234        0.610234 
        1.03085        0.630805        0.601643        0.601643 
        1.03698        0.620566        0.593236        0.593236 
        1.04314        0.612709        0.584954        0.584954 
        1.04929        0.603525        0.576849        0.576849 
        1.05541        0.596768         0.56893         0.56893 
        1.06154        0.587428        0.561141        0.561141 
        1.06769        0.579294        0.553486        0.553486 
        1.07382        0.572035        0.545999        0.545999 
        1.07993        0.563286        0.538667        0.538667 
        1.08607        0.558541         0.53144         0.53144 
        1.09222         0.54958        0.524339        0.524339 
        1.09836        0.544556        0.517375        0.517375 
        1.10449        0.537392        0.510547        0.510547 
        1.11063        0.528269        0.503834        0.503834 
        1.11677        0.521076        0.497245        0.497245 
         1.1229        0.515284        0.490785        0.490785 
        1.12903        0.508283        0.484434        0.484434 
        1.13518        0.502947         0.47819         0.47819 
        1.14131        0.495653         0.47206         0.47206 
        1.14745        0.487065        0.466041        0.466041 
        1.15359        0.482969        0.460126        0.460126 
        1.15973        0.475371        0.454311        0.454311 
        1.16584        0.472391        0.448622        0.448622 
        1.17197        0.465558        0.443023        0.443023 
        1.17811        0.460752        0.437503        0.437503 
        1.18424        0.455981        0.432092        0.432092 
        1.19038        0.448816        0.426758        0.426758 
        1.19652        0.442623        0.421515        0.421515 
        1.20267        0.439194        0.416361        0.416361 
        1.20881        0.432773        0.411294        0.411294 
        1.21495         0.42896        0.406319        0.406319 
        1.22108        0.423311        0.401427        0.401427 
         1.2272        0.419117        0.396627        0.396627 
        1.23334        0.413246        0.391895        0.391895 
        1.23949        0.408709        0.387229        0.387229 
        1.24562        0.404115        0.382651        0.382651 
        1.25174        0.399834        0.378154        0.378154 
        1.25789        0.395591        0.373716        0.373716 
        1.26402        0.389578        0.369356        0.369356 
        1.27014        0.385474        0.365077        0.365077 
        1.27628        0.382359        0.360852        0.360852 
        1.28244        0.376195        0.356687        0.356687 
        1.28858        0.372748        0.352592        0.352592 
        1.29471        0.369526        0.348571        0.348571 
        1.30084        0.364414        0.344616        0.344616 
        1.30697        0.360336        0.340717        0.340717 
        1.31312        0.355168        0.336872        0.336872 
        1.31925        0.352156        0.333098        0.333098 
        1.32537        0.348839        0.329386        0.329386 
        1.33151        0.345662        0.325718        0.325718 
        1.33765        0.341575        0.322107        0.322107 
        1.34378        0.336883        0.318559        0.318559 
        1.34992        0.333939        0.315061        0.315061 
        1.35606        0.330172        0.311608        0.311608 
         1.3622        0.326793        0.308213        0.308213 
        1.36833        0.323081        0.304877        0.304877 
        1.37445        0.318752        0.301591        0.301591 
        1.38059        0.315779        0.298344        0.298344 
        1.38675        0.314215        0.295137        0.295137 
        1.39288        0.309956         0.29199         0.29199 
        1.39901        0.306765         0.28889         0.28889 
        1.40515        0.303879        0.285828        0.285828 
         1.4113        0.299935        0.282812        0.282812 
        1.41742        0.297054         0.27985         0.27985 
        1.42355        0.295095        0.276926        0.276926 
         1.4297        0.290974        0.274034        0.274034 
        1.43585        0.288293        0.271185        0.271185 
        1.44198        0.286405        0.268387        0.268387 
        1.44809        0.282586        0.265634        0.265634 
        1.45423        0.279974        0.262909        0.262909 
        1.46036         0.27705        0.260228        0.260228 
        1.46649        0.274731        0.257583        0.257583 
        1.47263        0.271608        0.254972        0.254972 
        1.47877        0.268512        0.252399        0.252399 
        1.48491         0.26625        0.249857        0.249857 
        1.49104        0.262949        0.247355        0.247355 
        1.49718        0.260711        0.244886        0.244886 
        1.50333        0.258533        0.242446        0.242446 
        1.50947        0.255874        0.240045        0.240045 
         1.5156         0.25316        0.237679        0.237679 
        1.52172        0.250914        0.235345        0.235345 
        1.52787        0.248372        0.233038        0.233038 
          1.534        0.245953        0.230764        0.230764 
        1.54013        0.243301        0.228524        0.228524 
        1.54627        0.241504        0.226308        0.226308 
        1.55241        0.238803        0.224122        0.224122 
        1.55855        0.236379        0.221968        0.221968 
        1.56467        0.235274        0.219847        0.219847 
         1.5708        0.232376        0.217749        0.217749 
        1.57695        0.230419        0.215674        0.215674 
        1.58308        0.227987        0.213632        0.213632 
        1.58922        0.226102        0.211614        0.211614 
        1.59535        0.223819        0.209623        0.209623 
         1.6015        0.221731        0.207655        0.207655 
        1.60764        0.219921        0.205713        0.205713 
        1.61376        0.217298        0.203802        0.203802 
        1.61989        0.215803        0.201913        0.201913 
        1.62604        0.213928        0.200043        0.200043 
        1.63218        0.212089        0.198199        0.198199 
        1.63831        0.210313        0.196381        0.196381 
        1.64444        0.208154        0.194586        0.194586 
        1.65059        0.206304        0.192809        0.192809 
        1.65673        0.204559        0.191056        0.191056 
        1.66285        0.202952         0.18933         0.18933 
        1.66898        0.201259        0.187624        0.187624 
        1.67512        0.198894        0.185936        0.185936 
        1.68127        0.197079        0.184268        0.184268 
         1.6874        0.196008        0.182623        0.182623 
        1.69353        0.193783        0.180999        0.180999 
        1.69967        0.192482        0.179391        0.179391 
        1.70581        0.190344        0.177804        0.177804 
        1.71193        0.188964        0.176241        0.176241 
        1.71806        0.187096        0.174694        0.174694 
        1.72421        0.185855        0.173163        0.173163 
        1.73035        0.183932        0.171651        0.171651 
        1.73649        0.182784        0.170158        0.170158 
        1.74262        0.181033        0.168684        0.168684 
        1.74876        0.179363        0.167226        0.167226 
        1.75489        0.178067        0.165789        0.165789 
        1.76101        0.176249        0.164368        0.164368 
        1.76715        0.174862        0.162963        0.162963 
        1.77329        0.173292        0.161572        0.161572 
        1.77943        0.171729        0.160196        0.160196 
        1.78557        0.170727        0.158839        0.158839 
        1.79171         0.16929        0.157497        0.157497 
        1.79785        0.167789         0.15617         0.15617 
        1.80399        0.166404        0.154859        0.154859 
        1.81012        0.165105        0.153565        0.153565 
        1.81625        0.163718        0.152285        0.152285 
        1.82239         0.16252        0.151019        0.151019 
        1.82853        0.160791        0.149767        0.149767 
        1.83466        0.159671        0.148531        0.148531 
        1.84078        0.158318         0.14731         0.14731 
        1.84692        0.156983        0.146101        0.146101 
        1.85306        0.156169        0.144904        0.144904 
         1.8592        0.154534        0.143722        0.143722 
        1.86533        0.153587        0.142553        0.142553 
        1.87147        0.152196        0.141397        0.141397 
