# k  (h/Mpc)    P(k)  (Mpc/h)^3    P_linear(k)  (Mpc/h)^3     P_NL(k)  ShotnoiseSubtracted = false
     0.00783031         12036.8         12201.5         12201.5 
       0.013688         14308.8         14193.9         14193.9 
       0.019231         13730.1         13685.2         13685.2 
      0.0249154         11890.9           12080           12080 
      0.0312784         9952.62         10006.3         10006.3 
      0.0375637         8306.82         8265.52         8265.52 
      0.0433917         7036.86         7098.99         7098.99 
      0.0492413         6312.86         6316.99         6316.99 
      0.0555754         5645.99         5756.56         5756.56 
      0.0619321          5358.5          5314.6          5314.6 
       0.067871          4817.6         4890.35         4890.35 
      0.0738098         4351.34         4410.02         4410.02 
      0.0800417         3797.35         3867.94         3867.94 
      0.0862327         3339.96         3352.06         3352.06 
      0.0921407         2981.76         2935.24         2935.24 
      0.0982031          2640.1         2611.87         2611.87 
       0.104506         2475.24          2383.6          2383.6 
       0.110769         2308.96         2236.07         2236.07 
       0.116806         2184.14         2130.08         2130.08 
       0.122832         2083.33         2025.22         2025.22 
       0.129052            1919         1896.12         1896.12 
       0.135211         1782.18          1744.4          1744.4 
       0.141259         1662.71         1584.73         1584.73 
       0.147318         1532.34         1432.55         1432.55 
       0.153489         1390.17         1301.22         1301.22 
       0.159709         1306.59         1200.39         1200.39 
       0.165845          1252.5         1129.84         1129.84 
       0.171974         1188.15         1079.37         1079.37 
       0.178125         1137.72         1037.41         1037.41 
       0.184229         1090.62         994.398         994.398 
        0.19034         1017.11         944.323         944.323 
       0.196428         986.031         887.163         887.163 
       0.202534          941.42         826.474         826.474 
       0.208729           883.6         767.263         767.263 
       0.214876         834.081         715.764         715.764 
       0.220989         801.878         674.095         674.095 
       0.227147         764.428         641.377         641.377 
        0.23329         734.603           615.5           615.5 
       0.239377         718.529         593.126         593.126 
       0.245482         670.752         570.893         570.893 
       0.251667         662.799           546.7           546.7 
       0.257832         635.519         520.573         520.573 
       0.263955         610.851         493.688         493.688 
       0.270079         585.093         467.513         467.513 
        0.27624         575.049         443.426         443.426 
       0.282372         551.241         422.603         422.603 
        0.28843         537.103         405.123         405.123 
       0.294538         510.159         390.014         390.014 
       0.300721         506.406         376.266         376.266 
        0.30691         482.906         363.061         363.061 
       0.313033         472.312         349.852         349.852 
       0.319153         456.999         336.308         336.308 
       0.325316         443.364         322.515         322.515 
        0.33145          429.02         309.091         309.091 
       0.337538         421.587         296.513         296.513 
       0.343633         407.662         285.007         285.007 
       0.349808         393.152         274.506         274.506 
       0.355968         388.824          265.08          265.08 
       0.362074         381.246         256.468         256.468 
       0.368217         370.236         248.233         248.233 
       0.374374         354.294         240.178         240.178 
       0.380519         351.388         232.191         232.191 
       0.386598         341.864         224.383         224.383 
       0.392688         338.394         216.737         216.737 
        0.39888         328.817         209.275         209.275 
       0.405048         320.747         202.282         202.282 
       0.411186         314.635         195.786         195.786 
       0.417313         308.406         189.742         189.742 
       0.423458         301.755         184.062         184.062 
       0.429607         296.007         178.651         178.651 
       0.435692         287.946         173.479         173.479 
       0.441815         285.117         168.415         168.415 
       0.447964         278.744         163.451         163.451 
       0.454126          270.05         158.605         158.605 
       0.460267         265.762         153.942         153.942 
       0.466387         262.624         149.497         149.497 
        0.47254         256.415          145.24          145.24 
       0.478662          255.61         141.211         141.211 
       0.484765          246.63         137.389         137.389 
       0.490885         243.599         133.725         133.725 
       0.497035         239.344          130.18          130.18 
       0.503198         234.402         126.737         126.737 
       0.509342         232.141         123.406         123.406 
       0.515458         228.899         120.192         120.192 
       0.521598         223.774          117.07          117.07 
       0.527764         220.491         114.043         114.043 
       0.533884         217.829         111.147         111.147 
           0.54         214.409         108.366         108.366 
       0.546137         212.895         105.686         105.686 
       0.552299         208.346         103.097         103.097 
       0.558452         206.553         100.604         100.604 
       0.564573         203.352         98.2012         98.2012 
       0.570708         198.966         95.8652         95.8652 
       0.576825         195.965         93.6069         93.6069 
       0.582926         193.345         91.4246         91.4246 
       0.589034         191.242         89.3091         89.3091 
       0.595184         188.991         87.2482         87.2482 
       0.601379          186.53         85.2401         85.2401 
       0.607522         183.168         83.3129         83.3129 
       0.613639         181.637         81.4548         81.4548 
       0.619772         177.814         79.6505         79.6505 
       0.625918         176.436         77.8986         77.8986 
       0.632068         173.793         76.1992         76.1992 
       0.638161         172.638         74.5659         74.5659 
         0.6443         169.938         72.9687         72.9687 
       0.650464         168.074         71.4119         71.4119 
       0.656582         166.093         69.9109         69.9109 
       0.662703          164.92         68.4523         68.4523 
       0.668861         161.956          67.027          67.027 
       0.675024         159.672         65.6413         65.6413 
       0.681124         158.806         64.3092         64.3092 
       0.687237          156.44         63.0119         63.0119 
       0.693381         153.947          61.745          61.745 
       0.699536         152.886         60.5113         60.5113 
       0.705665         151.796         59.3169         59.3169 
       0.711789         149.382          58.156          58.156 
       0.717957         148.861         57.0185         57.0185 
        0.72409         146.706         55.9178         55.9178 
       0.730186         144.618         54.8527         54.8527 
       0.736317         143.233         53.8096         53.8096 
       0.742472         142.249         52.7898         52.7898 
       0.748622         140.874         51.7975         51.7975 
        0.75476         139.489         50.8328         50.8328 
       0.760888           137.7         49.8941         49.8941 
       0.767043         137.237         48.9756         48.9756 
       0.773185         135.727         48.0821         48.0821 
       0.779291         133.178         47.2161         47.2161 
       0.785407         132.673         46.3702         46.3702 
       0.791564         131.447         45.5398         45.5398 
       0.797719         129.224         44.7303         44.7303 
       0.803834         128.605         43.9456         43.9456 
       0.809972         127.464          43.177          43.177 
       0.816124          126.92         42.4252         42.4252 
       0.822261         125.466         41.6934         41.6934 
       0.828378         124.243         40.9811         40.9811 
       0.834502         123.946         40.2849         40.2849 
       0.840667         121.875         39.6004         39.6004 
       0.846816         120.619         38.9338         38.9338 
       0.852925          120.09         38.2868         38.2868 
       0.859047         118.649         37.6531         37.6531 
       0.865192         117.519         37.0318         37.0318 
       0.871341         116.537         36.4242         36.4242 
       0.877463         115.332          35.833          35.833 
       0.883569         115.004         35.2564         35.2564 
       0.889708         113.842         34.6897         34.6897 
       0.895864         112.524         34.1339         34.1339 
       0.902008         111.833         33.5915         33.5915 
       0.908149         111.284         33.0613         33.0613 
       0.914301         109.936         32.5417         32.5417 
       0.920448         109.114         32.0338         32.0338 
       0.926574         108.329         31.5385         31.5385 
       0.932687         108.182         31.0548         31.0548 
       0.938823         106.453         30.5795         30.5795 
       0.944975         105.421          30.113          30.113 
       0.951105         104.894          29.658          29.658 
       0.957225         103.845         29.2132         29.2132 
       0.963368         102.682          28.776          28.776 
       0.969511         102.555         28.3477         28.3477 
       0.975621         101.829         27.9305         27.9305 
       0.981748         101.258         27.5206         27.5206 
       0.987916         100.092         27.1163         27.1163 
        0.99406         99.3034         26.7217         26.7217 
        1.00019         99.0074         26.3358         26.3358 
        1.00632         97.9459         25.9578         25.9578 
        1.01246         97.4401         25.5867         25.5867 
        1.01859          96.436         25.2235         25.2235 
        1.02471         95.6722         24.8677         24.8677 
        1.03085         94.8342         24.5176         24.5176 
        1.03698         94.4743          24.175          24.175 
        1.04314         93.5119         23.8375         23.8375 
        1.04929         93.0125         23.5072         23.5072 
        1.05541         92.2256         23.1845         23.1845 
        1.06154         91.7905         22.8671         22.8671 
        1.06769         91.4756         22.5552         22.5552 
        1.07382         90.6825           22.25           22.25 
        1.07993         89.9546         21.9513         21.9513 
        1.08607         89.2787         21.6568         21.6568 
        1.09222          89.052         21.3674         21.3674 
        1.09836         88.2055         21.0836         21.0836 
        1.10449         87.5203         20.8053         20.8053 
        1.11063         86.8548         20.5318         20.5318 
        1.11677         86.4921         20.2633         20.2633 
         1.1229          85.658              20              20 
        1.12903           85.01         19.7412         19.7412 
        1.13518         84.9718         19.4868         19.4868 
        1.14131         84.2302          19.237          19.237 
        1.14745          83.607         18.9917         18.9917 
        1.15359         83.0828         18.7506         18.7506 
        1.15973         82.6828         18.5137         18.5137 
        1.16584         81.8954         18.2818         18.2818 
        1.17197         81.4658         18.0537         18.0537 
        1.17811         80.9781         17.8287         17.8287 
        1.18424          80.506         17.6082         17.6082 
        1.19038         80.1267         17.3908         17.3908 
        1.19652         79.5541         17.1772         17.1772 
        1.20267           78.83         16.9672         16.9672 
        1.20881         78.4034         16.7607         16.7607 
        1.21495         77.8772         16.5579         16.5579 
        1.22108         77.5498         16.3586         16.3586 
         1.2272         76.7143          16.163          16.163 
        1.23334         76.4447         15.9701         15.9701 
        1.23949         75.9461           15.78           15.78 
        1.24562         75.4456         15.5934         15.5934 
        1.25174         74.9924         15.4102         15.4102 
        1.25789         74.6907         15.2293         15.2293 
        1.26402         74.0785         15.0517         15.0517 
        1.27014         73.6485         14.8773         14.8773 
        1.27628         73.2797         14.7051         14.7051 
        1.28244         72.7387         14.5354         14.5354 
        1.28858         72.5849         14.3685         14.3685 
        1.29471         72.0074         14.2046         14.2046 
        1.30084         71.6058         14.0435         14.0435 
        1.30697         71.0904         13.8846         13.8846 
        1.31312         70.7208         13.7279         13.7279 
        1.31925         70.2364         13.5741         13.5741 
        1.32537          69.926         13.4228         13.4228 
        1.33151         69.2906         13.2734         13.2734 
        1.33765         69.0175         13.1262         13.1262 
        1.34378         68.6288         12.9816         12.9816 
        1.34992         68.3342         12.8391         12.8391 
        1.35606         67.8916         12.6984         12.6984 
         1.3622         67.2395           12.56           12.56 
        1.36833         67.1453          12.424          12.424 
        1.37445          66.663         12.2902         12.2902 
        1.38059         66.1846         12.1578         12.1578 
        1.38675          65.807         12.0272         12.0272 
        1.39288         65.4986         11.8989         11.8989 
        1.39901         65.1914         11.7726         11.7726 
        1.40515         64.7146         11.6478         11.6478 
         1.4113         64.4072         11.5249         11.5249 
        1.41742         64.2817         11.4042         11.4042 
        1.42355         63.6944          11.285          11.285 
         1.4297         63.4698         11.1672         11.1672 
        1.43585         62.9335         11.0511         11.0511 
        1.44198         62.5869         10.9371         10.9371 
        1.44809         62.3305         10.8249         10.8249 
        1.45423         61.9802         10.7138         10.7138 
        1.46036         61.7375         10.6046         10.6046 
        1.46649         61.2916         10.4968         10.4968 
        1.47263         60.8868         10.3904         10.3904 
        1.47877         60.7237         10.2855         10.2855 
        1.48491         60.3011         10.1819         10.1819 
        1.49104         60.0462           10.08           10.08 
        1.49718         59.6073         9.97935         9.97935 
        1.50333         59.3472         9.87993         9.87993 
        1.50947         59.0309         9.78206         9.78206 
         1.5156          58.696         9.68567         9.68567 
        1.52172         58.3674         9.59056         9.59056 
        1.52787         58.2238         9.49654         9.49654 
          1.534         57.7232         9.40389         9.40389 
        1.54013         57.3866         9.31257         9.31257 
        1.54627         57.2312          9.2223          9.2223 
        1.55241          56.739          9.1332          9.1332 
        1.55855         56.5198         9.04541         9.04541 
        1.56467         56.1938         8.95901         8.95901 
         1.5708         56.0196         8.87349         8.87349 
        1.57695         55.8417         8.78896         8.78896 
        1.58308         55.3041         8.70572         8.70572 
        1.58922         55.1053          8.6235          8.6235 
        1.59535         54.9614         8.54237         8.54237 
         1.6015         54.4213         8.46217         8.46217 
        1.60764         54.2731         8.38303         8.38303 
        1.61376         53.9457         8.30513         8.30513 
        1.61989         53.6503         8.22815         8.22815 
        1.62604         53.4591         8.15197         8.15197 
        1.63218         53.2475          8.0768          8.0768 
        1.63831         52.7337         8.00275         8.00275 
        1.64444         52.5655         7.92959         7.92959 
        1.65059         52.3164         7.85718         7.85718 
        1.65673         52.0445         7.78574         7.78574 
        1.66285         51.6844         7.71539         7.71539 
        1.66898         51.5407         7.64588         7.64588 
        1.67512         51.1271          7.5771          7.5771 
        1.68127         50.9279         7.50909         7.50909 
         1.6874         50.7075         7.44207         7.44207 
        1.69353         50.4321          7.3759          7.3759 
        1.69967         50.1579         7.31038         7.31038 
        1.70581         50.0096         7.24569         7.24569 
        1.71193          49.817         7.18202         7.18202 
        1.71806         49.3316         7.11897         7.11897 
        1.72421         49.1862         7.05656         7.05656 
        1.73035         48.9688         6.99497         6.99497 
        1.73649         48.6492         6.93412         6.93412 
        1.74262          48.488         6.87404         6.87404 
        1.74876          48.208         6.81464         6.81464 
        1.75489         47.9755         6.75605         6.75605 
        1.76101         47.7986         6.69817         6.69817 
        1.76715         47.4235         6.64089         6.64089 
        1.77329         47.1919         6.58421         6.58421 
        1.77943         46.9099         6.52816         6.52816 
        1.78557         46.7788         6.47285         6.47285 
        1.79171         46.5295         6.41816         6.41816 
        1.79785         46.2542          6.3641          6.3641 
        1.80399         46.1746         6.31066         6.31066 
        1.81012         45.8497         6.25791         6.25791 
        1.81625         45.5169         6.20579         6.20579 
        1.82239          45.382         6.15417         6.15417 
        1.82853         45.0812         6.10317         6.10317 
        1.83466         44.8787         6.05279         6.05279 
        1.84078         44.6335         6.00303         6.00303 
        1.84692         44.3626         5.95375         5.95375 
        1.85306         44.1868         5.90497         5.90497 
         1.8592         43.9138          5.8568          5.8568 
        1.86533         43.7565          5.8092          5.8092 
        1.87147         43.5017         5.76206         5.76206 
        1.87761         43.3428         5.71543         5.71543 
