# k  (h/Mpc)    Pcb(k)  (Mpc/h)^3    Pcb_linear(k) (Mpc/h)^3    Pcb_NL(k) (Mpc/h)^3   ShotnoiseSubtracted = false
     0.00783031         22274.7         22622.2         22622.2 
       0.013688         26613.7         26291.6         26291.6 
       0.019231         25433.8         25342.5         25342.5 
      0.0249154         21855.9         22367.1         22367.1 
      0.0312784           18328         18526.1         18526.1 
      0.0375637         15361.1         15302.4         15302.4 
      0.0433917         12941.1         13142.4         13142.4 
      0.0492413         11650.2         11694.5         11694.5 
      0.0555754         10333.4         10656.8         10656.8 
      0.0619321         9895.29         9838.53         9838.53 
       0.067871         8822.59         9053.07         9053.07 
      0.0738098         7985.94         8163.83         8163.83 
      0.0800417         6962.52         7160.29         7160.29 
      0.0862327         6164.56         6205.28         6205.28 
      0.0921407         5562.78         5433.65         5433.65 
      0.0982031         4937.08         4835.01         4835.01 
       0.104506         4664.04         4412.44         4412.44 
       0.110769         4345.47         4139.33         4139.33 
       0.116806         4126.87         3943.12         3943.12 
       0.122832         3919.06         3749.01         3749.01 
       0.129052         3597.02         3510.02         3510.02 
       0.135211         3354.36         3229.14         3229.14 
       0.141259         3167.63         2933.57         2933.57 
       0.147318         2949.35         2651.86         2651.86 
       0.153489         2684.92         2408.75         2408.75 
       0.159709         2537.94          2222.1          2222.1 
       0.165845         2452.48          2091.5          2091.5 
       0.171974         2336.49         1998.08         1998.08 
       0.178125         2227.53          1920.4          1920.4 
       0.184229         2121.44         1840.77         1840.77 
        0.19034         2008.03         1748.08         1748.08 
       0.196428         1948.38         1642.26         1642.26 
       0.202534         1859.71         1529.92         1529.92 
       0.208729         1764.67         1420.31         1420.31 
       0.214876         1694.97         1324.98         1324.98 
       0.220989         1631.21         1247.85         1247.85 
       0.227147         1569.68         1187.28         1187.28 
        0.23329         1508.55         1139.37         1139.37 
       0.239377         1484.12         1097.96         1097.96 
       0.245482         1392.76          1056.8          1056.8 
       0.251667         1382.52         1012.02         1012.02 
       0.257832          1323.2         963.652         963.652 
       0.263955         1275.92         913.883         913.883 
       0.270079         1230.04         865.429         865.429 
        0.27624         1212.37         820.845         820.845 
       0.282372         1162.84         782.295         782.295 
        0.28843         1155.67         749.939         749.939 
       0.294538         1097.18          721.97          721.97 
       0.300721         1088.44         696.519         696.519 
        0.30691         1047.83         672.075         672.075 
       0.313033         1025.14         647.625         647.625 
       0.319153         1007.57         622.552         622.552 
       0.325316         974.903         597.017         597.017 
        0.33145         952.377          572.17          572.17 
       0.337538         931.372         548.886         548.886 
       0.343633          912.76         527.584         527.584 
       0.349808         880.361         508.149         508.149 
       0.355968         873.143         490.699         490.699 
       0.362074         865.035         474.756         474.756 
       0.368217         836.266         459.514         459.514 
       0.374374         805.149         444.598         444.598 
       0.380519         806.509         429.817         429.817 
       0.386598         780.903         415.363         415.363 
       0.392688         777.286         401.209         401.209 
        0.39888         754.351         387.397         387.397 
       0.405048         745.372         374.449         374.449 
       0.411186         734.691         362.426         362.426 
       0.417313         719.366         351.238         351.238 
       0.423458         704.052         340.723         340.723 
       0.429607         697.448         330.706         330.706 
       0.435692         680.828         321.132         321.132 
       0.441815         673.338         311.759         311.759 
       0.447964         660.378          302.57          302.57 
       0.454126         654.988         293.598         293.598 
       0.460267         637.523         284.966         284.966 
       0.466387         629.431         276.739         276.739 
        0.47254         626.887         268.859         268.859 
       0.478662         618.266           261.4           261.4 
       0.484765         599.163         254.325         254.325 
       0.490885         594.903         247.544         247.544 
       0.497035          582.73          240.98          240.98 
       0.503198         578.452         234.607         234.607 
       0.509342         573.421         228.441         228.441 
       0.515458         569.129         222.492         222.492 
       0.521598           553.4         216.713         216.713 
       0.527764         545.864         211.108         211.108 
       0.533884         541.669         205.748         205.748 
           0.54         536.315         200.599         200.599 
       0.546137         530.802         195.639         195.639 
       0.552299         524.003         190.847         190.847 
       0.558452         519.099          186.23          186.23 
       0.564573          513.51         181.783         181.783 
       0.570708         506.415         177.459         177.459 
       0.576825         494.562         173.279         173.279 
       0.582926         495.032         169.239         169.239 
       0.589034         489.153         165.323         165.323 
       0.595184         485.293         161.508         161.508 
       0.601379         477.001         157.791         157.791 
       0.607522         471.109         154.223         154.223 
       0.613639         468.881         150.784         150.784 
       0.619772         461.564         147.443         147.443 
       0.625918         458.404           144.2           144.2 
       0.632068         451.299         141.055         141.055 
       0.638161          448.63         138.031         138.031 
         0.6443         442.581         135.075         135.075 
       0.650464         439.947         132.193         132.193 
       0.656582         434.379         129.414         129.414 
       0.662703         433.712         126.714         126.714 
       0.668861         427.369         124.076         124.076 
       0.675024         423.284         121.511         121.511 
       0.681124         419.456         119.045         119.045 
       0.687237         416.438         116.643         116.643 
       0.693381         410.003         114.298         114.298 
       0.699536          404.17         112.014         112.014 
       0.705665         402.908         109.803         109.803 
       0.711789         401.218         107.654         107.654 
       0.717957          397.33         105.549         105.549 
        0.72409         395.452         103.511         103.511 
       0.730186         389.488         101.539         101.539 
       0.736317         386.923         99.6086         99.6086 
       0.742472          383.64         97.7209         97.7209 
       0.748622         380.144         95.8838         95.8838 
        0.75476         374.688         94.0981         94.0981 
       0.760888           371.2         92.3605         92.3605 
       0.767043         371.159         90.6602         90.6602 
       0.773185         367.787         89.0062         89.0062 
       0.779291         363.277         87.4031         87.4031 
       0.785407         361.333         85.8373         85.8373 
       0.791564         357.442         84.3002         84.3002 
       0.797719         355.509         82.8016         82.8016 
       0.803834         350.436          81.349          81.349 
       0.809972         350.237         79.9263         79.9263 
       0.816124         348.603         78.5346         78.5346 
       0.822261         344.613         77.1799         77.1799 
       0.828378         342.277         75.8613         75.8613 
       0.834502         337.972         74.5725         74.5725 
       0.840667          335.98         73.3054         73.3054 
       0.846816         334.398         72.0714         72.0714 
       0.852925         332.353         70.8737         70.8737 
       0.859047         329.752         69.7008         69.7008 
       0.865192         325.679         68.5507         68.5507 
       0.871341         322.989         67.4259         67.4259 
       0.877463         323.213         66.3315         66.3315 
       0.883569         319.755         65.2642         65.2642 
       0.889708         317.279          64.215          64.215 
       0.895864         316.995         63.1863         63.1863 
       0.902008         313.532         62.1823         62.1823 
       0.908149         309.398         61.2008         61.2008 
       0.914301         307.834         60.2389         60.2389 
       0.920448         305.975         59.2987         59.2987 
       0.926574         302.166         58.3818         58.3818 
       0.932687         301.474         57.4864         57.4864 
       0.938823         298.294         56.6065         56.6065 
       0.944975         298.482         55.7431         55.7431 
       0.951105         295.364         54.9008         54.9008 
       0.957225         293.499         54.0774         54.0774 
       0.963368         289.522          53.268          53.268 
       0.969511         288.873         52.4753         52.4753 
       0.975621         287.284         51.7029         51.7029 
       0.981748         285.011         50.9441         50.9441 
       0.987916         283.668         50.1958         50.1958 
        0.99406         280.468         49.4654         49.4654 
        1.00019         278.361         48.7509         48.7509 
        1.00632         277.468         48.0512         48.0512 
        1.01246         275.052         47.3643         47.3643 
        1.01859         274.786         46.6919         46.6919 
        1.02471         270.902         46.0334         46.0334 
        1.03085         269.883         45.3853         45.3853 
        1.03698         268.121         44.7511         44.7511 
        1.04314          266.46         44.1263         44.1263 
        1.04929         264.417         43.5149         43.5149 
        1.05541         263.988         42.9176         42.9176 
        1.06154         260.092           42.33           42.33 
        1.06769         259.692         41.7525         41.7525 
        1.07382         257.338         41.1877         41.1877 
        1.07993         256.103         40.6346         40.6346 
        1.08607         255.396         40.0895         40.0895 
        1.09222         252.373         39.5538         39.5538 
        1.09836         250.536         39.0285         39.0285 
        1.10449         248.961         38.5134         38.5134 
        1.11063         246.538          38.007          38.007 
        1.11677          246.31         37.5099         37.5099 
         1.1229         243.792         37.0226         37.0226 
        1.12903         242.859         36.5435         36.5435 
        1.13518          241.03         36.0725         36.0725 
        1.14131         239.391         35.6101         35.6101 
        1.14745         238.862          35.156          35.156 
        1.15359         236.899         34.7098         34.7098 
        1.15973         235.036         34.2712         34.2712 
        1.16584         233.535         33.8421         33.8421 
        1.17197         233.425         33.4197         33.4197 
        1.17811         230.425         33.0032         33.0032 
        1.18424         229.135         32.5951         32.5951 
        1.19038         228.256         32.1927         32.1927 
        1.19652         226.108         31.7972         31.7972 
        1.20267         226.176         31.4084         31.4084 
        1.20881         223.615         31.0261         31.0261 
        1.21495         222.542         30.6509         30.6509 
        1.22108         220.963         30.2819         30.2819 
         1.2272         219.579         29.9198         29.9198 
        1.23334           219.3         29.5628         29.5628 
        1.23949         216.391         29.2108         29.2108 
        1.24562         215.665         28.8655         28.8655 
        1.25174         214.782         28.5263         28.5263 
        1.25789         213.267         28.1914         28.1914 
        1.26402         211.208         27.8626         27.8626 
        1.27014         210.277         27.5398         27.5398 
        1.27628         208.479         27.2211         27.2211 
        1.28244         208.435         26.9068         26.9068 
        1.28858         206.522         26.5979         26.5979 
        1.29471         205.838         26.2946         26.2946 
        1.30084         203.636         25.9963         25.9963 
        1.30697          202.76         25.7021         25.7021 
        1.31312         201.082         25.4121         25.4121 
        1.31925         199.592         25.1274         25.1274 
        1.32537         199.498         24.8474         24.8474 
        1.33151         197.601         24.5707         24.5707 
        1.33765         196.059         24.2983         24.2983 
        1.34378         195.449         24.0306         24.0306 
        1.34992         194.559         23.7668         23.7668 
        1.35606         193.769         23.5063         23.5063 
         1.3622         191.373         23.2502         23.2502 
        1.36833         190.741         22.9985         22.9985 
        1.37445         189.473         22.7507         22.7507 
        1.38059         188.262         22.5057         22.5057 
        1.38675         187.585         22.2638         22.2638 
        1.39288         186.449         22.0264         22.0264 
        1.39901         184.905         21.7926         21.7926 
        1.40515         184.204         21.5616         21.5616 
         1.4113         182.998          21.334          21.334 
        1.41742         181.658         21.1106         21.1106 
        1.42355         180.724           20.89           20.89 
         1.4297         179.354         20.6719         20.6719 
        1.43585         178.341          20.457          20.457 
        1.44198         178.128         20.2459         20.2459 
        1.44809         176.525         20.0382         20.0382 
        1.45423         175.809         19.8327         19.8327 
        1.46036         174.376         19.6304         19.6304 
        1.46649         173.558         19.4308         19.4308 
        1.47263         172.631         19.2339         19.2339 
        1.47877         171.306         19.0398         19.0398 
        1.48491         169.807          18.848          18.848 
        1.49104          169.54         18.6593         18.6593 
        1.49718         167.726         18.4731         18.4731 
        1.50333          167.21          18.289          18.289 
        1.50947         165.884         18.1079         18.1079 
         1.5156         165.102         17.9294         17.9294 
        1.52172         164.341         17.7534         17.7534 
        1.52787         162.789         17.5793         17.5793 
          1.534         162.465         17.4078         17.4078 
        1.54013         161.198         17.2388         17.2388 
        1.54627         160.302         17.0717         17.0717 
        1.55241         159.186         16.9067         16.9067 
        1.55855          158.13         16.7442         16.7442 
        1.56467         157.215         16.5843         16.5843 
         1.5708         156.229          16.426          16.426 
        1.57695         155.958         16.2695         16.2695 
        1.58308         154.633         16.1154         16.1154 
        1.58922         153.766         15.9632         15.9632 
        1.59535         152.752          15.813          15.813 
         1.6015         151.761         15.6646         15.6646 
        1.60764         151.281         15.5181         15.5181 
        1.61376         150.235         15.3739         15.3739 
        1.61989         149.329         15.2314         15.2314 
        1.62604         148.305         15.0903         15.0903 
        1.63218         147.773         14.9512         14.9512 
        1.63831         146.484         14.8141         14.8141 
        1.64444         145.767         14.6787         14.6787 
        1.65059         145.017         14.5446         14.5446 
        1.65673         144.333         14.4124         14.4124 
        1.66285         143.162         14.2822         14.2822 
        1.66898          142.59         14.1535         14.1535 
        1.67512          141.51         14.0262         14.0262 
        1.68127         140.688         13.9003         13.9003 
         1.6874         140.247         13.7762         13.7762 
        1.69353         139.065         13.6537         13.6537 
        1.69967         138.111         13.5325         13.5325 
        1.70581         137.392         13.4127         13.4127 
        1.71193         136.373         13.2948         13.2948 
        1.71806          135.99         13.1781         13.1781 
        1.72421         135.198         13.0626         13.0626 
        1.73035         134.537         12.9486         12.9486 
        1.73649         133.608         12.8359         12.8359 
        1.74262             133         12.7247         12.7247 
        1.74876         131.752         12.6148         12.6148 
        1.75489         131.316         12.5063         12.5063 
        1.76101         130.195         12.3992         12.3992 
        1.76715         129.918         12.2931         12.2931 
        1.77329         128.781         12.1882         12.1882 
        1.77943         128.489         12.0845         12.0845 
        1.78557         127.787         11.9821         11.9821 
        1.79171         126.801         11.8808         11.8808 
        1.79785         126.138         11.7808         11.7808 
        1.80399         125.435         11.6818         11.6818 
        1.81012         124.909         11.5842         11.5842 
        1.81625         124.201         11.4877         11.4877 
        1.82239         123.391         11.3922         11.3922 
        1.82853         122.502         11.2977         11.2977 
        1.83466         122.059         11.2045         11.2045 
        1.84078         121.184         11.1124         11.1124 
        1.84692         120.272         11.0212         11.0212 
        1.85306         120.196         10.9308         10.9308 
         1.8592         119.183         10.8417         10.8417 
        1.86533         118.789         10.7536         10.7536 
        1.87147         117.823         10.6663         10.6663 
