# k  (h/Mpc)    P(k)  (Mpc/h)^3    P_linear(k)  (Mpc/h)^3     P_NL(k)  ShotnoiseSubtracted = false
     0.00783031         14740.2         14950.3         14950.3 
       0.013688         17550.5         17387.4         17387.4 
       0.019231         16820.8         16763.1         16763.1 
      0.0249154           14534         14796.3         14796.3 
      0.0312784         12172.4         12256.1         12256.1 
      0.0375637         10171.8         10123.8         10123.8 
      0.0433917         8602.55         8694.91         8694.91 
      0.0492413         7725.45         7737.07         7737.07 
      0.0555754         6892.61         7050.63         7050.63 
      0.0619321         6559.95          6509.3          6509.3 
       0.067871          5882.8         5989.66         5989.66 
      0.0738098         5316.46         5401.35         5401.35 
      0.0800417         4637.92          4737.4          4737.4 
      0.0862327         4087.16         4105.56         4105.56 
      0.0921407         3660.24         3595.04         3595.04 
      0.0982031          3242.3         3198.97         3198.97 
       0.104506         3047.52          2919.4          2919.4 
       0.110769         2841.46          2738.7          2738.7 
       0.116806         2690.39         2608.88         2608.88 
       0.122832         2563.15         2480.46         2480.46 
       0.129052         2357.87         2322.34         2322.34 
       0.135211         2192.99          2136.5          2136.5 
       0.141259         2053.34         1940.94         1940.94 
       0.147318         1897.78         1754.56         1754.56 
       0.153489         1723.08         1593.71         1593.71 
       0.159709         1623.04         1470.22         1470.22 
       0.165845         1559.15         1383.81         1383.81 
       0.171974         1481.07            1322            1322 
       0.178125         1415.95          1270.6          1270.6 
       0.184229          1355.4         1217.92         1217.92 
        0.19034         1267.65         1156.59         1156.59 
       0.196428         1230.39         1086.58         1086.58 
       0.202534         1175.28         1012.25         1012.25 
       0.208729         1106.65         939.728         939.728 
       0.214876         1049.66         876.653         876.653 
       0.220989         1009.75         825.618         825.618 
       0.227147         965.405         785.546         785.546 
        0.23329         927.679         753.851         753.851 
       0.239377         908.871         726.448         726.448 
       0.245482          848.83         699.218         699.218 
       0.251667         840.446         669.586         669.586 
       0.257832         804.958         637.587         637.587 
       0.263955         775.144         604.658         604.658 
       0.270079          743.64         572.599         572.599 
        0.27624         732.369         543.099         543.099 
       0.282372         701.867         517.595         517.595 
        0.28843         688.214         496.186         496.186 
       0.294538          652.69         477.681         477.681 
       0.300721         648.639         460.843         460.843 
        0.30691         619.576          444.67          444.67 
       0.313033         606.502         428.491         428.491 
       0.319153         589.764         411.903         411.903 
       0.325316         571.504         395.009         395.009 
        0.33145         554.677         378.568         378.568 
       0.337538         544.715         363.162         363.162 
       0.343633         528.357          349.07          349.07 
       0.349808         509.034         336.209         336.209 
       0.355968          504.65         324.665         324.665 
       0.362074         496.694         314.116         314.116 
       0.368217         481.932         304.031         304.031 
       0.374374         460.556         294.165         294.165 
       0.380519         458.806         284.383         284.383 
       0.386598         445.914         274.819         274.819 
       0.392688         442.769         265.455         265.455 
        0.39888         429.749         256.315         256.315 
       0.405048         420.474          247.75          247.75 
       0.411186         413.534         239.795         239.795 
       0.417313         405.133         232.392         232.392 
       0.423458         396.518         225.435         225.435 
       0.429607         390.215         218.808         218.808 
       0.435692         380.083         212.473         212.473 
       0.441815          376.28         206.271         206.271 
       0.447964         367.765         200.192         200.192 
       0.454126         359.455         194.255         194.255 
       0.460267         352.542         188.544         188.544 
       0.466387         348.358         183.101         183.101 
        0.47254         341.409         177.887         177.887 
       0.478662         340.179         172.952         172.952 
       0.484765         327.976         168.271         168.271 
       0.490885         324.686         163.784         163.784 
       0.497035         318.505         159.442         159.442 
       0.503198         313.649         155.225         155.225 
       0.509342         311.164         151.145         151.145 
       0.515458         307.266         147.209         147.209 
       0.521598         299.451         143.385         143.385 
       0.527764         294.949         139.677         139.677 
       0.533884         292.228         136.131         136.131 
           0.54         287.987         132.724         132.724 
       0.546137         286.264         129.442         129.442 
       0.552299         280.238         126.271         126.271 
       0.558452         278.609         123.217         123.217 
       0.564573         274.574         120.275         120.275 
       0.570708         268.978         117.413         117.413 
       0.576825         263.911         114.648         114.648 
       0.582926         261.733         111.975         111.975 
       0.589034         259.068         109.384         109.384 
       0.595184          256.51          106.86          106.86 
       0.601379         252.613           104.4           104.4 
       0.607522         248.921          102.04          102.04 
       0.613639         246.985         99.7641         99.7641 
       0.619772         241.758         97.5542         97.5542 
       0.625918         240.682         95.4084         95.4084 
       0.632068         236.489         93.3271         93.3271 
       0.638161         235.335         91.3267         91.3267 
         0.6443         231.466         89.3704         89.3704 
       0.650464         229.002         87.4636         87.4636 
       0.656582         226.757         85.6253         85.6253 
       0.662703         226.018         83.8389         83.8389 
       0.668861          221.99         82.0932         82.0932 
       0.675024         218.964          80.396          80.396 
       0.681124          217.48         78.7644         78.7644 
       0.687237          215.03         77.1756         77.1756 
       0.693381         211.581         75.6239         75.6239 
       0.699536         209.789         74.1128         74.1128 
       0.705665         207.784         72.6499         72.6499 
       0.711789         206.005         71.2282         71.2282 
       0.717957         204.784          69.835          69.835 
        0.72409         202.434         68.4868         68.4868 
       0.730186         199.791         67.1824         67.1824 
       0.736317         197.612         65.9048         65.9048 
       0.742472         196.255         64.6558         64.6558 
       0.748622         194.522         63.4404         63.4404 
        0.75476         192.508         62.2588         62.2588 
       0.760888         190.292         61.1092         61.1092 
       0.767043         190.072         59.9842         59.9842 
       0.773185         187.967         58.8899         58.8899 
       0.779291         184.366         57.8292         57.8292 
       0.785407         183.874         56.7932         56.7932 
       0.791564         181.931         55.7762         55.7762 
       0.797719         179.402         54.7846         54.7846 
       0.803834         178.293         53.8236         53.8236 
       0.809972          177.39         52.8823         52.8823 
       0.816124         176.566         51.9615         51.9615 
       0.822261         174.673         51.0651         51.0651 
       0.828378         172.846         50.1927         50.1927 
       0.834502         172.257           49.34           49.34 
       0.840667         169.821         48.5016         48.5016 
       0.846816          168.32         47.6852         47.6852 
       0.852925         167.624         46.8928         46.8928 
       0.859047         166.053         46.1167         46.1167 
       0.865192         163.923         45.3558         45.3558 
       0.871341         162.671         44.6115         44.6115 
       0.877463         161.425         43.8874         43.8874 
       0.883569         161.059         43.1813         43.1813 
       0.889708         159.134         42.4871         42.4871 
       0.895864         157.388         41.8064         41.8064 
       0.902008         156.509         41.1422         41.1422 
       0.908149         155.936         40.4928         40.4928 
       0.914301         153.711         39.8564         39.8564 
       0.920448         152.815         39.2343         39.2343 
       0.926574          151.66         38.6276         38.6276 
       0.932687         151.536         38.0352         38.0352 
       0.938823          149.43          37.453          37.453 
       0.944975         148.423         36.8817         36.8817 
       0.951105         147.531         36.3245         36.3245 
       0.957225         146.263         35.7796         35.7796 
       0.963368         144.178         35.2442         35.2442 
       0.969511         143.851         34.7196         34.7196 
       0.975621         142.558         34.2086         34.2086 
       0.981748         142.427         33.7066         33.7066 
       0.987916         140.868         33.2114         33.2114 
        0.99406         139.582         32.7282         32.7282 
        1.00019         139.391         32.2554         32.2554 
        1.00632         137.881         31.7925         31.7925 
        1.01246         137.079          31.338          31.338 
        1.01859         136.504         30.8931         30.8931 
        1.02471         134.717         30.4574         30.4574 
        1.03085         133.628         30.0286         30.0286 
        1.03698         133.011          29.609          29.609 
        1.04314         131.628         29.1956         29.1956 
        1.04929         131.173         28.7911         28.7911 
        1.05541         130.482         28.3959         28.3959 
        1.06154         129.424         28.0071         28.0071 
        1.06769         129.181          27.625          27.625 
        1.07382         127.832         27.2514         27.2514 
        1.07993         126.792         26.8854         26.8854 
        1.08607         126.166         26.5247         26.5247 
        1.09222         125.683         26.1703         26.1703 
        1.09836          124.58         25.8227         25.8227 
        1.10449         123.206         25.4819         25.4819 
        1.11063         122.336         25.1469         25.1469 
        1.11677          121.87          24.818          24.818 
         1.1229         120.976         24.4956         24.4956 
        1.12903         120.391         24.1786         24.1786 
        1.13518         119.771          23.867          23.867 
        1.14131         118.542          23.561          23.561 
        1.14745         118.263         23.2606         23.2606 
        1.15359          117.33         22.9653         22.9653 
        1.15973         116.666         22.6751         22.6751 
        1.16584         115.539         22.3912         22.3912 
        1.17197         115.015         22.1117         22.1117 
        1.17811         114.302         21.8362         21.8362 
        1.18424         113.839         21.5661         21.5661 
        1.19038         113.447         21.2999         21.2999 
        1.19652         112.424         21.0382         21.0382 
        1.20267         111.745          20.781          20.781 
        1.20881         110.915         20.5281         20.5281 
        1.21495         110.238         20.2798         20.2798 
        1.22108         109.633         20.0356         20.0356 
         1.2272          108.66         19.7961         19.7961 
        1.23334         108.239         19.5599         19.5599 
        1.23949         107.562          19.327          19.327 
        1.24562         106.853         19.0985         19.0985 
        1.25174         106.176         18.8741         18.8741 
        1.25789         105.611         18.6525         18.6525 
        1.26402         104.497         18.4349         18.4349 
        1.27014         104.041         18.2214         18.2214 
        1.27628         103.648         18.0105         18.0105 
        1.28244         103.215         17.8026         17.8026 
        1.28858         102.659         17.5982         17.5982 
        1.29471         101.595         17.3975         17.3975 
        1.30084         101.426         17.2001         17.2001 
        1.30697         100.359         17.0055         17.0055 
        1.31312          99.967         16.8136         16.8136 
        1.31925         99.2245         16.6253         16.6253 
        1.32537         98.7979           16.44           16.44 
        1.33151         97.9321         16.2569         16.2569 
        1.33765         97.5112         16.0767         16.0767 
        1.34378         97.0374         15.8996         15.8996 
        1.34992         96.7231          15.725          15.725 
        1.35606         96.1237         15.5527         15.5527 
         1.3622         95.1733         15.3832         15.3832 
        1.36833          94.729         15.2167         15.2167 
        1.37445         94.2626         15.0527         15.0527 
        1.38059         93.5802         14.8907         14.8907 
        1.38675         93.0255         14.7306         14.7306 
        1.39288         92.8324         14.5735         14.5735 
        1.39901         92.2223         14.4188         14.4188 
        1.40515         91.4246          14.266          14.266 
         1.4113         91.0448         14.1154         14.1154 
        1.41742         90.5387         13.9676         13.9676 
        1.42355         89.9692         13.8216         13.8216 
         1.4297         89.5743         13.6773         13.6773 
        1.43585         88.8168         13.5351         13.5351 
        1.44198         88.4527         13.3955         13.3955 
        1.44809          88.002         13.2581         13.2581 
        1.45423         87.5844         13.1221         13.1221 
        1.46036          87.108         12.9882         12.9882 
        1.46649         86.4077         12.8562         12.8562 
        1.47263         85.8256         12.7259         12.7259 
        1.47877         85.6399         12.5975         12.5975 
        1.48491         84.8441         12.4706         12.4706 
        1.49104         84.7092         12.3457         12.3457 
        1.49718         84.1228         12.2225         12.2225 
        1.50333         83.6829         12.1007         12.1007 
        1.50947         83.1794         11.9808         11.9808 
         1.5156         82.7067         11.8628         11.8628 
        1.52172         82.1704         11.7463         11.7463 
        1.52787         81.7785         11.6311         11.6311 
          1.534         81.2393         11.5177         11.5177 
        1.54013         80.8546         11.4058         11.4058 
        1.54627         80.5118         11.2953         11.2953 
        1.55241         79.9159         11.1861         11.1861 
        1.55855         79.5244         11.0786         11.0786 
        1.56467         79.2685         10.9728         10.9728 
         1.5708          78.604          10.868          10.868 
        1.57695         78.5643         10.7645         10.7645 
        1.58308         77.9004         10.6626         10.6626 
        1.58922         77.5921         10.5619         10.5619 
        1.59535         77.1678         10.4625         10.4625 
         1.6015         76.6176         10.3643         10.3643 
        1.60764         76.2359         10.2673         10.2673 
        1.61376          76.012         10.1719         10.1719 
        1.61989         75.4341         10.0776         10.0776 
        1.62604         75.1562         9.98434         9.98434 
        1.63218         74.8543         9.89228         9.89228 
        1.63831         73.9957         9.80158         9.80158 
        1.64444         73.7914         9.71198         9.71198 
        1.65059         73.4408         9.62329         9.62329 
        1.65673         72.8247          9.5358          9.5358 
        1.66285         72.6049         9.44963         9.44963 
        1.66898         72.3683          9.3645          9.3645 
        1.67512         71.7247         9.28025         9.28025 
        1.68127         71.4902         9.19696         9.19696 
         1.6874         70.9683         9.11488         9.11488 
        1.69353         70.5851         9.03384         9.03384 
        1.69967         70.3218         8.95359         8.95359 
        1.70581         69.9673         8.87435         8.87435 
        1.71193         69.6227         8.79637         8.79637 
        1.71806         69.2302         8.71915         8.71915 
        1.72421         68.7243         8.64271         8.64271 
        1.73035         68.4788         8.56727         8.56727 
        1.73649         68.1942         8.49275         8.49275 
        1.74262         67.6686         8.41917         8.41917 
        1.74876         67.4453         8.34641         8.34641 
        1.75489         66.9619         8.27466         8.27466 
        1.76101         66.7153         8.20377         8.20377 
        1.76715         66.2133         8.13361         8.13361 
        1.77329         65.9661         8.06419         8.06419 
        1.77943         65.5103         7.99554         7.99554 
        1.78557         65.3844          7.9278          7.9278 
        1.79171         64.7902         7.86082         7.86082 
        1.79785         64.4586          7.7946          7.7946 
        1.80399         64.2729         7.72916         7.72916 
        1.81012         63.9929         7.66455         7.66455 
        1.81625          63.566          7.6007          7.6007 
        1.82239         63.2706         7.53749         7.53749 
        1.82853         62.9751         7.47502         7.47502 
        1.83466         62.6534         7.41332         7.41332 
        1.84078         62.2398         7.35238         7.35238 
        1.84692         61.9541         7.29202         7.29202 
        1.85306         61.6042         7.23227         7.23227 
         1.8592         61.3686         7.17327         7.17327 
        1.86533         60.9556         7.11497         7.11497 
        1.87147            60.5         7.05724         7.05724 
        1.87761         60.3279         7.00013         7.00013 
