# k  (h/Mpc)    P(k)  (Mpc/h)^3    P_linear(k)  (Mpc/h)^3     P_NL(k)  ShotnoiseSubtracted = false
     0.00783031         2532.71         2560.64         2560.64 
       0.013688         2984.71         2981.77         2981.77 
       0.019231         2879.78         2875.83         2875.83 
      0.0249154         2521.95         2538.92         2538.92 
      0.0312784         2102.81         2103.29         2103.29 
      0.0375637         1745.28         1737.47         1737.47 
      0.0433917         1490.23         1492.31         1492.31 
      0.0492413         1330.11         1327.95         1327.95 
      0.0555754         1202.67         1210.17         1210.17 
      0.0619321         1124.04         1117.27         1117.27 
       0.067871         1023.61         1028.09         1028.09 
      0.0738098         922.825         927.121         927.121 
      0.0800417         807.396         813.164         813.164 
      0.0862327         703.937         704.714         704.714 
      0.0921407          620.12         617.088         617.088 
      0.0982031         549.609         549.105         549.105 
       0.104506         507.601         501.117         501.117 
       0.110769         474.763         470.102         470.102 
       0.116806         449.115          447.82          447.82 
       0.122832         429.041         425.777         425.777 
       0.129052         398.596         398.636         398.636 
       0.135211         367.347         366.737         366.737 
       0.141259         337.004         333.169         333.169 
       0.147318          306.98         301.176         301.176 
       0.153489         278.164         273.566         273.566 
       0.159709          257.86         252.369         252.369 
       0.165845         245.027         237.537         237.537 
       0.171974         231.711         226.926         226.926 
       0.178125         223.042         218.104         218.104 
       0.184229         214.303         209.061         209.061 
        0.19034         200.744         198.534         198.534 
       0.196428         191.235         186.517         186.517 
       0.202534         180.727         173.757         173.757 
       0.208729         167.482         161.309         161.309 
       0.214876         155.841         150.482         150.482 
       0.220989         148.753         141.721         141.721 
       0.227147         140.319         134.843         134.843 
        0.23329         134.748         129.402         129.402 
       0.239377         130.525         124.699         124.699 
       0.245482         123.916         120.025         120.025 
       0.251667         120.361         114.938         114.938 
       0.257832         115.014         109.445         109.445 
       0.263955         109.355         103.793         103.793 
       0.270079         104.093         98.2898         98.2898 
        0.27624         100.217          93.226          93.226 
       0.282372         95.8364         88.8481         88.8481 
        0.28843         91.6006         85.1731         85.1731 
       0.294538         87.9733         81.9967         81.9967 
       0.300721          85.882         79.1063         79.1063 
        0.30691         82.1702         76.3301         76.3301 
       0.313033         79.3878          73.553          73.553 
       0.319153         75.4755         70.7055         70.7055 
       0.325316         73.8768         67.8056         67.8056 
        0.33145         70.6294         64.9835         64.9835 
       0.337538         68.4527         62.3389         62.3389 
       0.343633         65.7335           59.92           59.92 
       0.349808         63.6181         57.7122         57.7122 
       0.355968         61.7944         55.7306         55.7306 
       0.362074         59.7621         53.9199         53.9199 
       0.368217         57.8503         52.1887         52.1887 
       0.374374         56.0125         50.4951         50.4951 
       0.380519         54.4928          48.816          48.816 
       0.386598         52.8323         47.1744         47.1744 
       0.392688          51.528         45.5669         45.5669 
        0.39888         49.8191         43.9981         43.9981 
       0.405048         48.4382         42.5278         42.5278 
       0.411186         47.1285         41.1622         41.1622 
       0.417313         45.5719         39.8915         39.8915 
       0.423458         44.3168         38.6972         38.6972 
       0.429607         43.0653         37.5597         37.5597 
       0.435692          41.691         36.4722         36.4722 
       0.441815         40.9037         35.4077         35.4077 
       0.447964         40.0728         34.3641         34.3641 
       0.454126         38.3654         33.3451         33.3451 
       0.460267         37.6461         32.3648         32.3648 
       0.466387         36.4942         31.4303         31.4303 
        0.47254         35.8077         30.5354         30.5354 
       0.478662         35.1176         29.6883         29.6883 
       0.484765         34.0199         28.8848         28.8848 
       0.490885         33.2203         28.1145         28.1145 
       0.497035          32.695         27.3692         27.3692 
       0.503198         31.7689         26.6453         26.6453 
       0.509342          30.929          25.945          25.945 
       0.515458         30.1963         25.2693         25.2693 
       0.521598          29.631          24.613          24.613 
       0.527764         28.9486         23.9764         23.9764 
       0.533884         28.4156         23.3677         23.3677 
           0.54         27.7168         22.7829         22.7829 
       0.546137         27.2366         22.2195         22.2195 
       0.552299         26.7322         21.6753         21.6753 
       0.558452         25.8878          21.151          21.151 
       0.564573         25.4633         20.6459         20.6459 
       0.570708         24.9958         20.1548         20.1548 
       0.576825         24.3584           19.68           19.68 
       0.582926         23.8478         19.2212         19.2212 
       0.589034         23.1857         18.7764         18.7764 
       0.595184         22.8606         18.3431         18.3431 
       0.601379          22.372         17.9209         17.9209 
       0.607522         21.9316         17.5158         17.5158 
       0.613639         21.6751         17.1251         17.1251 
       0.619772         21.0903         16.7458         16.7458 
       0.625918         20.9226         16.3775         16.3775 
       0.632068         20.5638         16.0202         16.0202 
       0.638161         20.0711         15.6768         15.6768 
         0.6443          19.653          15.341          15.341 
       0.650464         19.2604         15.0137         15.0137 
       0.656582          19.109         14.6981         14.6981 
       0.662703         18.7152         14.3915         14.3915 
       0.668861         18.3365         14.0918         14.0918 
       0.675024          17.976         13.8005         13.8005 
       0.681124         17.6547         13.5204         13.5204 
       0.687237         17.3203         13.2477         13.2477 
       0.693381         17.1261         12.9813         12.9813 
       0.699536          16.675         12.7219         12.7219 
       0.705665         16.5655         12.4708         12.4708 
       0.711789          16.178         12.2268         12.2268 
       0.717957         15.9261         11.9876         11.9876 
        0.72409         15.6711         11.7562         11.7562 
       0.730186         15.4361         11.5323         11.5323 
       0.736317         15.2384          11.313          11.313 
       0.742472         14.9587         11.0986         11.0986 
       0.748622         14.7699         10.8899         10.8899 
        0.75476         14.4682         10.6871         10.6871 
       0.760888         14.2431         10.4898         10.4898 
       0.767043          14.051         10.2967         10.2967 
       0.773185         13.7752         10.1088         10.1088 
       0.779291         13.6715         9.92675         9.92675 
       0.785407         13.4942         9.74892         9.74892 
       0.791564         13.2313         9.57434         9.57434 
       0.797719         12.9175         9.40413         9.40413 
       0.803834         12.8804         9.23917         9.23917 
       0.809972         12.7365         9.07758         9.07758 
       0.816124         12.4213         8.91952         8.91952 
       0.822261         12.2709         8.76566         8.76566 
       0.828378         12.1373          8.6159          8.6159 
       0.834502         12.0029         8.46953         8.46953 
       0.840667         11.8005         8.32562         8.32562 
       0.846816         11.5716         8.18547         8.18547 
       0.852925         11.4534         8.04944         8.04944 
       0.859047         11.3059         7.91623         7.91623 
       0.865192         11.1813         7.78561         7.78561 
       0.871341         11.0579         7.65786         7.65786 
       0.877463          10.855         7.53356         7.53356 
       0.883569         10.6924         7.41235         7.41235 
       0.889708         10.5067         7.29319         7.29319 
       0.895864         10.4088         7.17635         7.17635 
       0.902008         10.3192         7.06232         7.06232 
       0.908149         10.1917         6.95084         6.95084 
       0.914301         10.0885          6.8416          6.8416 
       0.920448         9.89014         6.73481         6.73481 
       0.926574         9.78444         6.63068         6.63068 
       0.932687         9.65838         6.52898         6.52898 
       0.938823         9.52393         6.42905         6.42905 
       0.944975         9.39704         6.33099         6.33099 
       0.951105         9.29891         6.23533         6.23533 
       0.957225         9.21276         6.14181         6.14181 
       0.963368         9.10077         6.04989         6.04989 
       0.969511         9.00317         5.95985         5.95985 
       0.975621         8.90248         5.87213         5.87213 
       0.981748         8.77301         5.78595         5.78595 
       0.987916         8.69629         5.70096         5.70096 
        0.99406         8.56571           5.618           5.618 
        1.00019         8.42589         5.53686         5.53686 
        1.00632         8.38902         5.45739         5.45739 
        1.01246         8.29292         5.37937         5.37937 
        1.01859         8.15079           5.303           5.303 
        1.02471         8.09903         5.22821         5.22821 
        1.03085         8.00693         5.15461         5.15461 
        1.03698         7.86837         5.08258         5.08258 
        1.04314         7.81769         5.01162         5.01162 
        1.04929         7.70929         4.94218         4.94218 
        1.05541         7.60663         4.87434         4.87434 
        1.06154         7.55074          4.8076          4.8076 
        1.06769         7.50061         4.74202         4.74202 
        1.07382         7.38994         4.67787         4.67787 
        1.07993         7.30989         4.61506         4.61506 
        1.08607         7.23717         4.55314         4.55314 
        1.09222         7.16703          4.4923          4.4923 
        1.09836         7.07114         4.43264         4.43264 
        1.10449         7.01038         4.37414         4.37414 
        1.11063         6.92013         4.31662         4.31662 
        1.11677         6.87913         4.26017         4.26017 
         1.1229          6.8217         4.20482         4.20482 
        1.12903         6.72607         4.15041         4.15041 
        1.13518         6.63784         4.09692         4.09692 
        1.14131         6.58527          4.0444          4.0444 
        1.14745         6.51513         3.99283         3.99283 
        1.15359         6.46635         3.94215         3.94215 
        1.15973         6.39203         3.89233         3.89233 
        1.16584         6.29409         3.84359         3.84359 
        1.17197         6.25223         3.79562         3.79562 
        1.17811         6.21146         3.74833         3.74833 
        1.18424         6.14247         3.70197         3.70197 
        1.19038         6.10579         3.65627         3.65627 
        1.19652         6.02885         3.61135         3.61135 
        1.20267         5.96193         3.56719         3.56719 
        1.20881         5.93487         3.52378         3.52378 
        1.21495         5.87624         3.48116         3.48116 
        1.22108         5.79649         3.43925         3.43925 
         1.2272          5.7487         3.39813         3.39813 
        1.23334         5.68441         3.35758         3.35758 
        1.23949         5.62743          3.3176          3.3176 
        1.24562         5.59248         3.27838         3.27838 
        1.25174         5.54549         3.23986         3.23986 
        1.25789         5.49271         3.20183         3.20183 
        1.26402         5.46285         3.16448         3.16448 
        1.27014         5.40278         3.12781         3.12781 
        1.27628         5.33252         3.09162         3.09162 
        1.28244         5.27593         3.05593         3.05593 
        1.28858         5.26953         3.02085         3.02085 
        1.29471          5.2016          2.9864          2.9864 
        1.30084         5.14295         2.95251         2.95251 
        1.30697         5.12988         2.91911         2.91911 
        1.31312         5.04218         2.88616         2.88616 
        1.31925         5.00178         2.85384         2.85384 
        1.32537          4.9642         2.82203         2.82203 
        1.33151         4.94297          2.7906          2.7906 
        1.33765         4.88178         2.75967         2.75967 
        1.34378         4.84106         2.72927         2.72927 
        1.34992         4.80408          2.6993          2.6993 
        1.35606         4.76021         2.66972         2.66972 
         1.3622         4.72925         2.64063         2.64063 
        1.36833         4.67449         2.61205         2.61205 
        1.37445         4.64321          2.5839          2.5839 
        1.38059         4.61993         2.55608         2.55608 
        1.38675         4.57245          2.5286          2.5286 
        1.39288         4.54719         2.50164         2.50164 
        1.39901         4.48713         2.47508         2.47508 
        1.40515         4.46213         2.44885         2.44885 
         1.4113         4.42245           2.423           2.423 
        1.41742         4.38725         2.39763         2.39763 
        1.42355         4.34368         2.37258         2.37258 
         1.4297         4.31757          2.3478          2.3478 
        1.43585         4.29319         2.32339         2.32339 
        1.44198         4.26437         2.29942         2.29942 
        1.44809         4.22078         2.27583         2.27583 
        1.45423         4.18234         2.25249         2.25249 
        1.46036         4.14599         2.22951         2.22951 
        1.46649         4.12152         2.20685         2.20685 
        1.47263         4.07959         2.18448         2.18448 
        1.47877         4.04873         2.16244         2.16244 
        1.48491         4.02389         2.14066         2.14066 
        1.49104         3.99226         2.11923         2.11923 
        1.49718         3.96192         2.09807         2.09807 
        1.50333         3.93495         2.07717         2.07717 
        1.50947         3.89584         2.05659         2.05659 
         1.5156         3.87452         2.03633         2.03633 
        1.52172         3.84985         2.01633         2.01633 
        1.52787         3.81948         1.99656         1.99656 
          1.534           3.786         1.97709         1.97709 
        1.54013         3.76359         1.95789         1.95789 
        1.54627         3.72632         1.93891         1.93891 
        1.55241         3.69782         1.92018         1.92018 
        1.55855         3.68201         1.90172         1.90172 
        1.56467         3.64951         1.88355         1.88355 
         1.5708         3.62906         1.86557         1.86557 
        1.57695         3.59542          1.8478          1.8478 
        1.58308         3.56206          1.8303          1.8303 
        1.58922         3.55132         1.81301         1.81301 
        1.59535         3.53029         1.79596         1.79596 
         1.6015         3.49344          1.7791          1.7791 
        1.60764         3.46567         1.76246         1.76246 
        1.61376         3.44927         1.74608         1.74608 
        1.61989         3.42212          1.7299          1.7299 
        1.62604         3.39755         1.71388         1.71388 
        1.63218         3.38534         1.69808         1.69808 
        1.63831         3.35458         1.68251         1.68251 
        1.64444         3.33448         1.66713         1.66713 
        1.65059         3.29373          1.6519          1.6519 
        1.65673         3.29325         1.63688         1.63688 
        1.66285          3.2544         1.62209         1.62209 
        1.66898         3.23424         1.60748         1.60748 
        1.67512         3.21684         1.59302         1.59302 
        1.68127         3.19223         1.57872         1.57872 
         1.6874         3.17734         1.56463         1.56463 
        1.69353         3.14749         1.55072         1.55072 
        1.69967         3.13454         1.53694         1.53694 
        1.70581         3.11393         1.52334         1.52334 
        1.71193         3.08737         1.50996         1.50996 
        1.71806         3.07114          1.4967          1.4967 
        1.72421         3.04987         1.48358         1.48358 
        1.73035          3.0348         1.47063         1.47063 
        1.73649         3.01242         1.45784         1.45784 
        1.74262         2.98814         1.44521         1.44521 
        1.74876         2.97409         1.43272         1.43272 
        1.75489         2.95764          1.4204          1.4204 
        1.76101         2.93052         1.40823         1.40823 
        1.76715         2.91887         1.39619         1.39619 
        1.77329         2.89938         1.38427         1.38427 
        1.77943         2.87179         1.37249         1.37249 
        1.78557         2.86116         1.36086         1.36086 
        1.79171         2.84371         1.34936         1.34936 
        1.79785         2.82461           1.338           1.338 
        1.80399         2.80409         1.32676         1.32676 
        1.81012         2.78691         1.31567         1.31567 
        1.81625         2.77169         1.30471         1.30471 
        1.82239          2.7567         1.29386         1.29386 
        1.82853         2.73304         1.28314         1.28314 
        1.83466         2.72197         1.27255         1.27255 
        1.84078         2.71015         1.26209         1.26209 
        1.84692          2.6953         1.25173         1.25173 
        1.85306         2.67046         1.24147         1.24147 
         1.8592          2.6521         1.23134         1.23134 
        1.86533         2.63631         1.22133         1.22133 
        1.87147         2.62429         1.21142         1.21142 
        1.87761         2.60711         1.20162         1.20162 
