# k  (h/Mpc)    P(k)  (Mpc/h)^3    P_linear(k)  (Mpc/h)^3     P_NL(k)  ShotnoiseSubtracted = false
     0.00783031         21658.2         21994.8         21994.8 
       0.013688         25872.7         25563.5         25563.5 
       0.019231         24729.5           24641           24641 
      0.0249154         21256.7         21748.1         21748.1 
      0.0312784         17824.3         18013.5         18013.5 
      0.0375637         14936.5           14879           14879 
      0.0433917         12585.9         12778.8         12778.8 
      0.0492413         11328.8         11370.9         11370.9 
      0.0555754         10051.4         10361.9         10361.9 
      0.0619321          9622.2         9566.31         9566.31 
       0.067871         8581.58         8802.58         8802.58 
      0.0738098         7766.98         7937.95         7937.95 
      0.0800417         6771.74         6962.18         6962.18 
      0.0862327         5994.07         6033.59         6033.59 
      0.0921407         5406.74         5283.32         5283.32 
      0.0982031         4797.92         4701.24         4701.24 
       0.104506         4531.48         4290.36         4290.36 
       0.110769            4222          4024.8          4024.8 
       0.116806         4008.86         3834.02         3834.02 
       0.122832         3807.63         3645.28         3645.28 
       0.129052         3494.99         3412.91         3412.91 
       0.135211         3258.86          3139.8          3139.8 
       0.141259         3076.06          2852.4          2852.4 
       0.147318         2862.92         2578.49         2578.49 
       0.153489         2605.78         2342.11         2342.11 
       0.159709         2462.79         2160.63         2160.63 
       0.165845         2379.03         2033.64         2033.64 
       0.171974         2266.21          1942.8          1942.8 
       0.178125         2160.71         1867.26         1867.26 
       0.184229         2058.45         1789.84         1789.84 
        0.19034         1946.85         1699.71         1699.71 
       0.196428          1889.2         1596.83         1596.83 
       0.202534         1803.38         1487.59         1487.59 
       0.208729         1710.49         1381.02         1381.02 
       0.214876         1641.85         1288.32         1288.32 
       0.220989         1580.05         1213.32         1213.32 
       0.227147         1519.98         1154.43         1154.43 
        0.23329         1460.72         1107.85         1107.85 
       0.239377         1436.74         1067.58         1067.58 
       0.245482         1347.82         1027.56         1027.56 
       0.251667         1337.83         984.017         984.017 
       0.257832         1280.32         936.991         936.991 
       0.263955         1234.57         888.599         888.599 
       0.270079         1189.82         841.485         841.485 
        0.27624         1172.81         798.132         798.132 
       0.282372         1124.76         760.651         760.651 
        0.28843         1117.14         729.189         729.189 
       0.294538         1060.37         701.995         701.995 
       0.300721         1052.17         677.249         677.249 
        0.30691         1012.38         653.481         653.481 
       0.313033         990.542         629.706         629.706 
       0.319153          973.02         605.328         605.328 
       0.325316         941.501           580.5           580.5 
        0.33145         919.491         556.339         556.339 
       0.337538         899.422         533.699         533.699 
       0.343633         880.954         512.989         512.989 
       0.349808         849.468         494.088         494.088 
       0.355968         842.594         477.123         477.123 
       0.362074         834.587         461.621         461.621 
       0.368217          806.95           446.8           446.8 
       0.374374         776.419         432.301         432.301 
       0.380519         777.636         417.925         417.925 
       0.386598         753.053         403.871         403.871 
       0.392688         749.593         390.109         390.109 
        0.39888         727.373         376.678         376.678 
       0.405048         718.337          364.09          364.09 
       0.411186         708.073         352.399         352.399 
       0.417313         693.288          341.52          341.52 
       0.423458         678.477         331.296         331.296 
       0.429607         671.956         321.557         321.557 
       0.435692         655.798         312.247         312.247 
       0.441815         648.623         303.133         303.133 
       0.447964         635.971         294.199         294.199 
       0.454126          630.51         285.475         285.475 
       0.460267         613.784         277.082         277.082 
       0.466387         606.088         269.082         269.082 
        0.47254         603.036         261.421         261.421 
       0.478662         595.166         254.168         254.168 
       0.484765         576.465         247.289         247.289 
       0.490885         572.335         240.695         240.695 
       0.497035         560.626         234.313         234.313 
       0.503198         556.428         228.116         228.116 
       0.509342         551.666          222.12          222.12 
       0.515458         547.378         216.336         216.336 
       0.521598         532.152         210.717         210.717 
       0.527764         524.855         205.267         205.267 
       0.533884         520.851         200.056         200.056 
           0.54          515.51         195.049         195.049 
       0.546137         510.442         190.226         190.226 
       0.552299         503.633         185.566         185.566 
       0.558452         499.074         181.078         181.078 
       0.564573         493.599         176.754         176.754 
       0.570708         486.679         172.549         172.549 
       0.576825         475.153         168.484         168.484 
       0.582926         475.513         164.557         164.557 
       0.589034         469.947         160.749         160.749 
       0.595184         466.263         157.039         157.039 
       0.601379         458.148         153.425         153.425 
       0.607522         452.548         149.956         149.956 
       0.613639           450.4         146.612         146.612 
       0.619772         443.165         143.364         143.364 
       0.625918         440.237         140.211         140.211 
       0.632068         433.288         137.152         137.152 
       0.638161         430.803         134.212         134.212 
         0.6443         424.881         131.337         131.337 
       0.650464         422.221         128.535         128.535 
       0.656582         416.999         125.834         125.834 
       0.662703         416.356         123.208         123.208 
       0.668861         410.198         120.643         120.643 
       0.675024         406.261         118.149         118.149 
       0.681124         402.537         115.751         115.751 
       0.687237         399.528         113.416         113.416 
       0.693381         393.372         111.136         111.136 
       0.699536         387.883         108.915         108.915 
       0.705665          386.51         106.765         106.765 
       0.711789         384.939         104.676         104.676 
       0.717957         381.185         102.628         102.628 
        0.72409         379.327         100.647         100.647 
       0.730186         373.577         98.7302         98.7302 
       0.736317         371.036         96.8528         96.8528 
       0.742472         367.958         95.0172         95.0172 
       0.748622         364.603          93.231          93.231 
        0.75476         359.402         91.4947         91.4947 
       0.760888         355.997         89.8052         89.8052 
       0.767043         355.983         88.1519         88.1519 
       0.773185         352.711         86.5437         86.5437 
       0.779291         348.249         84.9849         84.9849 
       0.785407         346.523         83.4625         83.4625 
       0.791564         342.681         81.9679         81.9679 
       0.797719         340.716         80.5107         80.5107 
       0.803834         335.959         79.0984         79.0984 
       0.809972         335.739          77.715          77.715 
       0.816124         334.159         76.3618         76.3618 
       0.822261         330.389         75.0446         75.0446 
       0.828378         328.055         73.7625         73.7625 
       0.834502         323.998         72.5093         72.5093 
       0.840667         322.091         71.2773         71.2773 
       0.846816         320.541         70.0775         70.0775 
       0.852925         318.545         68.9129         68.9129 
       0.859047         316.017         67.7725         67.7725 
       0.865192         312.106         66.6542         66.6542 
       0.871341         309.514         65.5605         65.5605 
       0.877463         309.739         64.4963         64.4963 
       0.883569         306.482         63.4586         63.4586 
       0.889708         303.937         62.4384         62.4384 
       0.895864         303.595         61.4381         61.4381 
       0.902008         300.302         60.4619         60.4619 
       0.908149           296.5         59.5076         59.5076 
       0.914301         294.832         58.5723         58.5723 
       0.920448         293.036         57.6581         57.6581 
       0.926574         289.415         56.7666         56.7666 
       0.932687         288.844         55.8959         55.8959 
       0.938823         285.762         55.0404         55.0404 
       0.944975         285.891         54.2009         54.2009 
       0.951105         282.925         53.3819         53.3819 
       0.957225         281.149         52.5812         52.5812 
       0.963368         277.281         51.7943         51.7943 
       0.969511         276.664         51.0235         51.0235 
       0.975621         275.054         50.2725         50.2725 
       0.981748         272.978         49.5347         49.5347 
       0.987916          271.67         48.8071         48.8071 
        0.99406         268.575         48.0968         48.0968 
        1.00019         266.583         47.4021         47.4021 
        1.00632         265.714         46.7218         46.7218 
        1.01246         263.403         46.0539         46.0539 
        1.01859         263.247         45.4001         45.4001 
        1.02471         259.379         44.7598         44.7598 
        1.03085          258.39         44.1296         44.1296 
        1.03698         256.747          43.513          43.513 
        1.04314         255.049         42.9055         42.9055 
        1.04929         253.181          42.311          42.311 
        1.05541         252.772         41.7302         41.7302 
        1.06154         249.042         41.1589         41.1589 
        1.06769         248.649         40.5974         40.5974 
        1.07382         246.415         40.0482         40.0482 
        1.07993         245.163         39.5104         39.5104 
        1.08607         244.548         38.9803         38.9803 
        1.09222         241.669         38.4594         38.4594 
        1.09836         239.945         37.9487         37.9487 
        1.10449         238.331         37.4478         37.4478 
        1.11063         236.099         36.9555         36.9555 
        1.11677         235.774         36.4721         36.4721 
         1.1229         233.375         35.9983         35.9983 
        1.12903         232.516         35.5325         35.5325 
        1.13518         230.807         35.0745         35.0745 
        1.14131         229.152         34.6249         34.6249 
        1.14745          228.78         34.1834         34.1834 
        1.15359         226.815         33.7495         33.7495 
        1.15973         224.932          33.323          33.323 
        1.16584           223.6         32.9058         32.9058 
        1.17197         223.526         32.4951         32.4951 
        1.17811          220.53         32.0901         32.0901 
        1.18424          219.38         31.6933         31.6933 
        1.19038         218.558          31.302          31.302 
        1.19652          216.45         30.9175         30.9175 
        1.20267         216.502         30.5394         30.5394 
        1.20881         214.085         30.1678         30.1678 
        1.21495         213.044         29.8029         29.8029 
        1.22108         211.561         29.4441         29.4441 
         1.2272         210.208          29.092          29.092 
        1.23334         209.944         28.7449         28.7449 
        1.23949         207.177         28.4026         28.4026 
        1.24562           206.5         28.0669         28.0669 
        1.25174         205.603          27.737          27.737 
        1.25789         204.198         27.4115         27.4115 
        1.26402         202.126         27.0917         27.0917 
        1.27014         201.265         26.7778         26.7778 
        1.27628         199.623          26.468          26.468 
        1.28244         199.548         26.1624         26.1624 
        1.28858          197.68         25.8621         25.8621 
        1.29471         196.971         25.5671         25.5671 
        1.30084         194.933          25.277          25.277 
        1.30697         193.988          24.991          24.991 
        1.31312          192.45          24.709          24.709 
        1.31925         191.014         24.4322         24.4322 
        1.32537         190.958           24.16           24.16 
        1.33151          189.12         23.8909         23.8909 
        1.33765          187.69         23.6261         23.6261 
        1.34378         187.037         23.3658         23.3658 
        1.34992         186.193         23.1092         23.1092 
        1.35606         185.518          22.856          22.856 
         1.3622         183.233         22.6069         22.6069 
        1.36833         182.541         22.3622         22.3622 
        1.37445         181.421         22.1212         22.1212 
        1.38059         180.197         21.8831         21.8831 
        1.38675         179.571         21.6479         21.6479 
        1.39288         178.464          21.417          21.417 
        1.39901         177.056         21.1896         21.1896 
        1.40515          176.27          20.965          20.965 
         1.4113         175.185         20.7438         20.7438 
        1.41742         173.859         20.5266         20.5266 
        1.42355         173.018         20.3121         20.3121 
         1.4297         171.649            20.1            20.1 
        1.43585         170.731          19.891          19.891 
        1.44198         170.452         19.6858         19.6858 
        1.44809         169.004         19.4838         19.4838 
        1.45423         168.337          19.284          19.284 
        1.46036         166.932         19.0873         19.0873 
        1.46649           166.1         18.8933         18.8933 
        1.47263          165.21         18.7018         18.7018 
        1.47877         163.911          18.513          18.513 
        1.48491         162.518         18.3266         18.3266 
        1.49104         162.295         18.1431         18.1431 
        1.49718         160.559          17.962          17.962 
        1.50333          160.01          17.783          17.783 
        1.50947         158.774         17.6069         17.6069 
         1.5156         158.044         17.4334         17.4334 
        1.52172         157.298         17.2622         17.2622 
        1.52787         155.806          17.093          17.093 
          1.534         155.491         16.9262         16.9262 
        1.54013         154.325         16.7618         16.7618 
        1.54627         153.424         16.5993         16.5993 
        1.55241         152.346          16.439          16.439 
        1.55855         151.416          16.281          16.281 
        1.56467         150.409         16.1254         16.1254 
         1.5708         149.508         15.9715         15.9715 
        1.57695         149.295         15.8194         15.8194 
        1.58308         148.032         15.6695         15.6695 
        1.58922         147.223         15.5216         15.5216 
        1.59535         146.239         15.3755         15.3755 
         1.6015         145.339         15.2312         15.2312 
        1.60764         144.821         15.0887         15.0887 
        1.61376         143.816         14.9485         14.9485 
        1.61989         142.924           14.81           14.81 
        1.62604         141.935         14.6728         14.6728 
        1.63218         141.465         14.5375         14.5375 
        1.63831         140.275         14.4043         14.4043 
        1.64444         139.538         14.2726         14.2726 
        1.65059         138.826         14.1422         14.1422 
        1.65673         138.143         14.0137         14.0137 
        1.66285          137.08          13.887          13.887 
        1.66898         136.481         13.7619         13.7619 
        1.67512         135.487         13.6381         13.6381 
        1.68127         134.689         13.5157         13.5157 
         1.6874         134.231         13.3951         13.3951 
        1.69353         133.145          13.276          13.276 
        1.69967         132.212         13.1581         13.1581 
        1.70581         131.528         13.0416         13.0416 
        1.71193         130.594          12.927          12.927 
        1.71806         130.204         12.8135         12.8135 
        1.72421         129.481         12.7012         12.7012 
        1.73035         128.823         12.5903         12.5903 
        1.73649         127.951         12.4808         12.4808 
        1.74262         127.353         12.3727         12.3727 
        1.74876         126.228         12.2658         12.2658 
        1.75489         125.749         12.1603         12.1603 
        1.76101         124.667         12.0561         12.0561 
        1.76715          124.42          11.953          11.953 
        1.77329         123.366          11.851          11.851 
        1.77943         123.078         11.7501         11.7501 
        1.78557          122.42         11.6506         11.6506 
        1.79171         121.449         11.5521         11.5521 
        1.79785         120.835         11.4548         11.4548 
        1.80399         120.163         11.3586         11.3586 
        1.81012         119.636         11.2637         11.2637 
        1.81625         118.993         11.1699         11.1699 
        1.82239         118.224          11.077          11.077 
        1.82853         117.355         10.9852         10.9852 
        1.83466         116.913         10.8945         10.8945 
        1.84078          116.11         10.8049         10.8049 
        1.84692          115.22         10.7162         10.7162 
        1.85306         115.114         10.6284         10.6284 
         1.8592         114.161         10.5417         10.5417 
        1.86533         113.763          10.456          10.456 
        1.87147         112.856         10.3712         10.3712 
        1.87761         111.992         10.2873         10.2873 
