# k  (h/Mpc)    P(k)  (Mpc/h)^3    P_linear(k)  (Mpc/h)^3     P_NL(k)  ShotnoiseSubtracted = false
     0.00783031         17394.4         17651.3         17651.3 
       0.013688         20739.3         20523.7         20523.7 
       0.019231         19855.4         19785.4         19785.4 
      0.0249154         17120.2         17463.5         17463.5 
      0.0312784         14345.7         14465.1         14465.1 
      0.0375637         12001.3         11948.3         11948.3 
      0.0433917         10134.7         10261.9         10261.9 
      0.0492413          9109.9         9131.36         9131.36 
      0.0555754          8109.7         8321.19         8321.19 
      0.0619321         7737.02         7682.28         7682.28 
       0.067871         6922.72         7068.99         7068.99 
      0.0738098         6259.78         6374.66         6374.66 
      0.0800417         5459.35         5591.06         5591.06 
      0.0862327         4819.56         4845.36         4845.36 
      0.0921407         4328.65         4242.85         4242.85 
      0.0982031         3836.64         3775.41         3775.41 
       0.104506         3613.71         3445.45         3445.45 
       0.110769         3368.16         3232.19         3232.19 
       0.116806         3192.39         3078.98         3078.98 
       0.122832         3037.75         2927.41         2927.41 
       0.129052         2791.61          2740.8          2740.8 
       0.135211         2599.46         2521.48         2521.48 
       0.141259          2441.9         2290.68         2290.68 
       0.147318          2263.1         2070.71         2070.71 
       0.153489         2056.54         1880.88         1880.88 
       0.159709         1940.29         1735.14         1735.14 
       0.165845         1867.84         1633.16         1633.16 
       0.171974         1776.48          1560.2          1560.2 
       0.178125         1696.16         1499.55         1499.55 
       0.184229         1620.94         1437.37         1437.37 
        0.19034         1521.73         1364.99         1364.99 
       0.196428          1477.5         1282.37         1282.37 
       0.202534         1411.33         1194.64         1194.64 
       0.208729         1332.77         1109.06         1109.06 
       0.214876         1270.16         1034.61         1034.61 
       0.220989         1222.19         974.383         974.383 
       0.227147         1171.52         927.091         927.091 
        0.23329         1125.74         889.685         889.685 
       0.239377         1104.62         857.344         857.344 
       0.245482         1033.03         825.208         825.208 
       0.251667         1024.21         790.237         790.237 
       0.257832         980.226         752.472         752.472 
       0.263955         944.842         713.609         713.609 
       0.270079         907.965         675.774         675.774 
        0.27624         895.058         640.958         640.958 
       0.282372         857.762         610.858         610.858 
        0.28843         845.785         585.592         585.592 
       0.294538          801.82         563.753         563.753 
       0.300721         796.869          543.88          543.88 
        0.30691         763.013         524.793         524.793 
       0.313033         747.009           505.7           505.7 
       0.319153         729.479         486.122         486.122 
       0.325316         706.318         466.184         466.184 
        0.33145         687.424         446.781         446.781 
       0.337538         674.187         428.599         428.599 
       0.343633         656.337         411.968         411.968 
       0.349808          632.08         396.789         396.789 
       0.355968         627.267         383.165         383.165 
       0.362074         619.272         370.716         370.716 
       0.368217         600.061         358.813         358.813 
       0.374374         574.161         347.169         347.169 
       0.380519         573.715         335.624         335.624 
       0.386598         556.734         324.338         324.338 
       0.392688          553.81         313.286         313.286 
        0.39888          537.19           302.5           302.5 
       0.405048         527.487         292.391         292.391 
       0.411186         519.641         283.002         283.002 
       0.417313         508.827         274.266         274.266 
       0.423458         497.995         266.055         266.055 
       0.429607          491.48         258.234         258.234 
       0.435692         478.957         250.757         250.757 
       0.441815         474.064         243.438         243.438 
       0.447964         463.687         236.263         236.263 
       0.454126         456.459         229.257         229.257 
       0.460267         446.106         222.517         222.517 
       0.466387         440.811         216.093         216.093 
        0.47254         434.245          209.94          209.94 
       0.478662         431.516         204.115         204.115 
       0.484765         416.311         198.591         198.591 
       0.490885         412.841         193.295         193.295 
       0.497035         404.564         188.171         188.171 
       0.503198         400.139         183.194         183.194 
       0.509342         397.082         178.379         178.379 
       0.515458         392.855         173.734         173.734 
       0.521598         382.055         169.221         169.221 
       0.527764         376.368         164.845         164.845 
       0.533884         373.499         160.659         160.659 
           0.54         368.509         156.639         156.639 
       0.546137         366.162         152.765         152.765 
       0.552299         359.296         149.024         149.024 
       0.558452         357.136         145.419         145.419 
       0.564573         352.408         141.946         141.946 
       0.570708         346.196          138.57          138.57 
       0.576825         338.397         135.305         135.305 
       0.582926         337.128         132.151         132.151 
       0.589034         333.663         129.093         129.093 
       0.595184         330.864         126.114         126.114 
       0.601379         325.051         123.212         123.212 
       0.607522         321.019         120.426         120.426 
       0.613639         319.022          117.74          117.74 
       0.619772          312.58         115.132         115.132 
       0.625918           311.3           112.6           112.6 
       0.632068         305.793         110.143         110.143 
       0.638161         304.391         107.782         107.782 
         0.6443         299.517         105.474         105.474 
       0.650464         296.726         103.223         103.223 
       0.656582         293.745         101.054         101.054 
       0.662703         293.247         98.9455         98.9455 
       0.668861         288.358         96.8852         96.8852 
       0.675024         284.959         94.8822         94.8822 
       0.681124          282.48         92.9566         92.9566 
       0.687237         279.768         91.0815         91.0815 
       0.693381         275.493         89.2503         89.2503 
       0.699536         272.565         87.4669         87.4669 
       0.705665          270.27         85.7404         85.7404 
       0.711789         268.982         84.0625         84.0625 
       0.717957         266.707         82.4182         82.4182 
        0.72409         264.429         80.8271         80.8271 
       0.730186         260.769         79.2877         79.2877 
       0.736317         258.317         77.7799         77.7799 
       0.742472         256.392         76.3058         76.3058 
       0.748622         254.154         74.8714         74.8714 
        0.75476         251.091          73.477          73.477 
       0.760888         248.473         72.1202         72.1202 
       0.767043         248.448         70.7925         70.7925 
       0.773185         245.708          69.501          69.501 
       0.779291         241.582         68.2492         68.2492 
       0.785407         240.969         67.0265         67.0265 
       0.791564         238.047         65.8262         65.8262 
       0.797719         235.604          64.656          64.656 
       0.803834         233.448         63.5218         63.5218 
       0.809972         232.852         62.4109         62.4109 
       0.816124         231.762         61.3242         61.3242 
       0.822261         229.379         60.2663         60.2663 
       0.828378         227.033         59.2367         59.2367 
       0.834502          225.45         58.2303         58.2303 
       0.840667         223.315         57.2409         57.2409 
       0.846816         221.722         56.2774         56.2774 
       0.852925          220.47         55.3421         55.3421 
       0.859047         218.631         54.4263         54.4263 
       0.865192         215.645         53.5282         53.5282 
       0.871341         214.053         52.6499         52.6499 
       0.877463         213.244         51.7953         51.7953 
       0.883569         212.119         50.9619         50.9619 
       0.889708          209.52         50.1427         50.1427 
       0.895864         208.055         49.3394         49.3394 
       0.902008         206.493         48.5554         48.5554 
       0.908149          205.26          47.789          47.789 
       0.914301         202.594         47.0379         47.0379 
       0.920448         201.638         46.3037         46.3037 
       0.926574         199.642         45.5878         45.5878 
       0.932687         199.634         44.8885         44.8885 
       0.938823         197.099         44.2015         44.2015 
       0.944975         196.382         43.5273         43.5273 
       0.951105         194.958         42.8696         42.8696 
       0.957225         193.597         42.2266         42.2266 
       0.963368         190.722         41.5946         41.5946 
       0.969511         190.093         40.9756         40.9756 
       0.975621         188.289         40.3725         40.3725 
       0.981748         188.018           39.78           39.78 
       0.987916         186.453         39.1957         39.1957 
        0.99406         184.516         38.6253         38.6253 
        1.00019         183.947         38.0674         38.0674 
        1.00632         182.448         37.5211         37.5211 
        1.01246         181.097         36.9847         36.9847 
        1.01859         181.029         36.4596         36.4596 
        1.02471         178.205         35.9454         35.9454 
        1.03085         177.016         35.4394         35.4394 
        1.03698         176.002         34.9441         34.9441 
        1.04314         174.415         34.4563         34.4563 
        1.04929         173.772         33.9789         33.9789 
        1.05541           173.3         33.5124         33.5124 
        1.06154         171.156         33.0536         33.0536 
        1.06769         170.854         32.6027         32.6027 
        1.07382          169.27         32.1616         32.1616 
        1.07993         167.899         31.7298         31.7298 
        1.08607          167.61         31.3041         31.3041 
        1.09222         166.326         30.8858         30.8858 
        1.09836         164.997         30.4756         30.4756 
        1.10449         163.249         30.0734         30.0734 
        1.11063         162.014          29.678          29.678 
        1.11677         161.457         29.2898         29.2898 
         1.1229         160.177         28.9093         28.9093 
        1.12903         159.561         28.5352         28.5352 
        1.13518         158.439         28.1674         28.1674 
        1.14131         156.893         27.8063         27.8063 
        1.14745         156.952         27.4518         27.4518 
        1.15359          155.48         27.1034         27.1034 
        1.15973         154.181         26.7608         26.7608 
        1.16584         153.263         26.4258         26.4258 
        1.17197         152.895         26.0959         26.0959 
        1.17811          151.18         25.7708         25.7708 
        1.18424          150.63         25.4521         25.4521 
        1.19038         150.195         25.1378         25.1378 
        1.19652         148.722          24.829          24.829 
        1.20267         148.314         24.5254         24.5254 
        1.20881         147.026         24.2269         24.2269 
        1.21495         146.089         23.9339         23.9339 
        1.22108         145.124         23.6458         23.6458 
         1.2272         144.054          23.363          23.363 
        1.23334         143.802         23.0843         23.0843 
        1.23949         142.426         22.8094         22.8094 
        1.24562         141.671         22.5398         22.5398 
        1.25174         140.888         22.2749         22.2749 
        1.25789         139.977         22.0134         22.0134 
        1.26402         138.466         21.7566         21.7566 
        1.27014         137.607         21.5046         21.5046 
        1.27628         137.221         21.2557         21.2557 
        1.28244         136.978         21.0103         21.0103 
        1.28858         135.637         20.7692         20.7692 
        1.29471         134.547         20.5323         20.5323 
        1.30084         134.179         20.2993         20.2993 
        1.30697         132.664         20.0696         20.0696 
        1.31312         132.076         19.8432         19.8432 
        1.31925         131.216         19.6209         19.6209 
        1.32537         130.969         19.4022         19.4022 
        1.33151         129.733         19.1862         19.1862 
        1.33765         128.819         18.9735         18.9735 
        1.34378         128.337         18.7644         18.7644 
        1.34992         127.791         18.5584         18.5584 
        1.35606         127.467          18.355          18.355 
         1.3622         126.031          18.155          18.155 
        1.36833         125.145         17.9585         17.9585 
        1.37445          124.68          17.765          17.765 
        1.38059         123.714         17.5737         17.5737 
        1.38675         123.189         17.3848         17.3848 
        1.39288         122.577         17.1994         17.1994 
        1.39901         122.153         17.0168         17.0168 
        1.40515          120.83         16.8365         16.8365 
         1.4113         120.432         16.6588         16.6588 
        1.41742         119.407         16.4844         16.4844 
        1.42355         118.934         16.3121         16.3121 
         1.4297         118.211         16.1418         16.1418 
        1.43585         117.394         15.9739         15.9739 
        1.44198         116.909         15.8091         15.8091 
        1.44809         116.357          15.647          15.647 
        1.45423          115.84         15.4865         15.4865 
        1.46036         114.798         15.3285         15.3285 
        1.46649         113.988         15.1727         15.1727 
        1.47263         113.343         15.0189         15.0189 
        1.47877         112.734         14.8673         14.8673 
        1.48491         111.749         14.7176         14.7176 
        1.49104         111.655         14.5702         14.5702 
        1.49718         110.756         14.4248         14.4248 
        1.50333         110.124         14.2811         14.2811 
        1.50947         109.533         14.1396         14.1396 
         1.5156         108.951         14.0003         14.0003 
        1.52172         108.233         13.8628         13.8628 
        1.52787         107.523         13.7269         13.7269 
          1.534         107.117          13.593          13.593 
        1.54013         106.533          13.461          13.461 
        1.54627         105.902         13.3305         13.3305 
        1.55241          105.16         13.2017         13.2017 
        1.55855         104.561         13.0748         13.0748 
        1.56467          104.01         12.9499         12.9499 
         1.5708         103.171         12.8263         12.8263 
        1.57695         102.973         12.7041         12.7041 
        1.58308         102.433         12.5838         12.5838 
        1.58922         101.974          12.465          12.465 
        1.59535         101.211         12.3477         12.3477 
         1.6015         100.864         12.2318         12.2318 
        1.60764         100.139         12.1174         12.1174 
        1.61376         99.6228         12.0048         12.0048 
        1.61989         98.9305         11.8935         11.8935 
        1.62604         98.3138         11.7834         11.7834 
        1.63218         98.2086         11.6747         11.6747 
        1.63831          97.318         11.5677         11.5677 
        1.64444         96.8014         11.4619         11.4619 
        1.65059         96.2443         11.3573         11.3573 
        1.65673         95.5799          11.254          11.254 
        1.66285         95.2722         11.1523         11.1523 
        1.66898         94.7536         11.0518         11.0518 
        1.67512         94.0781         10.9524         10.9524 
        1.68127         93.6526         10.8541         10.8541 
         1.6874         92.9882         10.7572         10.7572 
        1.69353         92.6401         10.6616         10.6616 
        1.69967         92.2715         10.5669         10.5669 
        1.70581          91.508         10.4734         10.4734 
        1.71193         91.0201         10.3813         10.3813 
        1.71806         90.6844         10.2902         10.2902 
        1.72421         90.0649            10.2            10.2 
        1.73035         89.7742          10.111          10.111 
        1.73649         89.2725          10.023          10.023 
        1.74262         88.5769         9.93618         9.93618 
        1.74876         88.2481         9.85031         9.85031 
        1.75489         87.6082         9.76563         9.76563 
        1.76101         87.0504         9.68197         9.68197 
        1.76715         86.6092         9.59917         9.59917 
        1.77329         86.3338         9.51724         9.51724 
        1.77943         85.5918         9.43622         9.43622 
        1.78557         85.3941         9.35627         9.35627 
        1.79171         84.5736         9.27722         9.27722 
        1.79785         84.2049         9.19907         9.19907 
        1.80399         83.7416         9.12184         9.12184 
        1.81012         83.3319         9.04559         9.04559 
        1.81625          82.975         8.97024         8.97024 
        1.82239         82.4812         8.89563         8.89563 
        1.82853         81.9664         8.82191         8.82191 
        1.83466           81.51         8.74909         8.74909 
        1.84078         81.1177         8.67717         8.67717 
        1.84692         80.6159         8.60594         8.60594 
        1.85306         80.2511         8.53541         8.53541 
         1.8592         79.8722         8.46579         8.46579 
        1.86533         79.3142         8.39698         8.39698 
        1.87147         78.8106         8.32885         8.32885 
        1.87761         78.3946         8.26145         8.26145 
