# k  (h/Mpc)    Pcb(k)  (Mpc/h)^3    Pcb_linear(k) (Mpc/h)^3    Pcb_NL(k) (Mpc/h)^3   ShotnoiseSubtracted = false
     0.00783031         20504.8         20818.6         20818.6 
       0.013688           24481         24199.7         24199.7 
       0.019231           23411         23327.3         23327.3 
      0.0249154         20142.5           20589           20589 
      0.0312784         16886.5         17053.6         17053.6 
      0.0375637         14143.3         14086.2         14086.2 
      0.0433917         11925.4         12097.9         12097.9 
      0.0492413         10729.8         10765.1         10765.1 
      0.0555754         9529.68         9809.94         9809.94 
      0.0619321         9113.48          9056.7          9056.7 
       0.067871         8135.83         8333.67         8333.67 
      0.0738098         7361.36          7515.1          7515.1 
      0.0800417         6418.62         6591.31         6591.31 
      0.0862327         5676.85         5712.19         5712.19 
      0.0921407         5113.91         5001.89         5001.89 
      0.0982031         4536.21         4450.81         4450.81 
       0.104506         4280.96         4061.83         4061.83 
       0.110769         3988.94         3810.42         3810.42 
       0.116806         3785.38         3629.79         3629.79 
       0.122832         3597.39         3451.11         3451.11 
       0.129052         3303.05         3231.11         3231.11 
       0.135211         3078.78         2972.56         2972.56 
       0.141259         2901.85         2700.47         2700.47 
       0.147318         2697.26         2441.15         2441.15 
       0.153489         2453.69         2217.35         2217.35 
       0.159709         2317.98         2045.54         2045.54 
       0.165845         2236.71         1925.32         1925.32 
       0.171974         2129.71         1839.31         1839.31 
       0.178125         2031.28          1767.8          1767.8 
       0.184229         1937.12         1694.51         1694.51 
        0.19034         1827.59         1609.18         1609.18 
       0.196428         1773.98         1511.77         1511.77 
       0.202534         1693.86         1408.35         1408.35 
       0.208729         1604.45         1307.45         1307.45 
       0.214876         1536.73          1219.7          1219.7 
       0.220989         1478.84         1148.69         1148.69 
       0.227147         1421.15         1092.94         1092.94 
        0.23329         1365.65         1048.84         1048.84 
       0.239377         1342.26         1010.72         1010.72 
       0.245482         1257.82         972.831         972.831 
       0.251667         1248.23         931.602         931.602 
       0.257832         1194.39         887.082         887.082 
       0.263955         1151.69         841.267         841.267 
       0.270079         1108.93         796.663         796.663 
        0.27624         1093.29         755.622         755.622 
       0.282372         1048.15         720.135         720.135 
        0.28843          1038.9          690.35          690.35 
       0.294538         985.535         664.603         664.603 
       0.300721         978.571         641.175         641.175 
        0.30691         940.037         618.673         618.673 
       0.313033         920.017         596.166         596.166 
       0.319153         902.129         573.086         573.086 
       0.325316         873.027         549.579         549.579 
        0.33145         851.818         526.706         526.706 
       0.337538         833.909         505.273         505.273 
       0.343633         815.266         485.664         485.664 
       0.349808         785.631         467.773         467.773 
       0.355968         779.512         451.709         451.709 
       0.362074         771.491         437.033         437.033 
       0.368217         746.393         423.002         423.002 
       0.374374         716.697         409.271         409.271 
       0.380519         717.482         395.665         395.665 
       0.386598         695.191         382.359         382.359 
       0.392688         692.025          369.33          369.33 
        0.39888         671.287         356.615         356.615 
       0.405048         661.817         344.696         344.696 
       0.411186         652.391         333.629         333.629 
       0.417313         638.741         323.329         323.329 
       0.423458         625.037         313.649         313.649 
       0.429607         618.486         304.429         304.429 
       0.435692         603.241         295.616         295.616 
       0.441815         596.789         286.987         286.987 
       0.447964          584.67         278.528         278.528 
       0.454126         578.687         270.269         270.269 
       0.460267         563.794         262.324         262.324 
       0.466387         556.944         254.749         254.749 
        0.47254          552.35         247.496         247.496 
       0.478662         546.406          240.63          240.63 
       0.484765         528.405         234.117         234.117 
       0.490885         524.519         227.874         227.874 
       0.497035         513.815         221.832         221.832 
       0.503198         509.632         215.966         215.966 
       0.509342         505.483         210.289         210.289 
       0.515458          501.09         204.813         204.813 
       0.521598         487.004         199.493         199.493 
       0.527764         480.145         194.334         194.334 
       0.533884         476.581           189.4           189.4 
           0.54         471.164          184.66          184.66 
       0.546137         467.169         180.093         180.093 
       0.552299         460.123         175.682         175.682 
       0.558452         456.455         171.433         171.433 
       0.564573         451.139         167.339         167.339 
       0.570708         444.438         163.358         163.358 
       0.576825         433.705          159.51          159.51 
       0.582926         433.636         155.791         155.791 
       0.589034         428.825         152.187         152.187 
       0.595184         425.489         148.675         148.675 
       0.601379         417.794         145.253         145.253 
       0.607522         412.825         141.969         141.969 
       0.613639         410.775         138.803         138.803 
       0.619772         403.571         135.728         135.728 
       0.625918         401.251         132.743         132.743 
       0.632068         394.601         129.847         129.847 
       0.638161         392.538         127.064         127.064 
         0.6443         386.836         124.342         124.342 
       0.650464         384.016         121.689         121.689 
       0.656582         379.619         119.131         119.131 
       0.662703         379.054         116.646         116.646 
       0.668861         373.237         114.217         114.217 
       0.675024         369.525         111.856         111.856 
       0.681124         366.058         109.586         109.586 
       0.687237         363.033         107.375         107.375 
       0.693381         357.509         105.216         105.216 
       0.699536         352.869         103.114         103.114 
       0.705665         351.098         101.078         101.078 
       0.711789         349.749         99.1004         99.1004 
       0.717957         346.357          97.162          97.162 
        0.72409         344.394         95.2863         95.2863 
       0.730186         339.193         93.4714         93.4714 
       0.736317          336.64         91.6939         91.6939 
       0.742472         334.002         89.9562         89.9562 
       0.748622         330.978         88.2651         88.2651 
        0.75476         326.412         86.6212         86.6212 
       0.760888         323.209         85.0218         85.0218 
       0.767043         323.239         83.4565         83.4565 
       0.773185         320.098          81.934          81.934 
       0.779291         315.641         80.4582         80.4582 
       0.785407         314.447         79.0169         79.0169 
       0.791564         310.703         77.6019         77.6019 
       0.797719         308.553         76.2223         76.2223 
       0.803834         304.626         74.8852         74.8852 
       0.809972         304.321         73.5755         73.5755 
       0.816124         302.877         72.2944         72.2944 
       0.822261         299.609         71.0473         71.0473 
       0.828378         297.179         69.8335         69.8335 
       0.834502         293.862         68.6471         68.6471 
       0.840667         292.018         67.4807         67.4807 
       0.846816         290.469         66.3448         66.3448 
       0.852925         288.604         65.2423         65.2423 
       0.859047         286.246         64.1626         64.1626 
       0.865192         282.618         63.1039         63.1039 
       0.871341         280.312         62.0684         62.0684 
       0.877463         280.357          61.061          61.061 
       0.883569         277.724         60.0785         60.0785 
       0.889708         274.953         59.1127         59.1127 
       0.895864         274.277         58.1657         58.1657 
       0.902008         271.506         57.2414         57.2414 
       0.908149         268.604         56.3379         56.3379 
       0.914301           266.5         55.4525         55.4525 
       0.920448         264.927         54.5869         54.5869 
       0.926574          261.77          53.743          53.743 
       0.932687         261.503         52.9186         52.9186 
       0.938823         258.591         52.1087         52.1087 
       0.944975         258.446         51.3139         51.3139 
       0.951105         255.967         50.5385         50.5385 
       0.957225         254.366         49.7805         49.7805 
       0.963368         250.726         49.0355         49.0355 
       0.969511         250.093         48.3057         48.3057 
       0.975621         248.349         47.5947         47.5947 
       0.981748         246.882         46.8962         46.8962 
       0.987916         245.562         46.2074         46.2074 
        0.99406         242.735         45.5349         45.5349 
        1.00019         241.146         44.8773         44.8773 
        1.00632         240.175         44.2332         44.2332 
        1.01246         238.118         43.6008         43.6008 
        1.01859         238.196         42.9818         42.9818 
        1.02471         234.378         42.3757         42.3757 
        1.03085         233.368         41.7791         41.7791 
        1.03698         231.995         41.1953         41.1953 
        1.04314         230.172         40.6201         40.6201 
        1.04929         228.777         40.0573         40.0573 
        1.05541         228.393         39.5074         39.5074 
        1.06154         225.095         38.9665         38.9665 
        1.06769         224.673         38.4349         38.4349 
        1.07382         222.733          37.915          37.915 
        1.07993         221.364         37.4059         37.4059 
        1.08607         220.972          36.904          36.904 
        1.09222         218.529         36.4109         36.4109 
        1.09836         216.996         35.9274         35.9274 
        1.10449         215.222         35.4532         35.4532 
        1.11063         213.412          34.987          34.987 
        1.11677         212.865         34.5295         34.5295 
         1.1229         210.796         34.0809         34.0809 
        1.12903         210.076         33.6399         33.6399 
        1.13518         208.617         33.2063         33.2063 
        1.14131         206.876         32.7806         32.7806 
        1.14745          206.85         32.3626         32.3626 
        1.15359         204.879         31.9519         31.9519 
        1.15973         202.977         31.5481         31.5481 
        1.16584         202.015          31.153          31.153 
        1.17197         201.959         30.7642         30.7642 
        1.17811         199.061         30.3809         30.3809 
        1.18424         198.219         30.0052         30.0052 
        1.19038         197.511         29.6347         29.6347 
        1.19652         195.539         29.2707         29.2707 
        1.20267         195.504         28.9127         28.9127 
        1.20881         193.473         28.5609         28.5609 
        1.21495         192.444         28.2154         28.2154 
        1.22108         191.159         27.8757         27.8757 
         1.2272         189.868         27.5424         27.5424 
        1.23334         189.645         27.2138         27.2138 
        1.23949         187.231         26.8898         26.8898 
        1.24562         186.593         26.5719         26.5719 
        1.25174         185.693         26.2596         26.2596 
        1.25789         184.506         25.9514         25.9514 
        1.26402         182.457         25.6487         25.6487 
        1.27014          181.65         25.3515         25.3515 
        1.27628          180.46         25.0582         25.0582 
        1.28244         180.325         24.7689         24.7689 
        1.28858         178.527         24.4845         24.4845 
        1.29471         177.693         24.2053         24.2053 
        1.30084         176.202         23.9307         23.9307 
        1.30697          174.95         23.6599         23.6599 
        1.31312          173.75         23.3929         23.3929 
        1.31925         172.539         23.1309         23.1309 
        1.32537         172.504         22.8731         22.8731 
        1.33151         170.783         22.6184         22.6184 
        1.33765         169.566         22.3676         22.3676 
        1.34378         168.894         22.1212         22.1212 
        1.34992         168.107         21.8783         21.8783 
        1.35606         167.699         21.6385         21.6385 
         1.3622         165.708         21.4028         21.4028 
        1.36833         164.833         21.1711         21.1711 
        1.37445         164.045          20.943          20.943 
        1.38059         162.762         20.7175         20.7175 
        1.38675         162.245         20.4948         20.4948 
        1.39288          161.17         20.2762         20.2762 
        1.39901         160.216          20.061          20.061 
        1.40515         159.089         19.8483         19.8483 
         1.4113         158.312         19.6389         19.6389 
        1.41742         157.003         19.4332         19.4332 
        1.42355          156.41         19.2302         19.2302 
         1.4297         155.088         19.0294         19.0294 
        1.43585         154.347         18.8315         18.8315 
        1.44198          153.87         18.6372         18.6372 
        1.44809         152.838          18.446          18.446 
        1.45423         152.226         18.2568         18.2568 
        1.46036         150.864         18.0706         18.0706 
        1.46649         149.972         17.8869         17.8869 
        1.47263         149.166         17.7056         17.7056 
        1.47877         147.969         17.5269         17.5269 
        1.48491         146.775         17.3504         17.3504 
        1.49104         146.657         17.1767         17.1767 
        1.49718         145.159         17.0052         17.0052 
        1.50333         144.485         16.8358         16.8358 
        1.50947          143.51          16.669          16.669 
         1.5156          142.87         16.5048         16.5048 
        1.52172         142.115         16.3427         16.3427 
        1.52787         140.815         16.1825         16.1825 
          1.534         140.465         16.0246         16.0246 
        1.54013         139.566          15.869          15.869 
        1.54627         138.657         15.7152         15.7152 
        1.55241          137.69         15.5634         15.5634 
        1.55855         137.011         15.4138         15.4138 
        1.56467         135.863         15.2665         15.2665 
         1.5708         135.055         15.1208         15.1208 
        1.57695         134.946         14.9767         14.9767 
        1.58308         133.914         14.8349         14.8349 
        1.58922         133.239         14.6948         14.6948 
        1.59535         132.328         14.5566         14.5566 
         1.6015         131.659         14.4199         14.4199 
        1.60764         131.025          14.285          14.285 
        1.61376         130.085         14.1523         14.1523 
        1.61989         129.199         14.0211         14.0211 
        1.62604         128.303         13.8913         13.8913 
        1.63218         128.035         13.7632         13.7632 
        1.63831         127.038          13.637          13.637 
        1.64444          126.27         13.5124         13.5124 
        1.65059         125.603          13.389          13.389 
        1.65673          124.89         13.2672         13.2672 
        1.66285         124.165         13.1473         13.1473 
        1.66898         123.431         13.0289         13.0289 
        1.67512          122.66         12.9117         12.9117 
        1.68127         121.924         12.7958         12.7958 
         1.6874         121.412         12.6816         12.6816 
        1.69353         120.638         12.5688         12.5688 
        1.69967         119.754         12.4572         12.4572 
        1.70581         119.052          12.347          12.347 
        1.71193         118.337         12.2385         12.2385 
        1.71806         117.935          12.131          12.131 
        1.72421         117.349         12.0247         12.0247 
        1.73035         116.801         11.9197         11.9197 
        1.73649         116.014          11.816          11.816 
        1.74262          115.38         11.7137         11.7137 
        1.74876         114.617         11.6124         11.6124 
        1.75489         113.916         11.5126         11.5126 
        1.76101         113.033          11.414          11.414 
        1.76715         112.756         11.3164         11.3164 
        1.77329         112.012         11.2198         11.2198 
        1.77943         111.576         11.1243         11.1243 
        1.78557         111.067           11.03           11.03 
        1.79171         110.103         10.9368         10.9368 
        1.79785         109.593         10.8447         10.8447 
        1.80399          108.97         10.7536         10.7536 
        1.81012         108.452         10.6637         10.6637 
        1.81625         107.948         10.5749         10.5749 
        1.82239         107.276          10.487          10.487 
        1.82853         106.442         10.4001         10.4001 
        1.83466         105.997         10.3142         10.3142 
        1.84078         105.408         10.2294         10.2294 
        1.84692         104.532         10.1454         10.1454 
        1.85306         104.332         10.0623         10.0623 
         1.8592         103.535         9.98023         9.98023 
        1.86533         103.071         9.89911         9.89911 
        1.87147         102.333          9.8188          9.8188 
