# k  (h/Mpc)    Pcb(k)  (Mpc/h)^3    Pcb_linear(k) (Mpc/h)^3    Pcb_NL(k) (Mpc/h)^3   ShotnoiseSubtracted = false
     0.00783031          9976.1         10107.7         10107.7 
       0.013688           11842         11760.5         11760.5 
       0.019231         11374.6         11339.7         11339.7 
      0.0249154         9870.64         10009.9         10009.9 
      0.0312784         8256.92         8291.73         8291.73 
      0.0375637         6884.42         6849.28         6849.28 
      0.0433917         5840.26         5882.66         5882.66 
      0.0492413         5234.62         5234.66         5234.66 
      0.0555754         4691.37         4770.28         4770.28 
      0.0619321         4441.22         4404.05         4404.05 
       0.067871         4001.89         4052.49         4052.49 
      0.0738098         3612.97         3654.46         3654.46 
      0.0800417         3154.12         3205.26         3205.26 
      0.0862327         2769.63         2777.77         2777.77 
      0.0921407         2466.06         2432.36         2432.36 
      0.0982031         2183.03         2164.39         2164.39 
       0.104506         2041.86         1975.23         1975.23 
       0.110769         1905.55         1852.98         1852.98 
       0.116806         1801.45         1765.15         1765.15 
       0.122832          1719.8         1678.26         1678.26 
       0.129052         1586.18         1571.27         1571.27 
       0.135211         1471.06         1445.54         1445.54 
       0.141259         1368.17         1313.23         1313.23 
       0.147318         1257.94         1187.12         1187.12 
       0.153489         1140.61         1078.29         1078.29 
       0.159709         1069.67          994.74          994.74 
       0.165845         1023.66         936.277         936.277 
       0.171974          969.97         894.454         894.454 
       0.178125         930.071          859.68          859.68 
       0.184229         892.436         824.037         824.037 
        0.19034         831.147         782.542         782.542 
       0.196428         804.324         735.173         735.173 
       0.202534         767.268         684.882         684.882 
       0.208729         718.176         635.815         635.815 
       0.214876         675.402         593.138         593.138 
       0.220989         648.828          558.61          558.61 
       0.227147         616.941         531.498         531.498 
        0.23329         592.909         510.052         510.052 
       0.239377         579.082         491.512         491.512 
       0.245482         540.978         473.088         473.088 
       0.251667         533.388         453.038         453.038 
       0.257832         511.857         431.388         431.388 
       0.263955         490.964         409.109         409.109 
       0.270079         469.687         387.418         387.418 
        0.27624         460.424          367.46          367.46 
       0.282372         441.443         350.202         350.202 
        0.28843           427.9         335.718         335.718 
       0.294538          407.26         323.197         323.197 
       0.300721         403.471         311.804         311.804 
        0.30691          384.53         300.861         300.861 
       0.313033         375.514         289.916         289.916 
       0.319153         361.755         278.692         278.692 
       0.325316         351.464         267.261         267.261 
        0.33145         339.224         256.138         256.138 
       0.337538         333.246         245.715         245.715 
       0.343633         321.638         236.179         236.179 
       0.349808         310.465         227.478         227.478 
       0.355968         306.194         219.667         219.667 
       0.362074         299.175          212.53          212.53 
       0.368217         290.557         205.706         205.706 
       0.374374         278.899         199.029         199.029 
       0.380519         275.412         192.412         192.412 
       0.386598         267.927         185.942         185.942 
       0.392688         264.366         179.606         179.606 
        0.39888         257.095         173.422         173.422 
       0.405048         250.377         167.626         167.626 
       0.411186         245.054         162.244         162.244 
       0.417313         240.114         157.236         157.236 
       0.423458          234.78         152.528         152.528 
       0.429607         229.723         148.044         148.044 
       0.435692          223.04         143.758         143.758 
       0.441815         220.885         139.562         139.562 
       0.447964         216.115         135.449         135.449 
       0.454126         207.914         131.432         131.432 
       0.460267          205.06         127.568         127.568 
       0.466387         202.552         123.885         123.885 
        0.47254          197.49         120.358         120.358 
       0.478662         196.509         117.019         117.019 
       0.484765         189.894         113.851         113.851 
       0.490885         187.159         110.816         110.816 
       0.497035         184.161         107.877         107.877 
       0.503198         179.552         105.025         105.025 
       0.509342         177.319         102.264         102.264 
       0.515458          174.72          99.601          99.601 
       0.521598         171.271         97.0139         97.0139 
       0.527764         168.786         94.5049         94.5049 
       0.533884         166.334         92.1054         92.1054 
           0.54         163.451         89.8006         89.8006 
       0.546137         162.022         87.5798         87.5798 
       0.552299         158.781         85.4347         85.4347 
       0.558452         156.694         83.3682         83.3682 
       0.564573           154.1         81.3773         81.3773 
       0.570708         150.955         79.4415         79.4415 
       0.576825         148.924         77.5701         77.5701 
       0.582926         146.365         75.7617         75.7617 
       0.589034         144.514         74.0087         74.0087 
       0.595184         142.594         72.3008         72.3008 
       0.601379         140.814         70.6368         70.6368 
       0.607522         137.888         69.0397         69.0397 
       0.613639         136.862            67.5            67.5 
       0.619772         133.995         66.0048         66.0048 
       0.625918          132.48          64.553          64.553 
       0.632068         130.833         63.1448         63.1448 
       0.638161         129.633         61.7913         61.7913 
         0.6443         127.796         60.4677         60.4677 
       0.650464         126.341         59.1776         59.1776 
       0.656582         124.463         57.9338         57.9338 
       0.662703         123.022         56.7251         56.7251 
       0.668861         121.012         55.5439         55.5439 
       0.675024          119.39         54.3956         54.3956 
       0.681124         118.597         53.2917         53.2917 
       0.687237         116.463         52.2167         52.2167 
       0.693381         114.739         51.1669         51.1669 
       0.699536         113.912         50.1445         50.1445 
       0.705665         113.524         49.1547         49.1547 
       0.711789         110.984         48.1927         48.1927 
       0.717957         110.574         47.2501         47.2501 
        0.72409         108.796         46.3379         46.3379 
       0.730186         107.081         45.4553         45.4553 
       0.736317         106.424          44.591          44.591 
       0.742472         105.523         43.7459         43.7459 
       0.748622         104.384         42.9235         42.9235 
        0.75476         103.293         42.1241         42.1241 
       0.760888         101.857         41.3463         41.3463 
       0.767043         101.281         40.5851         40.5851 
       0.773185         100.086         39.8447         39.8447 
       0.779291          98.549          39.127          39.127 
       0.785407         97.9874         38.4261         38.4261 
       0.791564         97.0364          37.738          37.738 
       0.797719         95.3178         37.0671         37.0671 
       0.803834         94.8663         36.4169         36.4169 
       0.809972         93.5981         35.7799         35.7799 
       0.816124         93.1998         35.1569         35.1569 
       0.822261         92.2255         34.5505         34.5505 
       0.828378         91.3666         33.9602         33.9602 
       0.834502          90.846         33.3833         33.3833 
       0.840667         89.4896          32.816          32.816 
       0.846816         88.4465         32.2636         32.2636 
       0.852925         87.8906         31.7275         31.7275 
       0.859047          86.705         31.2024         31.2024 
       0.865192         86.1006         30.6876         30.6876 
       0.871341         85.3749          30.184          30.184 
       0.877463         84.2794         29.6941         29.6941 
       0.883569         83.8876         29.2163         29.2163 
       0.889708          83.147         28.7466         28.7466 
       0.895864         82.3537         28.2861         28.2861 
       0.902008         81.6801         27.8366         27.8366 
       0.908149         81.1173         27.3973         27.3973 
       0.914301         80.2246         26.9667         26.9667 
       0.920448         79.6421         26.5458         26.5458 
       0.926574         78.9164         26.1353         26.1353 
       0.932687         78.7813         25.7345         25.7345 
       0.938823         77.4461         25.3406         25.3406 
       0.944975         76.7154         24.9541         24.9541 
       0.951105         76.2233          24.577          24.577 
       0.957225         75.3828         24.2084         24.2084 
       0.963368         74.9018         23.8461         23.8461 
       0.969511          74.632         23.4912         23.4912 
       0.975621         74.1447         23.1454         23.1454 
       0.981748         73.4366         22.8057         22.8057 
       0.987916         72.6533         22.4707         22.4707 
        0.99406          72.169         22.1438         22.1438 
        1.00019          71.633         21.8239         21.8239 
        1.00632         71.0826         21.5107         21.5107 
        1.01246         70.6019         21.2032         21.2032 
        1.01859         69.6281         20.9022         20.9022 
        1.02471         69.4588         20.6074         20.6074 
        1.03085         68.7939         20.3173         20.3173 
        1.03698         68.3976         20.0334         20.0334 
        1.04314         67.7406         19.7537         19.7537 
        1.04929         67.2799           19.48           19.48 
        1.05541         66.6417         19.2126         19.2126 
        1.06154          66.469         18.9495         18.9495 
        1.06769         65.9865          18.691          18.691 
        1.07382         65.6273         18.4382         18.4382 
        1.07993         65.1123         18.1906         18.1906 
        1.08607         64.5796         17.9465         17.9465 
        1.09222         64.2786         17.7067         17.7067 
        1.09836         63.7063         17.4716         17.4716 
        1.10449         63.3358          17.241          17.241 
        1.11063          62.758         17.0143         17.0143 
        1.11677         62.4467         16.7918         16.7918 
         1.1229          61.792         16.5736         16.5736 
        1.12903         61.1331         16.3591         16.3591 
        1.13518         61.3166         16.1483         16.1483 
        1.14131         60.8663         15.9413         15.9413 
        1.14745         60.1639          15.738          15.738 
        1.15359         59.9142         15.5383         15.5383 
        1.15973         59.4283         15.3419         15.3419 
        1.16584         59.0242         15.1498         15.1498 
        1.17197         58.6648         14.9607         14.9607 
        1.17811         58.3337         14.7743         14.7743 
        1.18424         57.8718         14.5916         14.5916 
        1.19038           57.48         14.4114         14.4114 
        1.19652         57.2324         14.2344         14.2344 
        1.20267         56.6447         14.0603         14.0603 
        1.20881         56.4083         13.8892         13.8892 
        1.21495         55.9306         13.7212         13.7212 
        1.22108         55.7261          13.556          13.556 
         1.2272         55.0899          13.394          13.394 
        1.23334         54.8926         13.2341         13.2341 
        1.23949         54.6824         13.0766         13.0766 
        1.24562         54.1771          12.922          12.922 
        1.25174         53.9367         12.7701         12.7701 
        1.25789         53.7144         12.6202         12.6202 
        1.26402         53.3399          12.473          12.473 
        1.27014         52.7781         12.3285         12.3285 
        1.27628         52.5604         12.1858         12.1858 
        1.28244         52.1793         12.0452         12.0452 
        1.28858          51.988         11.9069         11.9069 
        1.29471         51.7668         11.7711         11.7711 
        1.30084         51.3962         11.6375         11.6375 
        1.30697         51.0265         11.5059         11.5059 
        1.31312         50.7018          11.376          11.376 
        1.31925         50.4764         11.2486         11.2486 
        1.32537         50.2347         11.1232         11.1232 
        1.33151         49.7184         10.9994         10.9994 
        1.33765         49.5393         10.8774         10.8774 
        1.34378         49.2138         10.7576         10.7576 
        1.34992         48.9776         10.6395         10.6395 
        1.35606         48.6895         10.5229         10.5229 
         1.3622         48.2649         10.4082         10.4082 
        1.36833         48.0793         10.2956         10.2956 
        1.37445         47.8237         10.1846         10.1846 
        1.38059         47.4767          10.075          10.075 
        1.38675         47.2087         9.96667         9.96667 
        1.39288         46.9462         9.86039         9.86039 
        1.39901         46.7433          9.7557          9.7557 
        1.40515          46.436          9.6523          9.6523 
         1.4113         46.2421         9.55044         9.55044 
        1.41742         46.0901         9.45044         9.45044 
        1.42355         45.6351         9.35167         9.35167 
         1.4297         45.4788         9.25403         9.25403 
        1.43585         45.1931         9.15781         9.15781 
        1.44198         44.8789         9.06333         9.06333 
        1.44809         44.7377         8.97035         8.97035 
        1.45423         44.4839         8.87834         8.87834 
        1.46036          44.282         8.78778         8.78778 
        1.46649         44.0385         8.69846         8.69846 
        1.47263          43.686          8.6103          8.6103 
        1.47877         43.4979          8.5234          8.5234 
        1.48491         43.4391         8.43756         8.43756 
        1.49104         43.0551         8.35308         8.35308 
        1.49718         42.6311         8.26969         8.26969 
        1.50333         42.5827          8.1873          8.1873 
        1.50947         42.3946          8.1062          8.1062 
         1.5156         42.0737         8.02632         8.02632 
        1.52172         41.9354         7.94751         7.94751 
        1.52787         41.8129          7.8696          7.8696 
          1.534         41.4852         7.79282         7.79282 
        1.54013         41.2537         7.71714         7.71714 
        1.54627         41.1123         7.64234         7.64234 
        1.55241          40.716          7.5685          7.5685 
        1.55855         40.5643         7.49575         7.49575 
        1.56467         40.2244         7.42415         7.42415 
         1.5708         40.2769         7.35328         7.35328 
        1.57695         40.0134         7.28323         7.28323 
        1.58308         39.7173         7.21426         7.21426 
        1.58922         39.6761         7.14612         7.14612 
        1.59535          39.506         7.07889         7.07889 
         1.6015           39.12         7.01243         7.01243 
        1.60764         38.9236         6.94685         6.94685 
        1.61376         38.7576         6.88229         6.88229 
        1.61989         38.5151          6.8185          6.8185 
        1.62604         38.3781         6.75537         6.75537 
        1.63218         38.3134         6.69308         6.69308 
        1.63831         38.0172         6.63172         6.63172 
        1.64444         37.8069          6.5711          6.5711 
        1.65059         37.5965         6.51109         6.51109 
        1.65673         37.4035         6.45189         6.45189 
        1.66285         37.1705         6.39359         6.39359 
        1.66898         37.0307         6.33599         6.33599 
        1.67512         36.8027         6.27899         6.27899 
        1.68127         36.5954         6.22264         6.22264 
         1.6874         36.4715          6.1671          6.1671 
        1.69353         36.2576         6.11227         6.11227 
        1.69967          36.101         6.05797         6.05797 
        1.70581         36.0213         6.00436         6.00436 
        1.71193          35.817         5.95159         5.95159 
        1.71806         35.4744         5.89935         5.89935 
        1.72421         35.3716         5.84763         5.84763 
        1.73035         35.2113         5.79659         5.79659 
        1.73649         34.8985         5.74617         5.74617 
        1.74262          34.863         5.69638         5.69638 
        1.74876         34.7369         5.64715         5.64715 
        1.75489         34.5249         5.59861         5.59861 
        1.76101         34.3633         5.55064         5.55064 
        1.76715         34.1756         5.50318         5.50318 
        1.77329         34.0027          5.4562          5.4562 
        1.77943         33.8637         5.40976         5.40976 
        1.78557         33.6887         5.36392         5.36392 
        1.79171          33.506          5.3186          5.3186 
        1.79785         33.3495          5.2738          5.2738 
        1.80399         33.2667         5.22952         5.22952 
        1.81012         33.0314         5.18581         5.18581 
        1.81625          32.827         5.14261         5.14261 
        1.82239         32.7421         5.09984         5.09984 
        1.82853         32.5042         5.05758         5.05758 
        1.83466          32.378         5.01583         5.01583 
        1.84078         32.1392          4.9746          4.9746 
        1.84692         32.0278         4.93376         4.93376 
        1.85306         31.8491         4.89333         4.89333 
         1.8592         31.6756         4.85341         4.85341 
        1.86533         31.5746         4.81397         4.81397 
        1.87147         31.4829         4.77491         4.77491 
