# k  (h/Mpc)    P(k)  (Mpc/h)^3    P_linear(k)  (Mpc/h)^3     P_NL(k)  ShotnoiseSubtracted = false
     0.00783031         570.821         576.516         576.516 
       0.013688         669.989          671.66          671.66 
       0.019231         647.867         647.902         647.902 
      0.0249154         570.027         572.044         572.044 
      0.0312784         474.314         473.915         473.915 
      0.0375637         392.804           391.5           391.5 
      0.0433917         336.498         336.264         336.264 
      0.0492413         299.728         299.233         299.233 
      0.0555754         272.095         272.694         272.694 
      0.0619321         252.509         251.763         251.763 
       0.067871         231.195         231.669         231.669 
      0.0738098         208.408         208.917         208.917 
      0.0800417         182.613         183.238         183.238 
      0.0862327         158.718         158.801         158.801 
      0.0921407         139.284         139.055         139.055 
      0.0982031          123.69         123.736         123.736 
       0.104506         113.461         112.923         112.923 
       0.110769         106.243         105.934         105.934 
       0.116806         100.776         100.913         100.913 
       0.122832         96.0608         95.9456         95.9456 
       0.129052         89.6132         89.8297         89.8297 
       0.135211         82.4406         82.6417         82.6417 
       0.141259         75.2008         75.0774         75.0774 
       0.147318          68.224          67.868          67.868 
       0.153489         61.8777         61.6463         61.6463 
       0.159709         57.1224         56.8697         56.8697 
       0.165845         54.0306         53.5274         53.5274 
       0.171974         51.2698         51.1364         51.1364 
       0.178125         49.3243         49.1483         49.1483 
       0.184229         47.3509         47.1106         47.1106 
        0.19034         44.6784         44.7383         44.7383 
       0.196428         42.1845         42.0303         42.0303 
       0.202534         39.5768         39.1552         39.1552 
       0.208729         36.6352           36.35           36.35 
       0.214876         34.0794         33.9102         33.9102 
       0.220989         32.3289         31.9361         31.9361 
       0.227147         30.5618         30.3861         30.3861 
        0.23329         29.3267         29.1601         29.1601 
       0.239377         28.2918         28.1001         28.1001 
       0.245482         27.1211         27.0468         27.0468 
       0.251667         26.1237         25.9006         25.9006 
       0.257832         24.8528         24.6629         24.6629 
       0.263955         23.6041         23.3891         23.3891 
       0.270079         22.3961          22.149          22.149 
        0.27624         21.3642         21.0079         21.0079 
       0.282372         20.3775         20.0214         20.0214 
        0.28843         19.4656         19.1933         19.1933 
       0.294538         18.7288         18.4775         18.4775 
       0.300721         18.1572         17.8261         17.8261 
        0.30691         17.4372         17.2005         17.2005 
       0.313033         16.8078         16.5747         16.5747 
       0.319153         16.0317         15.9331         15.9331 
       0.325316         15.5775         15.2796         15.2796 
        0.33145          14.903         14.6437         14.6437 
       0.337538         14.3182         14.0477         14.0477 
       0.343633         13.7304         13.5026         13.5026 
       0.349808         13.2684         13.0051         13.0051 
       0.355968         12.8328         12.5586         12.5586 
       0.362074         12.3967         12.1506         12.1506 
       0.368217         11.9995         11.7604         11.7604 
       0.374374         11.5749         11.3788         11.3788 
       0.380519         11.2376         11.0004         11.0004 
       0.386598         10.8812         10.6305         10.6305 
       0.392688         10.5554         10.2683         10.2683 
        0.39888         10.1736         9.91472         9.91472 
       0.405048         9.85632          9.5834          9.5834 
       0.411186         9.55382         9.27568         9.27568 
       0.417313         9.23345         8.98933         8.98933 
       0.423458         8.97812         8.72021         8.72021 
       0.429607         8.69352         8.46388         8.46388 
       0.435692          8.4435         8.21882         8.21882 
       0.441815          8.2083         7.97893         7.97893 
       0.447964         8.01122         7.74377         7.74377 
       0.454126          7.7281         7.51414         7.51414 
       0.460267         7.51882         7.29323         7.29323 
       0.466387         7.27837         7.08266         7.08266 
        0.47254         7.09913           6.881           6.881 
       0.478662         6.92505         6.69009         6.69009 
       0.484765         6.71399         6.50902         6.50902 
       0.490885         6.54636         6.33545         6.33545 
       0.497035         6.41776         6.16749         6.16749 
       0.503198         6.23128         6.00438         6.00438 
       0.509342         6.07898         5.84656         5.84656 
       0.515458         5.90584         5.69431         5.69431 
       0.521598         5.76421          5.5464          5.5464 
       0.527764         5.60323         5.40295         5.40295 
       0.533884         5.49447         5.26578         5.26578 
           0.54         5.35149           5.134           5.134 
       0.546137         5.22985         5.00704         5.00704 
       0.552299          5.1068          4.8844          4.8844 
       0.558452         4.95973         4.76625         4.76625 
       0.564573          4.8661         4.65244         4.65244 
       0.570708         4.75203         4.54177         4.54177 
       0.576825         4.62834         4.43478         4.43478 
       0.582926         4.53818         4.33139         4.33139 
       0.589034         4.40134         4.23116         4.23116 
       0.595184           4.316         4.13352         4.13352 
       0.601379         4.21513         4.03839         4.03839 
       0.607522         4.13969         3.94708         3.94708 
       0.613639         4.06452         3.85906         3.85906 
       0.619772         3.95151         3.77357         3.77357 
       0.625918         3.88549         3.69057         3.69057 
       0.632068         3.81468         3.61006         3.61006 
       0.638161         3.71603         3.53268         3.53268 
         0.6443         3.63743         3.45701         3.45701 
       0.650464         3.54987         3.38325         3.38325 
       0.656582         3.49863         3.31214         3.31214 
       0.662703         3.42551         3.24304         3.24304 
       0.668861         3.36496         3.17551         3.17551 
       0.675024         3.28665         3.10986         3.10986 
       0.681124         3.21756         3.04675         3.04675 
       0.687237         3.16325         2.98529         2.98529 
       0.693381         3.10256         2.92527         2.92527 
       0.699536         3.02018         2.86682         2.86682 
       0.705665         2.96908         2.81023         2.81023 
       0.711789         2.91891         2.75524         2.75524 
       0.717957         2.85628         2.70135         2.70135 
        0.72409          2.8025          2.6492          2.6492 
       0.730186         2.75388         2.59874         2.59874 
       0.736317          2.7187         2.54932         2.54932 
       0.742472         2.66679         2.50101         2.50101 
       0.748622         2.61182         2.45399         2.45399 
        0.75476         2.55327         2.40829         2.40829 
       0.760888         2.51103         2.36382         2.36382 
       0.767043         2.47967          2.3203          2.3203 
       0.773185         2.42324         2.27797         2.27797 
       0.779291         2.38831         2.23694         2.23694 
       0.785407         2.34457         2.19687         2.19687 
       0.791564         2.30716         2.15753         2.15753 
       0.797719         2.26926         2.11917         2.11917 
       0.803834         2.23601           2.082           2.082 
       0.809972         2.19695         2.04558         2.04558 
       0.816124         2.15168         2.00997         2.00997 
       0.822261         2.11052         1.97529         1.97529 
       0.828378         2.08284         1.94155         1.94155 
       0.834502         2.05627         1.90856         1.90856 
       0.840667         2.01007         1.87613         1.87613 
       0.846816         1.97702         1.84455         1.84455 
       0.852925         1.95565          1.8139          1.8139 
       0.859047         1.92228         1.78388         1.78388 
       0.865192         1.89046         1.75445         1.75445 
       0.871341         1.86273         1.72566         1.72566 
       0.877463         1.83666         1.69765         1.69765 
       0.883569         1.80083         1.67033         1.67033 
       0.889708         1.77273         1.64348         1.64348 
       0.895864         1.74507         1.61715         1.61715 
       0.902008         1.71733         1.59146         1.59146 
       0.908149         1.69383         1.56634         1.56634 
       0.914301         1.65983         1.54172         1.54172 
       0.920448         1.63705         1.51765         1.51765 
       0.926574         1.61125         1.49419         1.49419 
       0.932687         1.58857         1.47127         1.47127 
       0.938823         1.57021         1.44875         1.44875 
       0.944975         1.54664         1.42665         1.42665 
       0.951105         1.52476          1.4051          1.4051 
       0.957225          1.5099         1.38402         1.38402 
       0.963368         1.48449         1.36331         1.36331 
       0.969511         1.45959         1.34302         1.34302 
       0.975621          1.4363         1.32325         1.32325 
       0.981748         1.42203         1.30383         1.30383 
       0.987916         1.39891         1.28468         1.28468 
        0.99406         1.37561         1.26599         1.26599 
        1.00019         1.36109          1.2477          1.2477 
        1.00632         1.33835         1.22979         1.22979 
        1.01246         1.32111         1.21221         1.21221 
        1.01859         1.30504           1.195           1.195 
        1.02471         1.28565         1.17815         1.17815 
        1.03085         1.27021         1.16156         1.16156 
        1.03698         1.25068         1.14533         1.14533 
        1.04314         1.23579         1.12934         1.12934 
        1.04929         1.21799         1.11369         1.11369 
        1.05541         1.20355         1.09841         1.09841 
        1.06154         1.18599         1.08337         1.08337 
        1.06769         1.17151         1.06859         1.06859 
        1.07382         1.15563         1.05413         1.05413 
        1.07993         1.13719         1.03998         1.03998 
        1.08607         1.12885         1.02603         1.02603 
        1.09222         1.11095         1.01232         1.01232 
        1.09836          1.1011        0.998872        0.998872 
        1.10449         1.08699        0.985688        0.985688 
        1.11063         1.06842        0.972728        0.972728 
        1.11677         1.05479        0.960006        0.960006 
         1.1229         1.04217        0.947534        0.947534 
        1.12903         1.02845        0.935273        0.935273 
        1.13518          1.0186        0.923219        0.923219 
        1.14131         1.00262        0.911384        0.911384 
        1.14745        0.984928        0.899763        0.899763 
        1.15359        0.978266        0.888343        0.888343 
        1.15973        0.961808        0.877116        0.877116 
        1.16584        0.957438        0.866134        0.866134 
        1.17197        0.943197        0.855324        0.855324 
        1.17811        0.933546        0.844665        0.844665 
        1.18424        0.924161         0.83422         0.83422 
        1.19038        0.909851         0.82392         0.82392 
        1.19652        0.898704        0.813799        0.813799 
        1.20267        0.891198        0.803848        0.803848 
        1.20881        0.877449        0.794065        0.794065 
        1.21495        0.870156        0.784461        0.784461 
        1.22108        0.859553        0.775016        0.775016 
         1.2272        0.851388         0.76575         0.76575 
        1.23334        0.838957        0.756613        0.756613 
        1.23949        0.829384        0.747604        0.747604 
        1.24562        0.821537        0.738766        0.738766 
        1.25174        0.811962        0.730084        0.730084 
        1.25789        0.803254        0.721515        0.721515 
        1.26402        0.791276        0.713099        0.713099 
        1.27014        0.782962        0.704837        0.704837 
        1.27628        0.777917         0.69668         0.69668 
        1.28244        0.765113        0.688638        0.688638 
        1.28858        0.758173        0.680733        0.680733 
        1.29471        0.750428        0.672969        0.672969 
        1.30084        0.740686        0.665334        0.665334 
        1.30697        0.733295        0.657805        0.657805 
        1.31312        0.722123        0.650382        0.650382 
        1.31925         0.71717        0.643097        0.643097 
        1.32537        0.709835        0.635931        0.635931 
        1.33151        0.703767        0.628848        0.628848 
        1.33765        0.694782        0.621877        0.621877 
        1.34378        0.685921        0.615026        0.615026 
        1.34992        0.680893        0.608273        0.608273 
        1.35606        0.671696        0.601607        0.601607 
         1.3622        0.666018        0.595052        0.595052 
        1.36833        0.658527        0.588611        0.588611 
        1.37445        0.649774        0.582268        0.582268 
        1.38059        0.644107        0.575999        0.575999 
        1.38675        0.641357        0.569807        0.569807 
        1.39288        0.631802        0.563731        0.563731 
        1.39901        0.625145        0.557746        0.557746 
        1.40515        0.619204        0.551835        0.551835 
         1.4113        0.612156        0.546011        0.546011 
        1.41742        0.606214        0.540294        0.540294 
        1.42355        0.602948        0.534648        0.534648 
         1.4297        0.593829        0.529065        0.529065 
        1.43585        0.588717        0.523564        0.523564 
        1.44198        0.585282        0.518162        0.518162 
        1.44809        0.576817        0.512847        0.512847 
        1.45423        0.571651        0.507587        0.507587 
        1.46036        0.566001        0.502409        0.502409 
        1.46649        0.560579        0.497302        0.497302 
        1.47263        0.554336        0.492262        0.492262 
        1.47877        0.548574        0.487294        0.487294 
        1.48491         0.54371        0.482386        0.482386 
        1.49104        0.537856        0.477557        0.477557 
        1.49718        0.533842        0.472789        0.472789 
        1.50333        0.527713        0.468079        0.468079 
        1.50947        0.523606        0.463442        0.463442 
         1.5156        0.517989        0.458875        0.458875 
        1.52172        0.512969         0.45437         0.45437 
        1.52787        0.507836        0.449915        0.449915 
          1.534         0.50383        0.445526        0.445526 
        1.54013        0.497676        0.441199        0.441199 
        1.54627        0.493182        0.436923        0.436923 
        1.55241        0.488645        0.432702        0.432702 
        1.55855        0.484113        0.428542        0.428542 
        1.56467         0.48098        0.424449        0.424449 
         1.5708        0.474908        0.420397        0.420397 
        1.57695        0.472005        0.416392        0.416392 
        1.58308        0.467055        0.412449        0.412449 
        1.58922        0.462851        0.408553        0.408553 
        1.59535        0.458462         0.40471         0.40471 
         1.6015        0.454355         0.40091         0.40091 
        1.60764        0.450755        0.397161        0.397161 
        1.61376        0.445549         0.39347         0.39347 
        1.61989        0.442323        0.389823        0.389823 
        1.62604        0.438124        0.386214        0.386214 
        1.63218        0.435018        0.382653        0.382653 
        1.63831        0.430929        0.379144        0.379144 
        1.64444        0.426524        0.375678        0.375678 
        1.65059        0.422969        0.372248        0.372248 
        1.65673        0.418979        0.368863        0.368863 
        1.66285        0.415387         0.36553         0.36553 
        1.66898        0.412964        0.362237        0.362237 
        1.67512         0.40758        0.358978        0.358978 
        1.68127        0.404353        0.355757        0.355757 
         1.6874        0.402158        0.352581        0.352581 
        1.69353        0.397673        0.349447        0.349447 
        1.69967        0.394188        0.346342        0.346342 
        1.70581        0.391111        0.343277        0.343277 
        1.71193        0.387769        0.340261        0.340261 
        1.71806        0.384522        0.337274        0.337274 
        1.72421        0.381249        0.334317        0.334317 
        1.73035         0.37729        0.331399        0.331399 
        1.73649        0.375401        0.328516        0.328516 
        1.74262         0.37184         0.32567         0.32567 
        1.74876        0.368103        0.322856        0.322856 
        1.75489        0.365002         0.32008         0.32008 
        1.76101        0.361885        0.317338        0.317338 
        1.76715        0.359087        0.314624        0.314624 
        1.77329        0.356357        0.311939        0.311939 
        1.77943        0.352682        0.309283        0.309283 
        1.78557        0.350182        0.306663        0.306663 
        1.79171        0.347687        0.304072        0.304072 
        1.79785        0.344521         0.30151         0.30151 
        1.80399        0.341767        0.298979        0.298979 
        1.81012        0.339144         0.29648         0.29648 
        1.81625        0.336135         0.29401         0.29401 
        1.82239         0.33408        0.291565        0.291565 
        1.82853        0.329967        0.289149        0.289149 
        1.83466        0.327949        0.286762        0.286762 
        1.84078        0.324981        0.284405        0.284405 
        1.84692        0.323102         0.28207         0.28207 
        1.85306        0.320763        0.279758        0.279758 
         1.8592        0.317965        0.277476        0.277476 
        1.86533        0.315574        0.275221        0.275221 
        1.87147        0.312854        0.272988        0.272988 
        1.87761        0.310637        0.270779        0.270779 
