# k  (h/Mpc)    P(k)  (Mpc/h)^3    P_linear(k)  (Mpc/h)^3     P_NL(k)  ShotnoiseSubtracted = false
     0.00783031         1923.24         1943.94         1943.94 
       0.013688         2264.24         2263.89         2263.89 
       0.019231         2185.84         2183.54         2183.54 
      0.0249154         1916.46         1927.76         1927.76 
      0.0312784         1597.17         1597.01         1597.01 
      0.0375637         1324.87         1319.26         1319.26 
      0.0433917         1132.18         1133.11         1133.11 
      0.0492413         1010.01         1008.32         1008.32 
      0.0555754         914.168         918.886         918.886 
      0.0619321         852.918         848.352         848.352 
       0.067871          777.76         780.638         780.638 
      0.0738098         701.122         703.971         703.971 
      0.0800417         613.635         617.443         617.443 
      0.0862327         534.563         535.096         535.096 
      0.0921407           470.4         468.561         468.561 
      0.0982031          417.08         416.941         416.941 
       0.104506         384.544         380.504         380.504 
       0.110769         359.767         356.954         356.954 
       0.116806         340.508         340.035         340.035 
       0.122832         325.161         323.297         323.297 
       0.129052         302.394         302.689         302.689 
       0.135211         278.518         278.468         278.468 
       0.141259         255.118         252.979         252.979 
       0.147318         232.146         228.686         228.686 
       0.153489         210.382         207.722         207.722 
       0.159709         194.777         191.627         191.627 
       0.165845         184.894         180.365         180.365 
       0.171974         174.929         172.308         172.308 
       0.178125         168.387         165.609         165.609 
       0.184229         161.769         158.743         158.743 
        0.19034         151.791         150.749         150.749 
       0.196428         144.256         141.624         141.624 
       0.202534         136.097         131.936         131.936 
       0.208729         126.038         122.484         122.484 
       0.214876         117.227         114.263         114.263 
       0.220989         111.748         107.611         107.611 
       0.227147         105.413         102.388         102.388 
        0.23329         101.208         98.2569         98.2569 
       0.239377         97.9221         94.6852         94.6852 
       0.245482         93.2153         91.1361         91.1361 
       0.251667         90.3456         87.2739         87.2739 
       0.257832         86.2184         83.1032         83.1032 
       0.263955         81.9388         78.8112         78.8112 
       0.270079         77.9348         74.6327         74.6327 
        0.27624         74.8476         70.7876         70.7876 
       0.282372         71.5274         67.4634         67.4634 
        0.28843         68.3291          64.673          64.673 
       0.294538         65.6626         62.2611         62.2611 
       0.300721         63.9795         60.0664         60.0664 
        0.30691         61.2669         57.9584         57.9584 
       0.313033         59.1378         55.8497         55.8497 
       0.319153         56.2276         53.6876         53.6876 
       0.325316         54.9962         51.4856         51.4856 
        0.33145         52.5675         49.3428         49.3428 
       0.337538         50.8171         47.3347         47.3347 
       0.343633         48.7685          45.498          45.498 
       0.349808         47.1959         43.8216         43.8216 
       0.355968         45.7756         42.3169         42.3169 
       0.362074         44.2515         40.9421         40.9421 
       0.368217         42.8302         39.6275         39.6275 
       0.374374         41.4241         38.3416         38.3416 
       0.380519         40.2782         37.0666         37.0666 
       0.386598         39.0389         35.8201         35.8201 
       0.392688         38.0275         34.5995         34.5995 
        0.39888         36.7219         33.4083         33.4083 
       0.405048         35.6832         32.2919         32.2919 
       0.411186         34.6828          31.255          31.255 
       0.417313         33.5086         30.2901         30.2901 
       0.423458         32.5769         29.3833         29.3833 
       0.429607         31.6263         28.5196         28.5196 
       0.435692         30.6491         27.6938         27.6938 
       0.441815          29.985         26.8855         26.8855 
       0.447964          29.359         26.0931         26.0931 
       0.454126         28.1593         25.3194         25.3194 
       0.460267         27.5722          24.575          24.575 
       0.466387         26.6814         23.8655         23.8655 
        0.47254         26.1634         23.1859         23.1859 
       0.478662         25.6254         22.5427         22.5427 
       0.484765         24.8175         21.9326         21.9326 
       0.490885         24.2176         21.3477         21.3477 
       0.497035         23.8231         20.7817         20.7817 
       0.503198         23.1487         20.2321         20.2321 
       0.509342         22.5402         19.7003         19.7003 
       0.515458         21.9666         19.1873         19.1873 
       0.521598          21.527         18.6889         18.6889 
       0.527764         20.9992         18.2056         18.2056 
       0.533884         20.6069         17.7434         17.7434 
           0.54         20.0947         17.2993         17.2993 
       0.546137         19.7133         16.8715         16.8715 
       0.552299          19.325         16.4583         16.4583 
       0.558452         18.7099         16.0602         16.0602 
       0.564573          18.412         15.6767         15.6767 
       0.570708         18.0418         15.3038         15.3038 
       0.576825         17.5595         14.9433         14.9433 
       0.582926         17.2043         14.5949         14.5949 
       0.589034         16.7051         14.2572         14.2572 
       0.595184         16.4551         13.9282         13.9282 
       0.601379         16.0803         13.6076         13.6076 
       0.607522           15.79         13.2999         13.2999 
       0.613639         15.5718         13.0033         13.0033 
       0.619772         15.1413         12.7153         12.7153 
       0.625918         15.0073         12.4356         12.4356 
       0.632068         14.7434         12.1643         12.1643 
       0.638161          14.363         11.9036         11.9036 
         0.6443         14.0576         11.6486         11.6486 
       0.650464         13.7594         11.4001         11.4001 
       0.656582         13.6438         11.1605         11.1605 
       0.662703         13.3623         10.9276         10.9276 
       0.668861         13.0866         10.7001         10.7001 
       0.675024         12.8145         10.4789         10.4789 
       0.681124         12.5833         10.2662         10.2662 
       0.687237         12.3504         10.0591         10.0591 
       0.693381         12.1825         9.85689         9.85689 
       0.699536          11.851         9.65993         9.65993 
       0.705665         11.7335         9.46926         9.46926 
       0.711789          11.486         9.28395         9.28395 
       0.717957         11.2875         9.10235         9.10235 
        0.72409         11.0911         8.92663         8.92663 
       0.730186         10.9329         8.75661         8.75661 
       0.736317         10.7851         8.59009         8.59009 
       0.742472         10.5913         8.42729         8.42729 
       0.748622         10.4298         8.26887         8.26887 
        0.75476         10.2008         8.11487         8.11487 
       0.760888         10.0499         7.96503         7.96503 
       0.767043         9.91227         7.81839         7.81839 
       0.773185         9.70315         7.67576         7.67576 
       0.779291         9.61794         7.53751         7.53751 
       0.785407         9.47361         7.40248         7.40248 
       0.791564         9.29811         7.26992         7.26992 
       0.797719         9.09223         7.14068         7.14068 
       0.803834         9.04606         7.01542         7.01542 
       0.809972         8.93721         6.89272         6.89272 
       0.816124         8.71733          6.7727          6.7727 
       0.822261         8.59023         6.65588         6.65588 
       0.828378         8.48779         6.54216         6.54216 
       0.834502         8.39625         6.43102         6.43102 
       0.840667          8.2381         6.32175         6.32175 
       0.846816          8.0791         6.21533         6.21533 
       0.852925         7.99707         6.11204         6.11204 
       0.859047         7.88279          6.0109          6.0109 
       0.865192         7.79971         5.91171         5.91171 
       0.871341         7.70132         5.81471         5.81471 
       0.877463         7.56338         5.72033         5.72033 
       0.883569         7.43713         5.62829         5.62829 
       0.889708         7.30329         5.53781         5.53781 
       0.895864         7.22916         5.44909         5.44909 
       0.902008         7.15683         5.36251         5.36251 
       0.908149         7.06814         5.27786         5.27786 
       0.914301         6.96933         5.19491         5.19491 
       0.920448         6.84427         5.11383         5.11383 
       0.926574         6.75913         5.03476         5.03476 
       0.932687         6.67552         4.95754         4.95754 
       0.938823         6.57896         4.88166         4.88166 
       0.944975         6.48549          4.8072          4.8072 
       0.951105         6.41368         4.73456         4.73456 
       0.957225         6.36647         4.66355         4.66355 
       0.963368         6.27192         4.59376         4.59376 
       0.969511         6.19516         4.52539         4.52539 
       0.975621         6.11547         4.45878         4.45878 
       0.981748         6.03446         4.39335         4.39335 
       0.987916          5.9718         4.32881         4.32881 
        0.99406         5.87198         4.26582         4.26582 
        1.00019         5.77583         4.20421         4.20421 
        1.00632         5.74556         4.14387         4.14387 
        1.01246         5.67186         4.08463         4.08463 
        1.01859         5.58153         4.02664         4.02664 
        1.02471         5.53344         3.96985         3.96985 
        1.03085         5.46386         3.91396         3.91396 
        1.03698         5.37627         3.85927         3.85927 
        1.04314         5.33318         3.80539         3.80539 
        1.04929         5.26011         3.75266         3.75266 
        1.05541         5.18762         3.70115         3.70115 
        1.06154         5.14246         3.65048         3.65048 
        1.06769         5.10854         3.60067         3.60067 
        1.07382         5.02379         3.55197         3.55197 
        1.07993         4.96135         3.50427         3.50427 
        1.08607         4.92206         3.45726         3.45726 
        1.09222         4.86333         3.41106         3.41106 
        1.09836         4.80067         3.36576         3.36576 
        1.10449          4.7531         3.32134         3.32134 
        1.11063         4.69244         3.27767         3.27767 
        1.11677          4.6568          3.2348          3.2348 
         1.1229         4.60952         3.19278         3.19278 
        1.12903         4.54639         3.15146         3.15146 
        1.13518         4.49001         3.11084         3.11084 
        1.14131         4.43771         3.07096         3.07096 
        1.14745         4.38437         3.03181         3.03181 
        1.15359         4.35422         2.99333         2.99333 
        1.15973         4.29945          2.9555          2.9555 
        1.16584         4.23987         2.91849         2.91849 
        1.17197         4.20225         2.88207         2.88207 
        1.17811         4.17527         2.84615         2.84615 
        1.18424         4.12662         2.81095         2.81095 
        1.19038         4.09769         2.77625         2.77625 
        1.19652         4.04506         2.74215         2.74215 
        1.20267         3.99767         2.70861         2.70861 
        1.20881         3.97285         2.67565         2.67565 
        1.21495         3.93111         2.64329         2.64329 
        1.22108         3.87986         2.61146         2.61146 
         1.2272         3.84814         2.58024         2.58024 
        1.23334          3.7962         2.54945         2.54945 
        1.23949         3.75826          2.5191          2.5191 
        1.24562         3.73194         2.48932         2.48932 
        1.25174         3.69152         2.46006         2.46006 
        1.25789         3.65973         2.43119         2.43119 
        1.26402         3.63075         2.40283         2.40283 
        1.27014         3.59081         2.37499         2.37499 
        1.27628         3.55089         2.34751         2.34751 
        1.28244         3.50538         2.32041         2.32041 
        1.28858         3.49507         2.29377         2.29377 
        1.29471          3.4476         2.26761         2.26761 
        1.30084         3.40918         2.24188         2.24188 
        1.30697         3.40242         2.21651         2.21651 
        1.31312         3.33589          2.1915          2.1915 
        1.31925         3.31157         2.16695         2.16695 
        1.32537         3.27968         2.14281         2.14281 
        1.33151         3.26809         2.11894         2.11894 
        1.33765         3.22066         2.09545         2.09545 
        1.34378         3.19602         2.07237         2.07237 
        1.34992          3.1738         2.04961         2.04961 
        1.35606         3.13053         2.02715         2.02715 
         1.3622         3.11334         2.00506         2.00506 
        1.36833         3.07922         1.98336         1.98336 
        1.37445         3.05263         1.96199         1.96199 
        1.38059         3.03991         1.94086         1.94086 
        1.38675         3.00945            1.92            1.92 
        1.39288         2.98461         1.89953         1.89953 
        1.39901         2.94416         1.87936         1.87936 
        1.40515         2.92326         1.85944         1.85944 
         1.4113         2.89832         1.83982         1.83982 
        1.41742         2.87529         1.82055         1.82055 
        1.42355         2.84473         1.80153         1.80153 
         1.4297         2.82296         1.78272         1.78272 
        1.43585         2.80708         1.76418         1.76418 
        1.44198         2.78556         1.74598         1.74598 
        1.44809         2.75433         1.72807         1.72807 
        1.45423         2.72873         1.71034         1.71034 
        1.46036         2.70219          1.6929          1.6929 
        1.46649         2.68311         1.67569         1.67569 
        1.47263          2.6564         1.65871         1.65871 
        1.47877         2.63355         1.64197         1.64197 
        1.48491         2.61532         1.62543         1.62543 
        1.49104         2.59483         1.60916         1.60916 
        1.49718         2.57121         1.59309         1.59309 
        1.50333          2.5544         1.57722         1.57722 
        1.50947         2.52766          1.5616          1.5616 
         1.5156            2.51         1.54621         1.54621 
        1.52172         2.49151         1.53103         1.53103 
        1.52787         2.47317         1.51602         1.51602 
          1.534         2.44808         1.50123         1.50123 
        1.54013         2.43338         1.48665         1.48665 
        1.54627         2.40756         1.47224         1.47224 
        1.55241         2.38646         1.45801         1.45801 
        1.55855         2.37467           1.444           1.444 
        1.56467         2.35505         1.43021         1.43021 
         1.5708         2.33581         1.41655         1.41655 
        1.57695         2.31479         1.40306         1.40306 
        1.58308         2.29242         1.38977         1.38977 
        1.58922         2.28407         1.37665         1.37665 
        1.59535         2.26631         1.36369         1.36369 
         1.6015         2.24478         1.35089         1.35089 
        1.60764         2.22814         1.33826         1.33826 
        1.61376         2.21343         1.32582         1.32582 
        1.61989         2.19365         1.31353         1.31353 
        1.62604         2.17679         1.30137         1.30137 
        1.63218         2.16815         1.28937         1.28937 
        1.63831         2.14621         1.27755         1.27755 
        1.64444         2.13142         1.26587         1.26587 
        1.65059         2.10851         1.25431         1.25431 
        1.65673         2.10237         1.24291         1.24291 
        1.66285         2.07825         1.23168         1.23168 
        1.66898         2.06602         1.22058         1.22058 
        1.67512         2.04874          1.2096          1.2096 
        1.68127         2.03498         1.19874         1.19874 
         1.6874         2.02609         1.18804         1.18804 
        1.69353         2.00174         1.17748         1.17748 
        1.69967           1.992         1.16702         1.16702 
        1.70581         1.97984         1.15669         1.15669 
        1.71193         1.96271         1.14653         1.14653 
        1.71806         1.95119         1.13647         1.13647 
        1.72421         1.93656          1.1265          1.1265 
        1.73035         1.92356         1.11667         1.11667 
        1.73649          1.9082         1.10696         1.10696 
        1.74262         1.89306         1.09736         1.09736 
        1.74876         1.88362         1.08788         1.08788 
        1.75489         1.86953         1.07853         1.07853 
        1.76101         1.85193         1.06929         1.06929 
        1.76715          1.8445         1.06014         1.06014 
        1.77329         1.83312          1.0511          1.0511 
        1.77943         1.81163         1.04215         1.04215 
        1.78557         1.80338         1.03332         1.03332 
        1.79171          1.7938         1.02459         1.02459 
        1.79785         1.77866         1.01596         1.01596 
        1.80399         1.76592         1.00743         1.00743 
        1.81012         1.75418        0.999007        0.999007 
        1.81625         1.74398        0.990685        0.990685 
        1.82239         1.73111        0.982446        0.982446 
        1.82853         1.71567        0.974304        0.974304 
        1.83466         1.70965        0.966262        0.966262 
        1.84078          1.6997        0.958318        0.958318 
        1.84692         1.68834        0.950451        0.950451 
        1.85306         1.67223        0.942663        0.942663 
         1.8592         1.66016        0.934973        0.934973 
        1.86533         1.64953        0.927374        0.927374 
        1.87147         1.64225         0.91985         0.91985 
        1.87761         1.62891        0.912406        0.912406 
