# k  (h/Mpc)    Pcb(k)  (Mpc/h)^3    Pcb_linear(k) (Mpc/h)^3    Pcb_NL(k) (Mpc/h)^3   ShotnoiseSubtracted = false
     0.00783031         3241.82         3278.43         3278.43 
       0.013688         3824.06         3817.21         3817.21 
       0.019231         3687.59         3681.47         3681.47 
      0.0249154         3225.69         3250.11         3250.11 
      0.0312784         2690.85         2692.42         2692.42 
      0.0375637         2234.58         2224.13         2224.13 
      0.0433917         1906.49         1910.29         1910.29 
      0.0492413         1702.53          1699.9          1699.9 
      0.0555754          1537.8         1549.12         1549.12 
      0.0619321         1439.72          1430.2          1430.2 
       0.067871         1309.34         1316.04         1316.04 
      0.0738098         1180.54         1186.79         1186.79 
      0.0800417         1032.55         1040.91         1040.91 
      0.0862327         900.994          902.09          902.09 
      0.0921407          794.63         789.921         789.921 
      0.0982031         704.036         702.897         702.897 
       0.104506         651.323         641.469         641.469 
       0.110769         609.021         601.768         601.768 
       0.116806         575.879         573.244         573.244 
       0.122832         550.292         545.027         545.027 
       0.129052         510.737         510.284         510.284 
       0.135211         471.013         469.452         469.452 
       0.141259         432.797         426.482         426.482 
       0.147318         394.659         385.529         385.529 
       0.153489         357.585         350.186         350.186 
       0.159709         331.939         323.051         323.051 
       0.165845         315.719         304.065         304.065 
       0.171974         298.485         290.483         290.483 
       0.178125          287.28          279.19          279.19 
       0.184229         276.043         267.615         267.615 
        0.19034         258.177         254.139         254.139 
       0.196428         246.534         238.755         238.755 
       0.202534         233.362         222.423         222.423 
       0.208729         216.442         206.488         206.488 
       0.214876         201.532         192.628         192.628 
       0.220989         192.592         181.415         181.415 
       0.227147         181.725          172.61          172.61 
        0.23329         174.542         165.645         165.645 
       0.239377         169.271         159.624         159.624 
       0.245482         160.265         153.641         153.641 
       0.251667         156.002         147.129         147.129 
       0.257832         149.259         140.098         140.098 
       0.263955         142.005         132.863         132.863 
       0.270079         135.269         125.818         125.818 
        0.27624         130.557         119.337         119.337 
       0.282372         124.931         113.732         113.732 
        0.28843         119.504         109.028         109.028 
       0.294538         114.688         104.962         104.962 
       0.300721         112.184         101.262         101.262 
        0.30691         107.247         97.7082         97.7082 
       0.313033         103.733         94.1536         94.1536 
       0.319153         98.6616         90.5085         90.5085 
       0.325316         96.5778         86.7962         86.7962 
        0.33145         92.3799         83.1838         83.1838 
       0.337538         89.7619         79.7987         79.7987 
       0.343633         86.2528         76.7018         76.7018 
       0.349808         83.4687         73.8763         73.8763 
       0.355968         81.2139         71.3393         71.3393 
       0.362074         78.5851         69.0215         69.0215 
       0.368217         76.0902         66.8056         66.8056 
       0.374374          73.728         64.6371         64.6371 
       0.380519         71.7836         62.4882         62.4882 
       0.386598         69.6201         60.3867         60.3867 
       0.392688         67.9818         58.3291         58.3291 
        0.39888         65.8147          56.321          56.321 
       0.405048         64.0117         54.4386         54.4386 
       0.411186         62.3386         52.6907         52.6907 
       0.417313         60.3609         51.0641         51.0641 
       0.423458         58.7289         49.5354         49.5354 
       0.429607         57.1169         48.0791         48.0791 
       0.435692         55.2453         46.6872         46.6872 
       0.441815         54.3494         45.3246         45.3246 
       0.447964         53.2632         43.9886         43.9886 
       0.454126         50.9149         42.6843         42.6843 
       0.460267         50.0577         41.4294         41.4294 
       0.466387           48.65         40.2332         40.2332 
        0.47254         47.7281         39.0876         39.0876 
       0.478662         46.8709         38.0033         38.0033 
       0.484765          45.424         36.9746         36.9746 
       0.490885         44.3969         35.9887         35.9887 
       0.497035         43.7091         35.0345         35.0345 
       0.503198           42.46          34.108          34.108 
       0.509342          41.355         33.2115         33.2115 
       0.515458         40.4506         32.3466         32.3466 
       0.521598         39.7385         31.5064         31.5064 
       0.527764         38.8803         30.6916         30.6916 
       0.533884         38.1788         29.9124         29.9124 
           0.54         37.2482         29.1638         29.1638 
       0.546137         36.6629         28.4426         28.4426 
       0.552299         36.0185         27.7459         27.7459 
       0.558452         34.9105         27.0748         27.0748 
       0.564573         34.3081         26.4283         26.4283 
       0.570708         33.7351         25.7996         25.7996 
       0.576825         32.9388         25.1918         25.1918 
       0.582926         32.2271         24.6045         24.6045 
       0.589034         31.3794         24.0352         24.0352 
       0.595184         30.9537         23.4806         23.4806 
       0.601379         30.3469         22.9401         22.9401 
       0.607522         29.6911         22.4215         22.4215 
       0.613639         29.4135         21.9214         21.9214 
       0.619772         28.6431         21.4359         21.4359 
       0.625918         28.4086         20.9644         20.9644 
       0.632068         27.9445          20.507          20.507 
       0.638161          27.336         20.0675         20.0675 
         0.6443         26.7909         19.6376         19.6376 
       0.650464         26.2862         19.2186         19.2186 
       0.656582         26.0708         18.8147         18.8147 
       0.662703         25.5289         18.4222         18.4222 
       0.668861         25.0503         18.0386         18.0386 
       0.675024         24.5869         17.6656         17.6656 
       0.681124         24.1486         17.3071         17.3071 
       0.687237         23.6862          16.958          16.958 
       0.693381         23.4614         16.6171         16.6171 
       0.699536         22.8765          16.285          16.285 
       0.705665         22.8007         15.9636         15.9636 
       0.711789         22.2177         15.6512         15.6512 
       0.717957         21.9066          15.345          15.345 
        0.72409         21.5819         15.0488         15.0488 
       0.730186         21.2381         14.7622         14.7622 
       0.736317          20.999         14.4815         14.4815 
       0.742472         20.6082          14.207          14.207 
       0.748622         20.3842         13.9399         13.9399 
        0.75476         20.0069         13.6803         13.6803 
       0.760888         19.6802         13.4277         13.4277 
       0.767043         19.4217         13.1805         13.1805 
       0.773185         19.0729         12.9401         12.9401 
       0.779291         18.9475          12.707          12.707 
       0.785407         18.7316         12.4793         12.4793 
       0.791564         18.3614         12.2559         12.2559 
       0.797719         17.9205          12.038          12.038 
       0.803834         17.8853         11.8268         11.8268 
       0.809972         17.6778           11.62           11.62 
       0.816124         17.2626         11.4177         11.4177 
       0.822261         17.0853         11.2207         11.2207 
       0.828378          16.925          11.029          11.029 
       0.834502         16.7268         10.8416         10.8416 
       0.840667         16.4731         10.6574         10.6574 
       0.846816          16.163          10.478          10.478 
       0.852925         16.0031         10.3039         10.3039 
       0.859047         15.8071         10.1334         10.1334 
       0.865192         15.6221         9.96616         9.96616 
       0.871341         15.4825         9.80263         9.80263 
       0.877463         15.1896         9.64352         9.64352 
       0.883569         14.9876         9.48836         9.48836 
       0.889708         14.7553         9.33582         9.33582 
       0.895864         14.6166         9.18626         9.18626 
       0.902008         14.4954          9.0403          9.0403 
       0.908149         14.3209          8.8976          8.8976 
       0.914301         14.2238         8.75776         8.75776 
       0.920448         13.9335         8.62106         8.62106 
       0.926574         13.8001         8.48777         8.48777 
       0.932687         13.6217         8.35758         8.35758 
       0.938823          13.438         8.22967         8.22967 
       0.944975         13.2837         8.10414         8.10414 
       0.951105         13.1473         7.98169         7.98169 
       0.957225         13.0009         7.86197         7.86197 
       0.963368         12.8851         7.74431         7.74431 
       0.969511         12.7498         7.62905         7.62905 
       0.975621         12.6292         7.51676         7.51676 
       0.981748         12.4318         7.40645         7.40645 
       0.987916         12.3342         7.29766         7.29766 
        0.99406         12.1733         7.19146         7.19146 
        1.00019         11.9915         7.08759         7.08759 
        1.00632         11.9303         6.98587         6.98587 
        1.01246         11.8209           6.886           6.886 
        1.01859         11.6114         6.78824         6.78824 
        1.02471         11.5544          6.6925          6.6925 
        1.03085          11.436         6.59829         6.59829 
        1.03698         11.2284         6.50608         6.50608 
        1.04314         11.1648         6.41525         6.41525 
        1.04929         11.0172         6.32637         6.32637 
        1.05541         10.8786         6.23952         6.23952 
        1.06154         10.8114         6.15409         6.15409 
        1.06769          10.735         6.07014         6.07014 
        1.07382         10.5963         5.98803         5.98803 
        1.07993         10.4995         5.90762         5.90762 
        1.08607         10.3728         5.82836         5.82836 
        1.09222         10.2946         5.75048         5.75048 
        1.09836         10.1579         5.67411         5.67411 
        1.10449         10.0821         5.59922         5.59922 
        1.11063         9.94719          5.5256          5.5256 
        1.11677         9.90181         5.45333         5.45333 
         1.1229         9.83208         5.38249         5.38249 
        1.12903         9.69314         5.31284         5.31284 
        1.13518          9.5694         5.24436         5.24436 
        1.14131         9.52174         5.17713         5.17713 
        1.14745         9.42713         5.11112         5.11112 
        1.15359         9.35805         5.04625         5.04625 
        1.15973          9.2504         4.98247         4.98247 
        1.16584         9.11359         4.92009         4.92009 
        1.17197          9.0794         4.85868         4.85868 
        1.17811         8.99526         4.79814         4.79814 
        1.18424         8.90555          4.7388          4.7388 
        1.19038         8.85651         4.68029         4.68029 
        1.19652         8.75997          4.6228          4.6228 
        1.20267         8.67081         4.56627         4.56627 
        1.20881         8.62439          4.5107          4.5107 
        1.21495         8.55104         4.45614         4.45614 
        1.22108         8.44337         4.40249         4.40249 
         1.2272         8.36755         4.34985         4.34985 
        1.23334         8.29812         4.29795         4.29795 
        1.23949         8.21069         4.24678         4.24678 
        1.24562         8.16788         4.19657         4.19657 
        1.25174         8.10959         4.14726         4.14726 
        1.25789         8.02813         4.09858         4.09858 
        1.26402         7.99612         4.05077         4.05077 
        1.27014         7.90438         4.00384         4.00384 
        1.27628         7.80491         3.95751         3.95751 
        1.28244         7.74272         3.91182         3.91182 
        1.28858         7.73125         3.86691         3.86691 
        1.29471         7.64006         3.82281         3.82281 
        1.30084         7.55735         3.77944         3.77944 
        1.30697         7.52242         3.73667         3.73667 
        1.31312         7.41933         3.69451         3.69451 
        1.31925         7.35977         3.65312         3.65312 
        1.32537         7.32179         3.61242         3.61242 
        1.33151         7.27362         3.57218         3.57218 
        1.33765         7.20614         3.53258         3.53258 
        1.34378         7.14649         3.49366         3.49366 
        1.34992         7.07872          3.4553          3.4553 
        1.35606          7.0454         3.41744         3.41744 
         1.3622         6.99593          3.3802          3.3802 
        1.36833         6.91086         3.34361         3.34361 
        1.37445         6.87806         3.30758         3.30758 
        1.38059         6.82959         3.27197         3.27197 
        1.38675         6.75716          3.2368          3.2368 
        1.39288         6.73278         3.20228         3.20228 
        1.39901         6.65804         3.16829         3.16829 
        1.40515         6.62401         3.13471         3.13471 
         1.4113         6.56525         3.10163         3.10163 
        1.41742         6.51329         3.06915         3.06915 
        1.42355         6.45968         3.03707         3.03707 
         1.4297         6.42929         3.00536         3.00536 
        1.43585         6.39052         2.97411         2.97411 
        1.44198         6.34347         2.94343         2.94343 
        1.44809         6.28954         2.91324         2.91324 
        1.45423         6.23546         2.88335         2.88335 
        1.46036         6.18923         2.85394         2.85394 
        1.46649         6.16019         2.82493         2.82493 
        1.47263         6.09562          2.7963          2.7963 
        1.47877         6.05532         2.76808         2.76808 
        1.48491         6.02283          2.7402          2.7402 
        1.49104          5.9789         2.71277         2.71277 
        1.49718         5.93753         2.68569         2.68569 
        1.50333         5.89489         2.65893         2.65893 
        1.50947          5.8443         2.63259         2.63259 
         1.5156         5.81314         2.60665         2.60665 
        1.52172         5.78293         2.58105         2.58105 
        1.52787         5.73349         2.55575         2.55575 
          1.534         5.69012         2.53082         2.53082 
        1.54013         5.65191         2.50624         2.50624 
        1.54627         5.60446         2.48195         2.48195 
        1.55241         5.57141         2.45797         2.45797 
        1.55855         5.54439         2.43434         2.43434 
        1.56467         5.49732         2.41109         2.41109 
         1.5708         5.48038         2.38807         2.38807 
        1.57695         5.42806         2.36532         2.36532 
        1.58308         5.38397         2.34292         2.34292 
        1.58922         5.36425         2.32079         2.32079 
        1.59535         5.33561         2.29896         2.29896 
         1.6015         5.28355         2.27738         2.27738 
        1.60764         5.24359         2.25608         2.25608 
        1.61376         5.22638         2.23511         2.23511 
        1.61989         5.18323          2.2144          2.2144 
        1.62604         5.15719         2.19389         2.19389 
        1.63218         5.13077         2.17366         2.17366 
        1.63831         5.09234         2.15373         2.15373 
        1.64444         5.05733         2.13405         2.13405 
        1.65059         5.00959         2.11456         2.11456 
        1.65673         5.00661         2.09533         2.09533 
        1.66285         4.94967          2.0764          2.0764 
        1.66898         4.92329         2.05769         2.05769 
        1.67512         4.90317         2.03918         2.03918 
        1.68127         4.86675         2.02088         2.02088 
         1.6874         4.84151         2.00284         2.00284 
        1.69353         4.79952         1.98504         1.98504 
        1.69967         4.78263          1.9674          1.9674 
        1.70581         4.75754         1.94999         1.94999 
        1.71193         4.71292         1.93286         1.93286 
        1.71806         4.69343         1.91589         1.91589 
        1.72421         4.66343         1.89909         1.89909 
        1.73035         4.64327         1.88252         1.88252 
        1.73649         4.61371         1.86614         1.86614 
        1.74262         4.57877         1.84997         1.84997 
        1.74876          4.5606         1.83399         1.83399 
        1.75489         4.53366         1.81822         1.81822 
        1.76101         4.49677         1.80264         1.80264 
        1.76715         4.48064         1.78723         1.78723 
        1.77329         4.44423         1.77197         1.77197 
        1.77943         4.41732         1.75689         1.75689 
        1.78557          4.4034           1.742           1.742 
        1.79171         4.37834         1.72729         1.72729 
        1.79785         4.34372         1.71273         1.71273 
        1.80399         4.31951         1.69835         1.69835 
        1.81012          4.2993         1.68416         1.68416 
        1.81625         4.27062         1.67013         1.67013 
        1.82239         4.25081         1.65624         1.65624 
        1.82853         4.21892         1.64251         1.64251 
        1.83466         4.19793         1.62896         1.62896 
        1.84078         4.18022         1.61556         1.61556 
        1.84692         4.16298          1.6023          1.6023 
        1.85306          4.1289         1.58917         1.58917 
         1.8592         4.10485         1.57621         1.57621 
        1.86533         4.08288          1.5634          1.5634 
        1.87147          4.0629         1.55071         1.55071 
