# k  (h/Mpc)    P(k)  (Mpc/h)^3    P_linear(k)  (Mpc/h)^3     P_NL(k)  ShotnoiseSubtracted = false
     0.00783031         8814.73         8928.77         8928.77 
       0.013688         10455.2         10389.8         10389.8 
       0.019231         10047.9         10018.3         10018.3 
      0.0249154         8728.59         8843.62         8843.62 
      0.0312784         7299.21          7325.7          7325.7 
      0.0375637         6082.59         6051.33         6051.33 
      0.0433917         5163.98         5197.34         5197.34 
      0.0492413         4626.22         4624.85         4624.85 
      0.0555754         4150.61         4214.57         4214.57 
      0.0619321         3923.84         3891.01         3891.01 
       0.067871         3539.97         3580.41         3580.41 
      0.0738098         3195.24         3228.75         3228.75 
      0.0800417         2790.03         2831.87         2831.87 
      0.0862327          2447.8         2454.18         2454.18 
      0.0921407          2176.5         2149.02         2149.02 
      0.0982031         1926.62         1912.26         1912.26 
       0.104506         1799.63         1745.14         1745.14 
       0.110769         1679.91         1637.13         1637.13 
       0.116806         1587.78         1559.53         1559.53 
       0.122832         1516.39         1482.76         1482.76 
       0.129052         1399.61         1388.24         1388.24 
       0.135211         1297.05         1277.15         1277.15 
       0.141259         1204.33         1160.25         1160.25 
       0.147318         1105.97         1048.83         1048.83 
       0.153489         1002.58         952.684         952.684 
       0.159709         939.036         878.864         878.864 
       0.165845         897.881         827.212         827.212 
       0.171974         850.314         790.261         790.261 
       0.178125          815.91         759.537         759.537 
       0.184229         783.213         728.046         728.046 
        0.19034         729.209         691.384         691.384 
       0.196428         704.807         649.534         649.534 
       0.202534           671.9         605.101         605.101 
       0.208729         628.022          561.75          561.75 
       0.214876         589.557         524.045         524.045 
       0.220989         566.088         493.537         493.537 
       0.227147         537.538         469.583         469.583 
        0.23329         516.606         450.637         450.637 
       0.239377         504.153         434.256         434.256 
       0.245482         471.387         417.978         417.978 
       0.251667         464.144         400.265         400.265 
       0.257832         445.521         381.137         381.137 
       0.263955         426.818         361.453         361.453 
       0.270079         408.075         342.288         342.288 
        0.27624         399.364         324.654         324.654 
       0.282372          382.91         309.408         309.408 
        0.28843         370.229          296.61          296.61 
       0.294538         352.799         285.548         285.548 
       0.300721         349.059         275.483         275.483 
        0.30691         332.658         265.815         265.815 
       0.313033         324.507         256.144         256.144 
       0.319153         311.907         246.228         246.228 
       0.325316         303.329         236.129         236.129 
        0.33145         292.362         226.301         226.301 
       0.337538         287.049         217.091         217.091 
       0.343633         276.852         208.667         208.667 
       0.349808         267.345         200.979         200.979 
       0.355968         263.232         194.078         194.078 
       0.362074         256.726         187.773         187.773 
       0.368217         249.279         181.744         181.744 
       0.374374         239.761         175.846         175.846 
       0.380519         236.199         169.998         169.998 
       0.386598         229.714         164.282         164.282 
       0.392688         226.267         158.684         158.684 
        0.39888          220.09          153.22          153.22 
       0.405048         214.228           148.1           148.1 
       0.411186         209.464         143.345         143.345 
       0.417313         205.085          138.92          138.92 
       0.423458         200.441         134.761         134.761 
       0.429607         195.879         130.799         130.799 
       0.435692         189.965         127.012         127.012 
       0.441815         188.136         123.305         123.305 
       0.447964         184.156         119.671         119.671 
       0.454126         176.636         116.122         116.122 
       0.460267         174.343         112.708         112.708 
       0.466387         172.087         109.454         109.454 
        0.47254         167.783         106.338         106.338 
       0.478662         166.675         103.387         103.387 
       0.484765         161.218         100.589         100.589 
       0.490885         158.714         97.9069         97.9069 
       0.497035         156.264         95.3112         95.3112 
       0.503198         152.066         92.7906         92.7906 
       0.509342         149.885         90.3516         90.3516 
       0.515458         147.636         87.9988         87.9988 
       0.521598         144.904          85.713          85.713 
       0.527764         142.767         83.4962         83.4962 
       0.533884         140.552         81.3763         81.3763 
           0.54         137.953         79.3399         79.3399 
       0.546137          136.62         77.3778         77.3778 
       0.552299         134.024         75.4826         75.4826 
       0.558452         131.871         73.6568         73.6568 
       0.564573         129.607         71.8979         71.8979 
       0.570708          127.12         70.1876         70.1876 
       0.576825         125.425         68.5342         68.5342 
       0.582926         123.069         66.9364         66.9364 
       0.589034         121.326         65.3875         65.3875 
       0.595184         119.641         63.8786         63.8786 
       0.601379         118.122         62.4084         62.4084 
       0.607522         115.514         60.9975         60.9975 
       0.613639         114.762         59.6371         59.6371 
       0.619772         112.335          58.316          58.316 
       0.625918         110.912         57.0334         57.0334 
       0.632068         109.622         55.7892         55.7892 
       0.638161         108.454         54.5934         54.5934 
         0.6443         106.974          53.424          53.424 
       0.650464         105.692         52.2841         52.2841 
       0.656582         104.005         51.1852         51.1852 
       0.662703         102.532         50.1173         50.1173 
       0.668861             101         49.0737         49.0737 
       0.675024         99.6786         48.0592         48.0592 
       0.681124         98.8499         47.0839         47.0839 
       0.687237         96.9735         46.1341         46.1341 
       0.693381         95.6277         45.2066         45.2066 
       0.699536         94.8239         44.3033         44.3033 
       0.705665         94.6736         43.4288         43.4288 
       0.711789         92.3129         42.5789         42.5789 
       0.717957         91.8695          41.746          41.746 
        0.72409         90.3836         40.9401         40.9401 
       0.730186         88.9009         40.1604         40.1604 
       0.736317         88.5065         39.3967         39.3967 
       0.742472         87.6225           38.65           38.65 
       0.748622         86.6206         37.9235         37.9235 
        0.75476         85.6772         37.2172         37.2172 
       0.760888         84.4487           36.53           36.53 
       0.767043         83.8443         35.8574         35.8574 
       0.773185         82.8053         35.2033         35.2033 
       0.779291         81.7369         34.5692         34.5692 
       0.785407         81.1675         33.9499         33.9499 
       0.791564          80.311          33.342          33.342 
       0.797719         78.9023         32.7492         32.7492 
       0.803834         78.5256         32.1747         32.1747 
       0.809972          77.272          31.612          31.612 
       0.816124         76.9031         31.0616         31.0616 
       0.822261         76.1632         30.5258         30.5258 
       0.828378         75.4779         30.0043         30.0043 
       0.834502         74.8659         29.4945         29.4945 
       0.840667         73.8671         28.9934         28.9934 
       0.846816         72.9434         28.5053         28.5053 
       0.852925         72.4174         28.0316         28.0316 
       0.859047         71.4104         27.5677         27.5677 
       0.865192         70.9458         27.1128         27.1128 
       0.871341         70.3932         26.6679         26.6679 
       0.877463         69.3535         26.2351         26.2351 
       0.883569         68.9723          25.813          25.813 
       0.889708         68.4226          25.398          25.398 
       0.895864         67.7997         24.9911         24.9911 
       0.902008         67.1746          24.594          24.594 
       0.908149         66.6671         24.2058         24.2058 
       0.914301         65.9497         23.8254         23.8254 
       0.920448         65.4729         23.4535         23.4535 
       0.926574         64.7808         23.0909         23.0909 
       0.932687         64.6204         22.7367         22.7367 
       0.938823         63.5244         22.3887         22.3887 
       0.944975         63.0178         22.0472         22.0472 
       0.951105         62.5099         21.7141         21.7141 
       0.957225          61.788         21.3884         21.3884 
       0.963368         61.5449         21.0683         21.0683 
       0.969511         61.1739         20.7547         20.7547 
       0.975621         60.7632         20.4493         20.4493 
       0.981748         60.1009         20.1492         20.1492 
       0.987916         59.4955         19.8532         19.8532 
        0.99406         59.1354         19.5643         19.5643 
        1.00019         58.5677         19.2817         19.2817 
        1.00632         58.1941          19.005          19.005 
        1.01246         57.7517         18.7333         18.7333 
        1.01859          56.921         18.4673         18.4673 
        1.02471          56.867         18.2069         18.2069 
        1.03085         56.3038         17.9506         17.9506 
        1.03698         55.8869         17.6997         17.6997 
        1.04314         55.3696         17.4526         17.4526 
        1.04929         54.9725         17.2108         17.2108 
        1.05541         54.4281         16.9745         16.9745 
        1.06154          54.339         16.7421         16.7421 
        1.06769         53.8182         16.5137         16.5137 
        1.07382         53.5742         16.2904         16.2904 
        1.07993          53.174         16.0716         16.0716 
        1.08607         52.7151          15.856          15.856 
        1.09222         52.4118         15.6441         15.6441 
        1.09836         51.9754         15.4363         15.4363 
        1.10449         51.6364         15.2326         15.2326 
        1.11063         51.1407         15.0323         15.0323 
        1.11677         50.8429         14.8357         14.8357 
         1.1229         50.3853          14.643          14.643 
        1.12903         49.7501         14.4535         14.4535 
        1.13518         49.9509         14.2672         14.2672 
        1.14131         49.5863         14.0843         14.0843 
        1.14745         48.9247         13.9047         13.9047 
        1.15359         48.7994         13.7283         13.7283 
        1.15973         48.2923         13.5548         13.5548 
        1.16584         48.0153          13.385          13.385 
        1.17197         47.7039          13.218          13.218 
        1.17811         47.4706         13.0533         13.0533 
        1.18424         47.0302         12.8918         12.8918 
        1.19038          46.708         12.7327         12.7327 
        1.19652         46.5542         12.5763         12.5763 
        1.20267         46.0912         12.4225         12.4225 
        1.20881         45.8681         12.2713         12.2713 
        1.21495         45.4365         12.1229         12.1229 
        1.22108         45.2591         11.9769         11.9769 
         1.2272         44.7451         11.8337         11.8337 
        1.23334         44.5834         11.6925         11.6925 
        1.23949         44.4911         11.5533         11.5533 
        1.24562         43.9912         11.4167         11.4167 
        1.25174         43.8314         11.2826         11.2826 
        1.25789         43.6283         11.1501         11.1501 
        1.26402         43.2739         11.0201         11.0201 
        1.27014          42.816         10.8924         10.8924 
        1.27628         42.6454         10.7663         10.7663 
        1.28244         42.3483         10.6421         10.6421 
        1.28858         42.1746         10.5199         10.5199 
        1.29471          42.019         10.3999         10.3999 
        1.30084          41.731         10.2819         10.2819 
        1.30697         41.3992         10.1656         10.1656 
        1.31312         41.1065         10.0509         10.0509 
        1.31925         40.9537         9.93828         9.93828 
        1.32537         40.7419         9.82753         9.82753 
        1.33151         40.3301         9.71807         9.71807 
        1.33765          40.214         9.61035         9.61035 
        1.34378          39.936         9.50447         9.50447 
        1.34992         39.6936         9.40011         9.40011 
        1.35606         39.4536         9.29709         9.29709 
         1.3622          39.166          9.1958          9.1958 
        1.36833         38.9489         9.09626         9.09626 
        1.37445         38.7968         8.99824         8.99824 
        1.38059         38.5318         8.90136         8.90136 
        1.38675         38.2594         8.80567         8.80567 
        1.39288         38.1277         8.71177         8.71177 
        1.39901         37.8661         8.61929         8.61929 
        1.40515         37.6468         8.52793         8.52793 
         1.4113         37.4947         8.43793         8.43793 
        1.41742         37.2951         8.34958         8.34958 
        1.42355         36.9838         8.26232         8.26232 
         1.4297         36.8341         8.17605         8.17605 
        1.43585         36.6693         8.09104         8.09104 
        1.44198         36.3441         8.00756         8.00756 
        1.44809         36.2562         7.92542         7.92542 
        1.45423         36.0536         7.84413         7.84413 
        1.46036         35.8799         7.76412         7.76412 
        1.46649         35.6651         7.68519         7.68519 
        1.47263         35.4045         7.60731         7.60731 
        1.47877         35.2684         7.53053         7.53053 
        1.48491         35.2288         7.45469         7.45469 
        1.49104         34.8806         7.38005         7.38005 
        1.49718         34.5175         7.30637         7.30637 
        1.50333         34.5058         7.23358         7.23358 
        1.50947         34.3707         7.16193         7.16193 
         1.5156         34.0945         7.09135         7.09135 
        1.52172         33.9529         7.02172         7.02172 
        1.52787         33.8689         6.95289         6.95289 
          1.534         33.6325         6.88505         6.88505 
        1.54013         33.4085         6.81819         6.81819 
        1.54627         33.3001          6.7521          6.7521 
        1.55241         32.9914         6.68687         6.68687 
        1.55855         32.8878         6.62259         6.62259 
        1.56467         32.5729         6.55933         6.55933 
         1.5708          32.639         6.49672         6.49672 
        1.57695         32.3622         6.43483         6.43483 
        1.58308         32.1889         6.37388         6.37388 
        1.58922         32.1622         6.31369         6.31369 
        1.59535          31.974         6.25429         6.25429 
         1.6015         31.6882         6.19557         6.19557 
        1.60764         31.5091         6.13763         6.13763 
        1.61376         31.3948         6.08059         6.08059 
        1.61989         31.1718         6.02423         6.02423 
        1.62604         31.0794         5.96846         5.96846 
        1.63218         31.0106         5.91342         5.91342 
        1.63831         30.7761          5.8592          5.8592 
        1.64444          30.624         5.80564         5.80564 
        1.65059         30.4301         5.75263         5.75263 
        1.65673          30.255         5.70032         5.70032 
        1.66285         30.1225         5.64882         5.64882 
        1.66898         29.9729         5.59793         5.59793 
        1.67512         29.8266         5.54757         5.54757 
        1.68127          29.635         5.49778         5.49778 
         1.6874         29.5204         5.44871         5.44871 
        1.69353         29.3732         5.40026         5.40026 
        1.69967         29.2206         5.35229         5.35229 
        1.70581         29.1536         5.30492         5.30492 
        1.71193         28.9929         5.25831         5.25831 
        1.71806         28.7482         5.21215         5.21215 
        1.72421         28.6133         5.16646         5.16646 
        1.73035         28.4814         5.12136         5.12136 
        1.73649         28.2888         5.07681         5.07681 
        1.74262         28.2158         5.03283         5.03283 
        1.74876         28.1643         4.98933         4.98933 
        1.75489         27.9684         4.94644         4.94644 
        1.76101         27.8064         4.90406         4.90406 
        1.76715         27.7058         4.86212         4.86212 
        1.77329         27.5722         4.82062         4.82062 
        1.77943         27.4573         4.77959         4.77959 
        1.78557         27.2716         4.73909         4.73909 
        1.79171         27.1366         4.69905         4.69905 
        1.79785         27.0088         4.65947         4.65947 
        1.80399         26.9415         4.62035         4.62035 
        1.81012         26.7848         4.58173         4.58173 
        1.81625         26.6445         4.54356         4.54356 
        1.82239         26.5412         4.50577         4.50577 
        1.82853         26.3615         4.46843         4.46843 
        1.83466          26.276         4.43155         4.43155 
        1.84078         26.0549         4.39512         4.39512 
        1.84692         25.9722         4.35904         4.35904 
        1.85306         25.8409         4.32332         4.32332 
         1.8592         25.7201         4.28805         4.28805 
        1.86533         25.5923          4.2532          4.2532 
        1.87147          25.529         4.21869         4.21869 
        1.87761         25.4167         4.18455         4.18455 
