# k  (h/Mpc)    P(k)  (Mpc/h)^3    P_linear(k)  (Mpc/h)^3     P_NL(k)  ShotnoiseSubtracted = false
     0.00783031         1153.19         1165.15         1165.15 
       0.013688         1355.61         1357.16         1357.16 
       0.019231         1309.76         1309.07         1309.07 
      0.0249154         1150.36         1155.76         1155.76 
      0.0312784          957.97          957.48          957.48 
      0.0375637         793.989         790.964         790.964 
      0.0433917         679.341         679.363         679.363 
      0.0492413         605.563         604.546         604.546 
      0.0555754         548.931         550.926         550.926 
      0.0619321         510.791         508.638         508.638 
       0.067871         466.727          468.04          468.04 
      0.0738098         420.713         422.074         422.074 
      0.0800417         368.419         370.196         370.196 
      0.0862327         320.564         320.824         320.824 
      0.0921407         281.669         280.932         280.932 
      0.0982031          249.92         249.983         249.983 
       0.104506         229.832         228.136         228.136 
       0.110769         215.116         214.017         214.017 
       0.116806         203.799         203.873         203.873 
       0.122832          194.46         193.838         193.838 
       0.129052         181.125         181.481         181.481 
       0.135211         166.703          166.96          166.96 
       0.141259         152.364         151.678         151.678 
       0.147318         138.432         137.112         137.112 
       0.153489         125.494         124.543         124.543 
       0.159709         115.992         114.893         114.893 
       0.165845         109.922          108.14          108.14 
       0.171974          104.12          103.31          103.31 
       0.178125         100.207         99.2935         99.2935 
       0.184229         96.2401         95.1767         95.1767 
        0.19034         90.5514          90.384          90.384 
       0.196428         85.7605         84.9131         84.9131 
       0.202534          80.689         79.1044         79.1044 
       0.208729         74.6845         73.4372         73.4372 
       0.214876         69.4488         68.5081         68.5081 
       0.220989         66.0529         64.5198         64.5198 
       0.227147         62.3501         61.3883         61.3883 
        0.23329          59.845         58.9115         58.9115 
       0.239377          57.809         56.7701         56.7701 
       0.245482         55.2397         54.6421         54.6421 
       0.251667         53.3686         52.3265         52.3265 
       0.257832         50.8372         49.8259         49.8259 
       0.263955         48.2944         47.2526         47.2526 
       0.270079         45.8777         44.7473         44.7473 
        0.27624         43.9043         42.4419         42.4419 
       0.282372         41.9139         40.4488         40.4488 
        0.28843         40.0265         38.7758         38.7758 
       0.294538         38.4915         37.3297         37.3297 
       0.300721         37.4055         36.0138         36.0138 
        0.30691         35.8681         34.7499         34.7499 
       0.313033         34.5891         33.4856         33.4856 
       0.319153         32.9219         32.1893         32.1893 
       0.325316         32.1205         30.8691         30.8691 
        0.33145         30.7085         29.5843         29.5843 
       0.337538         29.5819         28.3803         28.3803 
       0.343633         28.3706         27.2791         27.2791 
       0.349808         27.4425          26.274          26.274 
       0.355968         26.5713         25.3718         25.3718 
       0.362074         25.6746         24.5475         24.5475 
       0.368217         24.8495         23.7593         23.7593 
       0.374374         23.9927         22.9883         22.9883 
       0.380519         23.3138         22.2239         22.2239 
       0.386598         22.5863         21.4765         21.4765 
       0.392688         21.9566         20.7447         20.7447 
        0.39888         21.1744         20.0305         20.0305 
       0.405048         20.5479         19.3611         19.3611 
       0.411186         19.9415         18.7395         18.7395 
       0.417313         19.2602         18.1609         18.1609 
       0.423458          18.725         17.6172         17.6172 
       0.429607         18.1507         17.0994         17.0994 
       0.435692          17.615         16.6043         16.6043 
       0.441815         17.1677         16.1197         16.1197 
       0.447964         16.7866         15.6446         15.6446 
       0.454126         16.1479         15.1807         15.1807 
       0.460267         15.7583         14.7343         14.7343 
       0.466387         15.2372         14.3089         14.3089 
        0.47254         14.9078         13.9015         13.9015 
       0.478662         14.5716         13.5158         13.5158 
       0.484765         14.1139           13.15           13.15 
       0.490885         13.7649         12.7994         12.7994 
       0.497035         13.5236           12.46           12.46 
       0.503198         13.1357         12.1305         12.1305 
       0.509342         12.8024         11.8117         11.8117 
       0.515458         12.4499         11.5041         11.5041 
       0.521598         12.1751         11.2053         11.2053 
       0.527764         11.8512         10.9155         10.9155 
       0.533884          11.627         10.6383         10.6383 
           0.54         11.3311         10.3721         10.3721 
       0.546137         11.0911         10.1156         10.1156 
       0.552299         10.8504         9.86785         9.86785 
       0.558452         10.5147         9.62916         9.62916 
       0.564573         10.3403         9.39922         9.39922 
       0.570708         10.1102         9.17563         9.17563 
       0.576825         9.83639         8.95948         8.95948 
       0.582926          9.6456         8.75061         8.75061 
       0.589034         9.35343         8.54812         8.54812 
       0.595184         9.19418         8.35086         8.35086 
       0.601379         8.97603         8.15866         8.15866 
       0.607522         8.82326         7.97421         7.97421 
       0.613639         8.67955         7.79636         7.79636 
       0.619772         8.43481         7.62366         7.62366 
       0.625918         8.33141         7.45598         7.45598 
       0.632068         8.18346         7.29333         7.29333 
       0.638161          7.9624           7.137           7.137 
         0.6443         7.79265         6.98412         6.98412 
       0.650464         7.61338         6.83511         6.83511 
       0.656582         7.53139         6.69145         6.69145 
       0.662703         7.37399         6.55184         6.55184 
       0.668861         7.23129         6.41542         6.41542 
       0.675024         7.06943         6.28279         6.28279 
       0.681124         6.93429         6.15528         6.15528 
       0.687237         6.81263         6.03112         6.03112 
       0.693381         6.69553         5.90986         5.90986 
       0.699536         6.51145         5.79177         5.79177 
       0.705665         6.41932         5.67745         5.67745 
       0.711789         6.30187         5.56635         5.56635 
       0.717957         6.17743         5.45747         5.45747 
        0.72409         6.06094         5.35211         5.35211 
       0.730186         5.97146         5.25017         5.25017 
       0.736317         5.89292         5.15033         5.15033 
       0.742472          5.7866         5.05273         5.05273 
       0.748622         5.67651         4.95774         4.95774 
        0.75476         5.54534         4.86541         4.86541 
       0.760888         5.46381         4.77557         4.77557 
       0.767043         5.39049         4.68765         4.68765 
       0.773185         5.26918         4.60213         4.60213 
       0.779291         5.20974         4.51924         4.51924 
       0.785407         5.11791         4.43828         4.43828 
       0.791564         5.03254          4.3588          4.3588 
       0.797719          4.9381         4.28131         4.28131 
       0.803834         4.88831         4.20621         4.20621 
       0.809972         4.81625         4.13265         4.13265 
       0.816124         4.70602         4.06069         4.06069 
       0.822261         4.62142         3.99064         3.99064 
       0.828378         4.56379         3.92246         3.92246 
       0.834502         4.51254         3.85583         3.85583 
       0.840667         4.41489         3.79031         3.79031 
       0.846816         4.33544         3.72651         3.72651 
       0.852925         4.29237         3.66458         3.66458 
       0.859047         4.22208         3.60393         3.60393 
       0.865192         4.16984         3.54447         3.54447 
       0.871341         4.11229         3.48631         3.48631 
       0.877463         4.04446         3.42972         3.42972 
       0.883569         3.96825         3.37454         3.37454 
       0.889708         3.90077         3.32029         3.32029 
       0.895864         3.85047         3.26709         3.26709 
       0.902008         3.79888         3.21518         3.21518 
       0.908149         3.75162         3.16443         3.16443 
       0.914301         3.68225          3.1147          3.1147 
       0.920448         3.62589         3.06608         3.06608 
       0.926574         3.57182         3.01868         3.01868 
       0.932687         3.52841         2.97238         2.97238 
       0.938823         3.47977         2.92688         2.92688 
       0.944975         3.42932         2.88224         2.88224 
       0.951105         3.38589         2.83869         2.83869 
       0.957225         3.36222         2.79611         2.79611 
       0.963368         3.30534         2.75426         2.75426 
       0.969511         3.25489         2.71327         2.71327 
       0.975621         3.20669         2.67334         2.67334 
       0.981748         3.17021          2.6341          2.6341 
       0.987916         3.12641         2.59541         2.59541 
        0.99406         3.07071         2.55764         2.55764 
        1.00019         3.03014          2.5207          2.5207 
        1.00632         2.99797         2.48453         2.48453 
        1.01246         2.95947         2.44901         2.44901 
        1.01859         2.91911         2.41424         2.41424 
        1.02471         2.88238         2.38019         2.38019 
        1.03085         2.84311         2.34668         2.34668 
        1.03698          2.8016         2.31389         2.31389 
        1.04314          2.7723         2.28159         2.28159 
        1.04929         2.73509         2.24997         2.24997 
        1.05541         2.69849         2.21909         2.21909 
        1.06154          2.6678          2.1887          2.1887 
        1.06769         2.64507         2.15885         2.15885 
        1.07382         2.60087         2.12964         2.12964 
        1.07993         2.56245         2.10105         2.10105 
        1.08607          2.5457         2.07286         2.07286 
        1.09222         2.50877         2.04516         2.04516 
        1.09836         2.48194           2.018           2.018 
        1.10449         2.45267         1.99136         1.99136 
        1.11063         2.41705         1.96518         1.96518 
        1.11677         2.39194         1.93948         1.93948 
         1.1229         2.36258         1.91428         1.91428 
        1.12903          2.3313         1.88951         1.88951 
        1.13518         2.30752         1.86516         1.86516 
        1.14131          2.2715         1.84125         1.84125 
        1.14745         2.23695         1.81777         1.81777 
        1.15359         2.22337          1.7947          1.7947 
        1.15973         2.18871         1.77202         1.77202 
        1.16584         2.17102         1.74983         1.74983 
        1.17197         2.14482         1.72799         1.72799 
        1.17811         2.12533         1.70646         1.70646 
        1.18424         2.10182         1.68535         1.68535 
        1.19038         2.07823         1.66455         1.66455 
        1.19652         2.05449          1.6441          1.6441 
        1.20267         2.03252           1.624           1.624 
        1.20881         2.00781         1.60423         1.60423 
        1.21495         1.98915         1.58483         1.58483 
        1.22108         1.96578         1.56575         1.56575 
         1.2272         1.94831         1.54703         1.54703 
        1.23334         1.91954         1.52857         1.52857 
        1.23949         1.89809         1.51037         1.51037 
        1.24562         1.88377         1.49251         1.49251 
        1.25174         1.85865         1.47497         1.47497 
        1.25789         1.84217         1.45766         1.45766 
        1.26402         1.81894         1.44066         1.44066 
        1.27014         1.79949         1.42397         1.42397 
        1.27628          1.7868         1.40749         1.40749 
        1.28244         1.76013         1.39124         1.39124 
        1.28858          1.7476         1.37527         1.37527 
        1.29471         1.72486         1.35958         1.35958 
        1.30084         1.70499         1.34416         1.34416 
        1.30697         1.69604         1.32895         1.32895 
        1.31312          1.6648         1.31395         1.31395 
        1.31925         1.65469         1.29923         1.29923 
        1.32537         1.63657         1.28476         1.28476 
        1.33151          1.6263         1.27045         1.27045 
        1.33765         1.60269         1.25636         1.25636 
        1.34378         1.58856         1.24252         1.24252 
        1.34992         1.57767         1.22888         1.22888 
        1.35606         1.55184         1.21541         1.21541 
         1.3622         1.54389         1.20217         1.20217 
        1.36833         1.52658         1.18916         1.18916 
        1.37445         1.50927         1.17634         1.17634 
        1.38059         1.50013         1.16368         1.16368 
        1.38675          1.4888         1.15117         1.15117 
        1.39288         1.46956         1.13889         1.13889 
        1.39901         1.45189          1.1268          1.1268 
        1.40515         1.43915         1.11486         1.11486 
         1.4113         1.42679         1.10309         1.10309 
        1.41742         1.41429         1.09154         1.09154 
        1.42355         1.40287         1.08014         1.08014 
         1.4297         1.38563         1.06886         1.06886 
        1.43585          1.3763         1.05774         1.05774 
        1.44198         1.36474         1.04683         1.04683 
        1.44809         1.34738         1.03609         1.03609 
        1.45423         1.33522         1.02547         1.02547 
        1.46036         1.32198         1.01501         1.01501 
        1.46649         1.31051         1.00469         1.00469 
        1.47263         1.29653        0.994506        0.994506 
        1.47877         1.28331        0.984469        0.984469 
        1.48491         1.27325        0.974554        0.974554 
        1.49104         1.26311        0.964797        0.964797 
        1.49718         1.25177        0.955165        0.955165 
        1.50333         1.23909        0.945649        0.945649 
        1.50947         1.22924        0.936282        0.936282 
         1.5156         1.21735        0.927056        0.927056 
        1.52172         1.20646        0.917953        0.917953 
        1.52787         1.19544        0.908954        0.908954 
          1.534         1.18486        0.900086        0.900086 
        1.54013         1.17387        0.891345        0.891345 
        1.54627         1.16156        0.882705        0.882705 
        1.55241         1.15152        0.874177        0.874177 
        1.55855         1.14386        0.865774        0.865774 
        1.56467         1.13405        0.857504        0.857504 
         1.5708         1.12084        0.849319        0.849319 
        1.57695         1.11409        0.841228        0.841228 
        1.58308         1.10318        0.833261        0.833261 
        1.58922         1.09483        0.825391        0.825391 
        1.59535         1.08498        0.817626        0.817626 
         1.6015         1.07576         0.80995         0.80995 
        1.60764         1.06844        0.802375        0.802375 
        1.61376         1.05918        0.794919        0.794919 
        1.61989         1.04847        0.787551        0.787551 
        1.62604         1.03876        0.780259        0.780259 
        1.63218         1.03368        0.773064        0.773064 
        1.63831         1.02218        0.765976        0.765976 
        1.64444         1.01348        0.758975        0.758975 
        1.65059         1.00647        0.752044        0.752044 
        1.65673        0.997278        0.745206        0.745206 
        1.66285        0.988051        0.738473        0.738473 
        1.66898        0.982433         0.73182         0.73182 
        1.67512        0.970718        0.725236        0.725236 
        1.68127        0.964242        0.718727        0.718727 
         1.6874        0.959572        0.712312        0.712312 
        1.69353        0.946805        0.705979        0.705979 
        1.69967        0.939439        0.699708        0.699708 
        1.70581        0.935698        0.693515        0.693515 
        1.71193        0.925924        0.687421        0.687421 
        1.71806        0.920675        0.681387        0.681387 
        1.72421        0.912559        0.675413        0.675413 
        1.73035        0.903575        0.669518        0.669518 
        1.73649        0.897827        0.663694        0.663694 
        1.74262        0.890472        0.657944        0.657944 
        1.74876        0.883566        0.652258        0.652258 
        1.75489        0.874329         0.64665         0.64665 
        1.76101        0.868402        0.641111        0.641111 
        1.76715          0.8625        0.635628        0.635628 
        1.77329        0.856417        0.630203        0.630203 
        1.77943        0.847306        0.624838        0.624838 
        1.78557        0.841437        0.619544        0.619544 
        1.79171        0.837604         0.61431         0.61431 
        1.79785        0.828306        0.609135        0.609135 
        1.80399        0.823086         0.60402         0.60402 
        1.81012          0.8174        0.598972        0.598972 
        1.81625        0.810275        0.593982        0.593982 
        1.82239        0.804359        0.589042        0.589042 
        1.82853        0.795589         0.58416         0.58416 
        1.83466        0.791926        0.579339        0.579339 
        1.84078        0.785642        0.574576        0.574576 
        1.84692        0.781146        0.569859        0.569859 
        1.85306        0.774022         0.56519         0.56519 
         1.8592        0.768415        0.560579        0.560579 
        1.86533        0.762032        0.556023        0.556023 
        1.87147         0.75746        0.551512        0.551512 
        1.87761        0.751331        0.547049        0.547049 
