# k  (h/Mpc)    Pcb(k)  (Mpc/h)^3    Pcb_linear(k) (Mpc/h)^3    Pcb_NL(k) (Mpc/h)^3   ShotnoiseSubtracted = false
     0.00783031         11606.2         11763.7         11763.7 
       0.013688         13792.2         13685.2         13685.2 
       0.019231         13237.7           13195           13195 
      0.0249154           11470         11647.4         11647.4 
      0.0312784         9599.02            9648            9648 
      0.0375637         8009.68         7969.54         7969.54 
      0.0433917         6787.49         6844.79         6844.79 
      0.0492413         6087.81          6090.8          6090.8 
      0.0555754         5447.47         5550.44         5550.44 
      0.0619321         5166.97         5124.31         5124.31 
       0.067871         4647.91         4715.25         4715.25 
      0.0738098          4197.6         4252.12         4252.12 
      0.0800417         3663.49         3729.45         3729.45 
      0.0862327         3220.93         3232.04         3232.04 
      0.0921407         2873.64         2830.15         2830.15 
      0.0982031          2544.2         2518.35         2518.35 
       0.104506            2384         2298.26         2298.26 
       0.110769         2224.08         2156.01         2156.01 
       0.116806          2103.5         2053.81         2053.81 
       0.122832         2006.87         1952.72         1952.72 
       0.129052         1849.12         1828.24         1828.24 
       0.135211         1716.72         1681.94         1681.94 
       0.141259         1600.44         1527.99         1527.99 
       0.147318         1474.09         1381.26         1381.26 
       0.153489         1337.14         1254.63         1254.63 
       0.159709          1256.1         1157.42         1157.42 
       0.165845         1203.59         1089.39         1089.39 
       0.171974         1141.44         1040.73         1040.73 
       0.178125         1093.35         1000.27         1000.27 
       0.184229         1048.37         958.797         958.797 
        0.19034         977.284         910.515         910.515 
       0.196428         947.078           855.4           855.4 
       0.202534         904.077         796.884         796.884 
       0.208729         847.982         739.793         739.793 
       0.214876         799.706         690.137         690.137 
       0.220989         768.702         649.962         649.962 
       0.227147         732.348         618.417         618.417 
        0.23329         703.787         593.463         593.463 
       0.239377         688.145         571.891         571.891 
       0.245482         642.437         550.454         550.454 
       0.251667         634.507         527.126         527.126 
       0.257832          608.53         501.935         501.935 
       0.263955         584.634         476.012         476.012 
       0.270079          559.81         450.774         450.774 
        0.27624          549.89         427.552         427.552 
       0.282372         527.153         407.472         407.472 
        0.28843         512.969         390.619         390.619 
       0.294538         487.453         376.051         376.051 
       0.300721          483.67         362.795         362.795 
        0.30691         461.133         350.063         350.063 
       0.313033         450.879         337.327         337.327 
       0.319153         435.798         324.268         324.268 
       0.325316         422.923         310.968         310.968 
        0.33145         408.988         298.025         298.025 
       0.337538         401.906         285.898         285.898 
       0.343633         388.428         274.802         274.802 
       0.349808         374.687         264.679         264.679 
       0.355968         370.331          255.59          255.59 
       0.362074         362.808         247.286         247.286 
       0.368217         352.358         239.346         239.346 
       0.374374         337.392         231.577         231.577 
       0.380519         334.284         223.878         223.878 
       0.386598         325.242         216.349         216.349 
       0.392688           321.7         208.977         208.977 
        0.39888          312.67         201.783         201.783 
       0.405048          304.85         195.039         195.039 
       0.411186          298.87         188.777         188.777 
       0.417313         292.958         182.949         182.949 
       0.423458         286.602         177.472         177.472 
       0.429607         280.963         172.255         172.255 
       0.435692         273.199         167.268         167.268 
       0.441815         270.528         162.386         162.386 
       0.447964         264.523         157.599         157.599 
       0.454126          255.81         152.926         152.926 
       0.460267           251.9          148.43          148.43 
       0.466387         248.919         144.145         144.145 
        0.47254         242.912          140.04          140.04 
       0.478662         242.088         136.155         136.155 
       0.484765         233.655          132.47          132.47 
       0.490885         230.666         128.938         128.938 
       0.497035         226.722         125.519         125.519 
       0.503198         221.783           122.2           122.2 
       0.509342         219.519         118.988         118.988 
       0.515458         216.411         115.889         115.889 
       0.521598         211.707         112.879         112.879 
       0.527764         208.619          109.96          109.96 
       0.533884         205.968         107.168         107.168 
           0.54         202.667         104.486         104.486 
       0.546137         201.161         101.902         101.902 
       0.552299         196.907         99.4062         99.4062 
       0.558452         195.025         97.0017         97.0017 
       0.564573         191.957         94.6853         94.6853 
       0.570708         187.838          92.433          92.433 
       0.576825         185.108         90.2555         90.2555 
       0.582926         182.449         88.1514         88.1514 
       0.589034         180.407         86.1116         86.1116 
       0.595184         178.215         84.1244         84.1244 
       0.601379         175.939         82.1883         82.1883 
       0.607522         172.644         80.3301         80.3301 
       0.613639         171.218         78.5386         78.5386 
       0.619772         167.625         76.7988         76.7988 
       0.625918         166.176         75.1096         75.1096 
       0.632068         163.799         73.4711         73.4711 
       0.638161         162.619         71.8963         71.8963 
         0.6443         160.132         70.3562         70.3562 
       0.650464         158.369         68.8551         68.8551 
       0.656582         156.389          67.408          67.408 
       0.662703         155.123         66.0016         66.0016 
       0.668861         152.372         64.6273         64.6273 
       0.675024          150.24         63.2912         63.2912 
       0.681124          149.42         62.0067         62.0067 
       0.687237         147.066         60.7559         60.7559 
       0.693381         144.752         59.5344         59.5344 
       0.699536          143.77         58.3448         58.3448 
       0.705665         142.871         57.1932         57.1932 
       0.711789         140.357         56.0739         56.0739 
       0.717957         139.894         54.9771         54.9771 
        0.72409         137.796         53.9158         53.9158 
       0.730186         135.784         52.8888         52.8888 
       0.736317         134.582         51.8831         51.8831 
       0.742472         133.626         50.8998         50.8998 
       0.748622         132.302          49.943          49.943 
        0.75476         130.989         49.0128         49.0128 
       0.760888         129.272         48.1078         48.1078 
       0.767043         128.772         47.2221         47.2221 
       0.773185         127.342         46.3607         46.3607 
       0.779291         125.027         45.5256         45.5256 
       0.785407         124.505         44.7101         44.7101 
       0.791564         123.356         43.9094         43.9094 
       0.797719         121.228         43.1288         43.1288 
       0.803834         120.657         42.3723         42.3723 
       0.809972         119.466         41.6312         41.6312 
       0.816124         118.965         40.9063         40.9063 
       0.822261         117.614         40.2007         40.2007 
       0.828378         116.481         39.5139         39.5139 
       0.834502         116.146         38.8426         38.8426 
       0.840667          114.22         38.1826         38.1826 
       0.846816          113.01         37.5398         37.5398 
       0.852925          112.47          36.916          36.916 
       0.859047         111.069         36.3051         36.3051 
       0.865192         110.095          35.706          35.706 
       0.871341         109.159         35.1201         35.1201 
       0.877463         107.976         34.5501         34.5501 
       0.883569         107.625         33.9942         33.9942 
       0.889708          106.57         33.4477         33.4477 
       0.895864         105.381         32.9118         32.9118 
       0.902008         104.689         32.3889         32.3889 
       0.908149         104.123         31.8776         31.8776 
       0.914301         102.903         31.3766         31.3766 
       0.920448         102.129         30.8869         30.8869 
       0.926574         101.364         30.4093         30.4093 
       0.932687         101.223         29.9429         29.9429 
       0.938823           99.57         29.4846         29.4846 
       0.944975         98.5791         29.0349         29.0349 
       0.951105         98.0775         28.5962         28.5962 
       0.957225         97.0729         28.1673         28.1673 
       0.963368         96.0902         27.7457         27.7457 
       0.969511         95.9483         27.3328         27.3328 
       0.975621          95.291         26.9305         26.9305 
       0.981748          94.655         26.5353         26.5353 
       0.987916         93.5741         26.1455         26.1455 
        0.99406         92.8674          25.765          25.765 
        1.00019         92.5028         25.3929         25.3929 
        1.00632         91.5718         25.0284         25.0284 
        1.01246         91.0718         24.6706         24.6706 
        1.01859          90.029         24.3204         24.3204 
        1.02471         89.4491         23.9774         23.9774 
        1.03085          88.649         23.6398         23.6398 
        1.03698         88.2876         23.3095         23.3095 
        1.04314         87.4054         22.9841         22.9841 
        1.04929         86.8994         22.6656         22.6656 
        1.05541         86.1336         22.3545         22.3545 
        1.06154         85.7694         22.0484         22.0484 
        1.06769          85.416         21.7476         21.7476 
        1.07382         84.7427         21.4534         21.4534 
        1.07993          84.062         21.1654         21.1654 
        1.08607          83.413         20.8814         20.8814 
        1.09222         83.1721         20.6024         20.6024 
        1.09836          82.386         20.3288         20.3288 
        1.10449          81.812         20.0605         20.0605 
        1.11063          81.155         19.7967         19.7967 
        1.11677         80.8121         19.5378         19.5378 
         1.1229         79.9852          19.284          19.284 
        1.12903         79.3297         19.0344         19.0344 
        1.13518         79.3699         18.7891         18.7891 
        1.14131         78.7159         18.5482         18.5482 
        1.14745         78.0447         18.3117         18.3117 
        1.15359         77.5892         18.0793         18.0793 
        1.15973          77.179         17.8508         17.8508 
        1.16584         76.4913         17.6273         17.6273 
        1.17197         76.0785         17.4073         17.4073 
        1.17811         75.6068         17.1904         17.1904 
        1.18424         75.1342         16.9778         16.9778 
        1.19038         74.7458         16.7682         16.7682 
        1.19652         74.2617         16.5622         16.5622 
        1.20267         73.5428         16.3597         16.3597 
        1.20881         73.1789         16.1606         16.1606 
        1.21495         72.6715         15.9651         15.9651 
        1.22108         72.3795         15.7729         15.7729 
         1.2272         71.5761         15.5843         15.5843 
        1.23334         71.3358         15.3984         15.3984 
        1.23949         70.8938          15.215          15.215 
        1.24562          70.404         15.0352         15.0352 
        1.25174         70.0036         14.8585         14.8585 
        1.25789         69.7242         14.6841         14.6841 
        1.26402         69.2024         14.5128         14.5128 
        1.27014         68.7073         14.3446         14.3446 
        1.27628          68.378         14.1786         14.1786 
        1.28244         67.8589          14.015          14.015 
        1.28858         67.7013         13.8541         13.8541 
        1.29471         67.2383         13.6961         13.6961 
        1.30084          66.813         13.5407         13.5407 
        1.30697         66.3515         13.3875         13.3875 
        1.31312         65.9883         13.2364         13.2364 
        1.31925         65.5722         13.0881         13.0881 
        1.32537         65.2858         12.9423         12.9423 
        1.33151         64.6668         12.7981         12.7981 
        1.33765         64.4092         12.6563         12.6563 
        1.34378         64.0311         12.5168         12.5168 
        1.34992         63.7544         12.3794         12.3794 
        1.35606         63.3617         12.2437         12.2437 
         1.3622          62.754         12.1103         12.1103 
        1.36833         62.6481         11.9792         11.9792 
        1.37445         62.2088         11.8501         11.8501 
        1.38059         61.7573         11.7226         11.7226 
        1.38675         61.4173         11.5966         11.5966 
        1.39288         61.0853         11.4729         11.4729 
        1.39901         60.8391         11.3511         11.3511 
        1.40515         60.4019         11.2308         11.2308 
         1.4113         60.1209         11.1123         11.1123 
        1.41742         60.0114         10.9959         10.9959 
        1.42355         59.4345          10.881          10.881 
         1.4297         59.2271         10.7674         10.7674 
        1.43585         58.7395         10.6554         10.6554 
        1.44198         58.4091         10.5455         10.5455 
        1.44809          58.182         10.4373         10.4373 
        1.45423         57.8446         10.3303         10.3303 
        1.46036         57.6206         10.2249         10.2249 
        1.46649         57.2386         10.1209         10.1209 
        1.47263         56.8369         10.0184         10.0184 
        1.47877         56.6444         9.91726         9.91726 
        1.48491         56.3404         9.81738         9.81738 
        1.49104         56.0358         9.71909         9.71909 
        1.49718         55.5989         9.62206         9.62206 
        1.50333         55.3951          9.5262          9.5262 
        1.50947         55.1058         9.43184         9.43184 
         1.5156         54.7763         9.33889         9.33889 
        1.52172         54.5113          9.2472          9.2472 
        1.52787         54.3744         9.15654         9.15654 
          1.534         53.9015         9.06721         9.06721 
        1.54013         53.5927         8.97916         8.97916 
        1.54627         53.4429         8.89212         8.89212 
        1.55241         52.9604         8.80621         8.80621 
        1.55855         52.7495         8.72156         8.72156 
        1.56467         52.4204         8.63825         8.63825 
         1.5708         52.3286          8.5558          8.5558 
        1.57695         52.1144         8.47429         8.47429 
        1.58308         51.6429         8.39403         8.39403 
        1.58922         51.4719         8.31475         8.31475 
        1.59535         51.3325         8.23653         8.23653 
         1.6015         50.8194          8.1592          8.1592 
        1.60764         50.6699          8.0829          8.0829 
        1.61376         50.3626         8.00778         8.00778 
        1.61989         50.0895         7.93356         7.93356 
        1.62604         49.9106         7.86011         7.86011 
        1.63218         49.7499         7.78763         7.78763 
        1.63831         49.3041         7.71623         7.71623 
        1.64444         49.1081         7.64569         7.64569 
        1.65059         48.8682         7.57587         7.57587 
        1.65673         48.6379         7.50699         7.50699 
        1.66285         48.2761         7.43916         7.43916 
        1.66898          48.149         7.37214         7.37214 
        1.67512         47.7718         7.30582         7.30582 
        1.68127          47.563         7.24025         7.24025 
         1.6874          47.382         7.17562         7.17562 
        1.69353         47.1151         7.11183         7.11183 
        1.69967         46.8821         7.04865         7.04865 
        1.70581         46.7438         6.98627         6.98627 
        1.71193         46.5456         6.92488         6.92488 
        1.71806         46.0815          6.8641          6.8641 
        1.72421         45.9694         6.80392         6.80392 
        1.73035         45.7633         6.74453         6.74453 
        1.73649         45.4208         6.68586         6.68586 
        1.74262         45.3075         6.62793         6.62793 
        1.74876          45.048         6.57065         6.57065 
        1.75489         44.8383         6.51417         6.51417 
        1.76101         44.6623         6.45836         6.45836 
        1.76715         44.3185         6.40313         6.40313 
        1.77329         44.0966         6.34848         6.34848 
        1.77943         43.8475         6.29444         6.29444 
        1.78557         43.7197          6.2411          6.2411 
        1.79171          43.494         6.18838         6.18838 
        1.79785         43.2533         6.13625         6.13625 
        1.80399          43.162         6.08473         6.08473 
        1.81012         42.8415         6.03386         6.03386 
        1.81625          42.543          5.9836          5.9836 
        1.82239         42.4352         5.93384         5.93384 
        1.82853         42.1301         5.88466         5.88466 
        1.83466         41.9401         5.83609         5.83609 
        1.84078         41.7031         5.78811         5.78811 
        1.84692         41.4766          5.7406          5.7406 
        1.85306         41.2986         5.69355         5.69355 
         1.8592         41.0328         5.64711         5.64711 
        1.86533         40.9109         5.60121         5.60121 
        1.87147         40.6991         5.55577         5.55577 
