# k  (h/Mpc)    Pcb(k)  (Mpc/h)^3    Pcb_linear(k) (Mpc/h)^3    Pcb_NL(k) (Mpc/h)^3   ShotnoiseSubtracted = false
     0.00783031         6541.89         6622.54         6622.54 
       0.013688         7744.33         7707.92         7707.92 
       0.019231         7451.99         7432.88         7432.88 
      0.0249154         6489.98         6561.57         6561.57 
      0.0312784          5422.7         5435.45         5435.45 
      0.0375637         4513.06         4489.97         4489.97 
      0.0433917         3838.43         3856.35         3856.35 
      0.0492413         3434.72         3431.59         3431.59 
      0.0555754         3089.43         3127.18         3127.18 
      0.0619321         2910.64         2887.11         2887.11 
       0.067871         2633.57         2656.65         2656.65 
      0.0738098         2375.98         2395.73         2395.73 
      0.0800417          2075.8         2101.25         2101.25 
      0.0862327         1817.48         1821.01         1821.01 
      0.0921407         1610.92         1594.57         1594.57 
      0.0982031         1426.12          1418.9          1418.9 
       0.104506         1327.64          1294.9          1294.9 
       0.110769         1240.09         1214.75         1214.75 
       0.116806          1171.8         1157.17         1157.17 
       0.122832         1119.81         1100.21         1100.21 
       0.129052         1035.54         1030.08         1030.08 
       0.135211         957.887         947.652         947.652 
       0.141259         885.927         860.911         860.911 
       0.147318          811.37         778.241         778.241 
       0.153489         735.242         706.896         706.896 
       0.159709         686.426         652.122         652.122 
       0.165845         655.071         613.795         613.795 
       0.171974         619.674         586.378         586.378 
       0.178125         595.495         563.581         563.581 
       0.184229         572.016         540.214         540.214 
        0.19034         532.817         513.011         513.011 
       0.196428          513.08         481.958         481.958 
       0.202534         488.133         448.989         448.989 
       0.208729         454.797         416.822         416.822 
       0.214876         425.347         388.844         388.844 
       0.220989         407.861         366.208         366.208 
       0.227147         386.143         348.435         348.435 
        0.23329         371.066         334.375         334.375 
       0.239377         361.379         322.221         322.221 
       0.245482          339.03         310.143         310.143 
       0.251667         332.578         296.999         296.999 
       0.257832         319.187         282.806         282.806 
       0.263955         304.894           268.2           268.2 
       0.270079         291.118          253.98          253.98 
        0.27624           283.6         240.896         240.896 
       0.282372          271.84         229.583         229.583 
        0.28843         261.493         220.087         220.087 
       0.294538          249.92         211.879         211.879 
       0.300721         246.345          204.41          204.41 
        0.30691         234.897         197.236         197.236 
       0.313033         228.448         190.061         190.061 
       0.319153         218.479         182.703         182.703 
       0.325316         213.066         175.209         175.209 
        0.33145          204.69         167.917         167.917 
       0.337538         200.474         161.084         161.084 
       0.343633         193.089         154.832         154.832 
       0.349808          186.63         149.128         149.128 
       0.355968         182.975         144.007         144.007 
       0.362074         177.762         139.328         139.328 
       0.368217         172.431         134.855         134.855 
       0.374374         166.629         130.478         130.478 
       0.380519         163.259          126.14          126.14 
       0.386598          158.62         121.898         121.898 
       0.392688          155.65         117.744         117.744 
        0.39888         151.319         113.691         113.691 
       0.405048         147.207         109.891         109.891 
       0.411186           143.7         106.363         106.363 
       0.417313         140.214         103.079         103.079 
       0.423458         136.846         99.9933         99.9933 
       0.429607         133.415         97.0537         97.0537 
       0.435692          129.08          94.244          94.244 
       0.441815         127.767         91.4932         91.4932 
       0.447964         125.177         88.7964         88.7964 
       0.454126         119.534         86.1635         86.1635 
       0.460267          118.03         83.6303         83.6303 
       0.466387         116.048         81.2156         81.2156 
        0.47254         113.342         78.9032         78.9032 
       0.478662         112.063         76.7143         76.7143 
       0.484765         108.603         74.6378         74.6378 
       0.490885         106.624         72.6477         72.6477 
       0.497035         105.046         70.7215         70.7215 
       0.503198         101.964         68.8512         68.8512 
       0.509342         99.9851         67.0415         67.0415 
       0.515458         98.3436         65.2957         65.2957 
       0.521598         96.7188         63.5996         63.5996 
       0.527764         95.1236         61.9548         61.9548 
       0.533884         93.5235         60.3817         60.3817 
           0.54         91.5055         58.8708         58.8708 
       0.546137         90.4588         57.4149         57.4149 
       0.552299         88.9091         56.0086         56.0086 
       0.558452         86.8677         54.6538         54.6538 
       0.564573         85.2537         53.3487         53.3487 
       0.570708         83.8973         52.0797         52.0797 
       0.576825         82.6116         50.8528         50.8528 
       0.582926         80.8499         49.6673         49.6673 
       0.589034         79.3289          48.518          48.518 
       0.595184         78.1911         47.3984         47.3984 
       0.601379         77.0947         46.3075         46.3075 
       0.607522         75.2119         45.2605         45.2605 
       0.613639         74.8606         44.2511         44.2511 
       0.619772         73.1769         43.2709         43.2709 
       0.625918         72.2214         42.3192         42.3192 
       0.632068         71.3566         41.3959         41.3959 
       0.638161         70.3345         40.5087         40.5087 
         0.6443         69.3248         39.6409         39.6409 
       0.650464         68.3211         38.7952         38.7952 
       0.656582         67.3122         37.9798         37.9798 
       0.662703         66.0141         37.1874         37.1874 
       0.668861         65.1766         36.4131         36.4131 
       0.675024         64.2731         35.6603         35.6603 
       0.681124         63.4083         34.9366         34.9366 
       0.687237         62.1689         34.2318         34.2318 
       0.693381         61.4887         33.5436         33.5436 
       0.699536         60.6121         32.8733         32.8733 
       0.705665         60.6924         32.2245         32.2245 
       0.711789         58.9806         31.5938         31.5938 
       0.717957         58.4688         30.9759         30.9759 
        0.72409         57.6051         30.3779         30.3779 
       0.730186         56.6234         29.7993         29.7993 
       0.736317         56.4077         29.2326         29.2326 
       0.742472         55.5989         28.6786         28.6786 
       0.748622         54.9338         28.1395         28.1395 
        0.75476         54.2725         27.6154         27.6154 
       0.760888         53.4208         27.1055         27.1055 
       0.767043         52.8558         26.6065         26.6065 
       0.773185         52.1409         26.1211         26.1211 
       0.779291         51.7365         25.6506         25.6506 
       0.785407         51.2529         25.1911         25.1911 
       0.791564         50.5142           24.74           24.74 
       0.797719         49.6144         24.3002         24.3002 
       0.803834         49.4039         23.8739         23.8739 
       0.809972         48.4674         23.4563         23.4563 
       0.816124         48.0172         23.0479         23.0479 
       0.822261         47.6027         22.6503         22.6503 
       0.828378         47.2437         22.2634         22.2634 
       0.834502         46.6537         21.8851         21.8851 
       0.840667         46.1329         21.5133         21.5133 
       0.846816          45.461         21.1511         21.1511 
       0.852925         45.0844         20.7997         20.7997 
       0.859047         44.4322         20.4554         20.4554 
       0.865192         44.0785         20.1179         20.1179 
       0.871341         43.8396         19.7878         19.7878 
       0.877463         42.9877         19.4666         19.4666 
       0.883569         42.6511         19.1534         19.1534 
       0.889708         42.3631         18.8455         18.8455 
       0.895864         41.9101         18.5436         18.5436 
       0.902008         41.5015         18.2489         18.2489 
       0.908149         41.1233         17.9609         17.9609 
       0.914301         40.7789         17.6786         17.6786 
       0.920448         40.3408         17.4027         17.4027 
       0.926574         39.8712         17.1336         17.1336 
       0.932687         39.5871         16.8708         16.8708 
       0.938823          38.959         16.6126         16.6126 
       0.944975         38.7877         16.3592         16.3592 
       0.951105          38.352          16.112          16.112 
       0.957225         37.8797         15.8703         15.8703 
       0.963368         37.8492         15.6328         15.6328 
       0.969511         37.4325         15.4002         15.4002 
       0.975621         37.1251         15.1735         15.1735 
       0.981748          36.651         14.9508         14.9508 
       0.987916         36.3263         14.7312         14.7312 
        0.99406         36.1159         14.5168         14.5168 
        1.00019         35.6604         14.3072         14.3072 
        1.00632         35.4582         14.1018         14.1018 
        1.01246         35.2108         13.9002         13.9002 
        1.01859         34.6582         13.7029         13.7029 
        1.02471         34.6085         13.5096         13.5096 
        1.03085         34.2822         13.3194         13.3194 
        1.03698         33.8549         13.1333         13.1333 
        1.04314         33.5797           12.95           12.95 
        1.04929         33.3262         12.7705         12.7705 
        1.05541         32.9623         12.5952         12.5952 
        1.06154         32.8847         12.4228         12.4228 
        1.06769         32.5166         12.2533         12.2533 
        1.07382          32.327         12.0876         12.0876 
        1.07993         32.1281         11.9252         11.9252 
        1.08607         31.7391         11.7653         11.7653 
        1.09222         31.5848          11.608          11.608 
        1.09836         31.3091         11.4539         11.4539 
        1.10449         31.0346         11.3027         11.3027 
        1.11063         30.6506         11.1541         11.1541 
        1.11677          30.488         11.0082         11.0082 
         1.1229         30.3312         10.8652         10.8652 
        1.12903          29.892         10.7246         10.7246 
        1.13518         29.8987         10.5864         10.5864 
        1.14131         29.7184         10.4507         10.4507 
        1.14745         29.2892         10.3174         10.3174 
        1.15359         29.2577         10.1865         10.1865 
        1.15973         28.8807         10.0577         10.0577 
        1.16584         28.6686         9.93179         9.93179 
        1.17197         28.5746         9.80784         9.80784 
        1.17811         28.3024         9.68562         9.68562 
        1.18424         28.0395         9.56584         9.56584 
        1.19038         27.9331         9.44774         9.44774 
        1.19652         27.8064         9.33168         9.33168 
        1.20267         27.5649         9.21757         9.21757 
        1.20881          27.314          9.1054          9.1054 
        1.21495         27.0993         8.99526         8.99526 
        1.22108         26.9339         8.88697         8.88697 
         1.2272         26.6158         8.78071         8.78071 
        1.23334         26.5408         8.67594         8.67594 
        1.23949         26.4483         8.57263         8.57263 
        1.24562           26.17         8.47129         8.47129 
        1.25174         26.0671         8.37174         8.37174 
        1.25789         25.8505         8.27348         8.27348 
        1.26402         25.6794         8.17697         8.17697 
        1.27014         25.4061         8.08223         8.08223 
        1.27628         25.2907          7.9887          7.9887 
        1.28244          25.119         7.89648         7.89648 
        1.28858         25.0124         7.80583         7.80583 
        1.29471         24.8911         7.71681         7.71681 
        1.30084         24.7155         7.62925         7.62925 
        1.30697         24.4865         7.54293         7.54293 
        1.31312         24.2751         7.45781         7.45781 
        1.31925          24.171         7.37427         7.37427 
        1.32537         24.0516          7.2921          7.2921 
        1.33151         23.8516         7.21088         7.21088 
        1.33765          23.783         7.13095         7.13095 
        1.34378           23.61         7.05238         7.05238 
        1.34992         23.3717         6.97495         6.97495 
        1.35606         23.2542         6.89851         6.89851 
         1.3622         23.1148         6.82335         6.82335 
        1.36833         22.9368         6.74949         6.74949 
        1.37445         22.9203         6.67676         6.67676 
        1.38059         22.7297         6.60487         6.60487 
        1.38675         22.4835         6.53387         6.53387 
        1.39288         22.4627          6.4642          6.4642 
        1.39901         22.2503         6.39557         6.39557 
        1.40515         22.1436         6.32779         6.32779 
         1.4113         22.0253         6.26101         6.26101 
        1.41742         21.8123         6.19545         6.19545 
        1.42355         21.7575          6.1307          6.1307 
         1.4297         21.6172         6.06669         6.06669 
        1.43585         21.5619         6.00361         6.00361 
        1.44198         21.3197         5.94167         5.94167 
        1.44809         21.2327         5.88072         5.88072 
        1.45423         21.1324          5.8204          5.8204 
        1.46036         21.0438         5.76103         5.76103 
        1.46649         20.8854         5.70247         5.70247 
        1.47263         20.7404         5.64468         5.64468 
        1.47877         20.6777         5.58771         5.58771 
        1.48491         20.5764         5.53143         5.53143 
        1.49104         20.4475         5.47605         5.47605 
        1.49718         20.2516         5.42138         5.42138 
        1.50333          20.206         5.36737         5.36737 
        1.50947         20.1251          5.3142          5.3142 
         1.5156         19.9696         5.26183         5.26183 
        1.52172         19.8168         5.21017         5.21017 
        1.52787         19.7996         5.15909         5.15909 
          1.534         19.6288         5.10876         5.10876 
        1.54013         19.4772         5.05915         5.05915 
        1.54627         19.4237         5.01011         5.01011 
        1.55241         19.2811          4.9617          4.9617 
        1.55855         19.1854         4.91401         4.91401 
        1.56467         19.0518         4.86707         4.86707 
         1.5708         19.0312         4.82061         4.82061 
        1.57695         18.8217         4.77469         4.77469 
        1.58308         18.8241         4.72947         4.72947 
        1.58922          18.703          4.6848          4.6848 
        1.59535         18.5699         4.64073         4.64073 
         1.6015         18.4673         4.59716         4.59716 
        1.60764         18.4089         4.55417         4.55417 
        1.61376         18.2477         4.51184         4.51184 
        1.61989         18.1341         4.47002         4.47002 
        1.62604          18.118         4.42864         4.42864 
        1.63218         18.0022          4.3878          4.3878 
        1.63831         17.9222         4.34757         4.34757 
        1.64444         17.8103         4.30783         4.30783 
        1.65059         17.6977         4.26849         4.26849 
        1.65673          17.598         4.22968         4.22968 
        1.66285         17.5341         4.19146         4.19146 
        1.66898         17.4591          4.1537          4.1537 
        1.67512         17.3878         4.11633         4.11633 
        1.68127         17.2609         4.07939         4.07939 
         1.6874         17.1763         4.04298         4.04298 
        1.69353         17.0962         4.00703         4.00703 
        1.69967         16.9752         3.97144         3.97144 
        1.70581         16.8957         3.93629         3.93629 
        1.71193         16.8458          3.9017          3.9017 
        1.71806         16.7363         3.86745         3.86745 
        1.72421         16.6447         3.83355         3.83355 
        1.73035         16.5508         3.80009         3.80009 
        1.73649         16.5141         3.76703         3.76703 
        1.74262         16.4181         3.73439         3.73439 
        1.74876         16.3658         3.70212         3.70212 
        1.75489         16.2571         3.67029         3.67029 
        1.76101         16.1664         3.63885         3.63885 
        1.76715         16.1058         3.60773         3.60773 
        1.77329         16.0436         3.57694         3.57694 
        1.77943         15.9309         3.54649         3.54649 
        1.78557         15.8771         3.51644         3.51644 
        1.79171          15.812         3.48673         3.48673 
        1.79785         15.6874         3.45736         3.45736 
        1.80399         15.6283         3.42833         3.42833 
        1.81012         15.6044         3.39967         3.39967 
        1.81625         15.5181         3.37136         3.37136 
        1.82239         15.4802         3.34332         3.34332 
        1.82853         15.3359         3.31561         3.31561 
        1.83466          15.249         3.28824         3.28824 
        1.84078         15.1589         3.26121         3.26121 
        1.84692         15.1404         3.23444         3.23444 
        1.85306           15.05         3.20793         3.20793 
         1.8592         14.9805         3.18177         3.18177 
        1.86533         14.9059          3.1559          3.1559 
        1.87147         14.8399          3.1303          3.1303 
