# k  (h/Mpc)    P(k)  (Mpc/h)^3    P_linear(k)  (Mpc/h)^3     P_NL(k)  ShotnoiseSubtracted = false
     0.00783031         19376.9         19670.1         19670.1 
       0.013688         23124.6         22866.8         22866.8 
       0.019231         22121.9         22043.1         22043.1 
      0.0249154         19046.2         19455.7         19455.7 
      0.0312784         15965.1           16115           16115 
      0.0375637         13366.6           13311           13311 
      0.0433917         11275.9         11432.2         11432.2 
      0.0492413         10142.4         10172.7         10172.7 
      0.0555754         9014.52         9270.12         9270.12 
      0.0619321         8614.45         8558.34         8558.34 
       0.067871         7695.77          7875.1          7875.1 
      0.0738098         6961.77         7101.58         7101.58 
      0.0800417         6070.59         6228.62         6228.62 
      0.0862327         5365.92         5397.88         5397.88 
      0.0921407         4829.28         4726.66         4726.66 
      0.0982031         4282.58         4205.91         4205.91 
       0.104506         4039.22         3838.33         3838.33 
       0.110769         3763.98         3600.75         3600.75 
       0.116806         3570.48         3430.07         3430.07 
       0.122832         3394.53         3261.22         3261.22 
       0.129052         3117.58         3053.33         3053.33 
       0.135211         2905.06            2809            2809 
       0.141259         2735.25         2551.88         2551.88 
       0.147318         2540.04         2306.82         2306.82 
       0.153489         2309.84         2095.35         2095.35 
       0.159709         2181.29         1932.99         1932.99 
       0.165845          2103.2         1819.38         1819.38 
       0.171974         2001.92         1738.11         1738.11 
       0.178125         1909.96         1670.53         1670.53 
       0.184229         1822.69         1601.27         1601.27 
        0.19034         1716.77         1520.63         1520.63 
       0.196428         1666.66         1428.59         1428.59 
       0.202534         1591.65         1330.86         1330.86 
       0.208729         1506.18         1235.52         1235.52 
       0.214876         1440.35         1152.59         1152.59 
       0.220989         1386.06         1085.49         1085.49 
       0.227147         1330.95          1032.8          1032.8 
        0.23329         1278.95         991.131         991.131 
       0.239377         1256.39         955.103         955.103 
       0.245482         1176.51         919.302         919.302 
       0.251667         1167.28         880.344         880.344 
       0.257832         1116.91         838.272         838.272 
       0.263955         1076.91         794.979         794.979 
       0.270079         1036.26         752.829         752.829 
        0.27624          1021.7         714.043         714.043 
       0.282372         979.351         680.512         680.512 
        0.28843         969.185         652.364         652.364 
       0.294538         919.118         628.035         628.035 
       0.300721         912.975         605.896         605.896 
        0.30691         876.066         584.632         584.632 
       0.313033         857.533         563.362         563.362 
       0.319153         839.783         541.552         541.552 
       0.325316         812.801         519.341         519.341 
        0.33145         792.469         497.725         497.725 
       0.337538         776.265          477.47          477.47 
       0.343633         757.889         458.942         458.942 
       0.349808         730.105         442.033         442.033 
       0.355968         724.527         426.855         426.855 
       0.362074         716.581         412.986         412.986 
       0.368217         693.604         399.726         399.726 
       0.374374         665.136         386.755         386.755 
       0.380519         665.557         373.894         373.894 
       0.386598         645.169          361.32          361.32 
       0.392688          642.17         349.009         349.009 
        0.39888          622.85         336.992         336.992 
       0.405048         613.294         325.731         325.731 
       0.411186         604.509         315.272         315.272 
       0.417313          591.86         305.539         305.539 
       0.423458         579.172         296.392         296.392 
       0.429607         572.669         287.679         287.679 
       0.435692         558.359          279.35          279.35 
       0.441815         552.484         271.196         271.196 
       0.447964          540.96         263.203         263.203 
       0.454126         534.639         255.398         255.398 
       0.460267         521.318          247.89          247.89 
       0.466387         515.068         240.733         240.733 
        0.47254         509.676         233.878         233.878 
       0.478662         504.976         227.389         227.389 
       0.484765         487.884         221.235         221.235 
       0.490885         484.191         215.336         215.336 
       0.497035         474.339         209.627         209.627 
       0.503198         470.156         204.083         204.083 
       0.509342         466.438         198.719         198.719 
       0.515458         462.088         193.544         193.544 
       0.521598         449.104         188.517         188.517 
       0.527764         442.646         183.641         183.641 
       0.533884         439.394         178.978         178.978 
           0.54         434.086           174.5           174.5 
       0.546137         430.761         170.184         170.184 
       0.552299         423.732         166.016         166.016 
       0.558452         420.667             162             162 
       0.564573         415.554         158.132         158.132 
       0.570708         409.061          154.37          154.37 
       0.576825         399.237         150.734         150.734 
       0.582926         398.792          147.22          147.22 
       0.589034         394.517         143.813         143.813 
       0.595184         391.418         140.494         140.494 
       0.601379         384.279         137.261         137.261 
       0.607522         379.732         134.157         134.157 
       0.613639         377.728         131.165         131.165 
       0.619772         370.734          128.26          128.26 
       0.625918          368.83         125.439         125.439 
       0.632068         362.548         122.702         122.702 
       0.638161         360.757         120.072         120.072 
         0.6443         355.324           117.5           117.5 
       0.650464         352.484         114.993         114.993 
       0.656582         348.641         112.576         112.576 
       0.662703         348.133         110.228         110.228 
       0.668861         342.646         107.932         107.932 
       0.675024         339.082         105.701         105.701 
       0.681124         335.907         103.556         103.556 
       0.687237         332.971         101.467         101.467 
       0.693381         327.937          99.427          99.427 
       0.699536         323.921         97.4402         97.4402 
       0.705665         321.927         95.5169         95.5169 
       0.711789         320.672         93.6477         93.6477 
       0.717957         317.634         91.8159         91.8159 
        0.72409         315.578         90.0434         90.0434 
       0.730186         310.899         88.3284         88.3284 
       0.736317          308.39         86.6487         86.6487 
       0.742472         306.021         85.0066         85.0066 
       0.748622         303.278         83.4086         83.4086 
        0.75476         299.238         81.8551         81.8551 
       0.760888         296.253         80.3437         80.3437 
       0.767043         296.283         78.8645         78.8645 
       0.773185         293.263         77.4258         77.4258 
       0.779291         288.908         76.0312         76.0312 
       0.785407         287.998         74.6692         74.6692 
       0.791564         284.475          73.332          73.332 
       0.797719         282.225         72.0284         72.0284 
       0.803834         278.929         70.7649         70.7649 
       0.809972         278.551         69.5272         69.5272 
       0.816124         277.236         68.3166         68.3166 
       0.822261         274.313         67.1382         67.1382 
       0.828378         271.873         65.9911         65.9911 
       0.834502         269.165           64.87           64.87 
       0.840667         267.292         63.7678         63.7678 
       0.846816         265.739         62.6944         62.6944 
       0.852925         264.049         61.6525         61.6525 
       0.859047         261.868         60.6322         60.6322 
       0.865192         258.449         59.6317         59.6317 
       0.871341         256.415         58.6533         58.6533 
       0.877463         256.205         57.7012         57.7012 
       0.883569         254.098         56.7728         56.7728 
       0.889708         251.315         55.8601         55.8601 
       0.895864         250.365         54.9652         54.9652 
       0.902008          248.03         54.0919         54.0919 
       0.908149         245.758         53.2381         53.2381 
       0.914301         243.405         52.4013         52.4013 
       0.920448         242.063         51.5834         51.5834 
       0.926574         239.289         50.7859         50.7859 
       0.932687         239.175         50.0069         50.0069 
       0.938823         236.401         49.2416         49.2416 
       0.944975         236.043         48.4905         48.4905 
       0.951105         233.966         47.7578         47.7578 
       0.957225         232.484         47.0415         47.0415 
       0.963368         229.087         46.3374         46.3374 
       0.969511         228.427         45.6478         45.6478 
       0.975621         226.627         44.9759         44.9759 
       0.981748         225.615         44.3159         44.3159 
       0.987916          224.24         43.6649         43.6649 
        0.99406         221.698         43.0295         43.0295 
        1.00019         220.471          42.408          42.408 
        1.00632         219.345         41.7994         41.7994 
        1.01246         217.515         41.2018         41.2018 
        1.01859         217.635         40.6169         40.6169 
        1.02471         214.064          40.044          40.044 
        1.03085         213.003         39.4803         39.4803 
        1.03698         211.784         38.9286         38.9286 
        1.04314         209.999         38.3851         38.3851 
        1.04929         208.921         37.8533         37.8533 
        1.05541         208.524         37.3337         37.3337 
        1.06154         205.601         36.8225         36.8225 
        1.06769          205.19         36.3202         36.3202 
        1.07382         203.428         35.8289         35.8289 
        1.07993         202.023         35.3477         35.3477 
        1.08607         201.737         34.8735         34.8735 
        1.09222         199.685         34.4075         34.4075 
        1.09836         198.237         33.9506         33.9506 
        1.10449         196.437         33.5025         33.5025 
        1.11063          194.86          33.062          33.062 
        1.11677         194.261         32.6296         32.6296 
         1.1229         192.477         32.2057         32.2057 
        1.12903          191.81         31.7889         31.7889 
        1.13518         190.485         31.3792         31.3792 
        1.14131         188.779         30.9769         30.9769 
        1.14745         188.862          30.582          30.582 
        1.15359         187.012         30.1938         30.1938 
        1.15973         185.239         29.8122         29.8122 
        1.16584         184.414         29.4389         29.4389 
        1.17197         184.285         29.0715         29.0715 
        1.17811         181.687         28.7092         28.7092 
        1.18424         180.988         28.3542         28.3542 
        1.19038         180.373         28.0041         28.0041 
        1.19652          178.57         27.6601         27.6601 
        1.20267         178.449         27.3219         27.3219 
        1.20881           176.7         26.9894         26.9894 
        1.21495         175.681         26.6629         26.6629 
        1.22108         174.517         26.3419         26.3419 
         1.2272           173.3          26.027          26.027 
        1.23334         173.105         25.7164         25.7164 
        1.23949         170.996         25.4102         25.4102 
        1.24562         170.344         25.1098         25.1098 
        1.25174         169.491         24.8148         24.8148 
        1.25789         168.422         24.5235         24.5235 
        1.26402         166.539         24.2374         24.2374 
        1.27014         165.684         23.9566         23.9566 
        1.27628          164.82         23.6794         23.6794 
        1.28244         164.665          23.406          23.406 
        1.28858         162.965         23.1373         23.1373 
        1.29471         162.065         22.8735         22.8735 
        1.30084         161.001         22.6139         22.6139 
        1.30697         159.573         22.3581         22.3581 
        1.31312          158.61         22.1058         22.1058 
        1.31925         157.567         21.8581         21.8581 
        1.32537         157.487         21.6146         21.6146 
        1.33151         155.907         21.3738         21.3738 
        1.33765         154.784         21.1369         21.1369 
        1.34378         154.199          20.904          20.904 
        1.34992         153.457         20.6745         20.6745 
        1.35606         153.149         20.4479         20.4479 
         1.3622         151.371         20.2252         20.2252 
        1.36833          150.45         20.0062         20.0062 
        1.37445         149.803         19.7906         19.7906 
        1.38059         148.572         19.5776         19.5776 
        1.38675         148.096         19.3671         19.3671 
        1.39288         147.108         19.1606         19.1606 
        1.39901         146.467         18.9572         18.9572 
        1.40515         145.159         18.7562         18.7562 
         1.4113         144.562         18.5583         18.5583 
        1.41742         143.321          18.364          18.364 
        1.42355         142.842         18.1721         18.1721 
         1.4297          141.67         17.9823         17.9823 
        1.43585         140.969         17.7954         17.7954 
        1.44198          140.42         17.6118         17.6118 
        1.44809         139.617         17.4311         17.4311 
        1.45423         139.039         17.2523         17.2523 
        1.46036         137.736         17.0763         17.0763 
        1.46649         136.856         16.9027         16.9027 
        1.47263         136.118         16.7314         16.7314 
        1.47877         135.094         16.5626         16.5626 
        1.48491         133.976         16.3958         16.3958 
        1.49104         133.905         16.2316         16.2316 
        1.49718         132.632         16.0696         16.0696 
        1.50333         131.926         15.9095         15.9095 
        1.50947         131.125         15.7519         15.7519 
         1.5156         130.526         15.5966         15.5966 
        1.52172         129.751         15.4435         15.4435 
        1.52787         128.653         15.2921         15.2921 
          1.534         128.281         15.1429         15.1429 
        1.54013         127.541         14.9959         14.9959 
        1.54627         126.697         14.8505         14.8505 
        1.55241         125.825          14.707          14.707 
        1.55855         125.224         14.5657         14.5657 
        1.56467         124.186         14.4265         14.4265 
         1.5708         123.371         14.2888         14.2888 
        1.57695         123.253         14.1527         14.1527 
        1.58308         122.446         14.0187         14.0187 
        1.58922         121.859         13.8863         13.8863 
        1.59535         120.999         13.7556         13.7556 
         1.6015         120.478         13.6265         13.6265 
        1.60764         119.789          13.499          13.499 
        1.61376         118.938         13.3736         13.3736 
        1.61989         118.106         13.2496         13.2496 
        1.62604         117.288          13.127          13.127 
        1.63218         117.136         13.0059         13.0059 
        1.63831         116.223         12.8867         12.8867 
        1.64444         115.498         12.7689         12.7689 
        1.65059         114.873         12.6523         12.6523 
        1.65673          114.15         12.5372         12.5372 
        1.66285         113.646          12.424          12.424 
        1.66898         112.889          12.312          12.312 
        1.67512          112.23         12.2013         12.2013 
        1.68127         111.588         12.0918         12.0918 
         1.6874         111.028         11.9838         11.9838 
        1.69353         110.466         11.8773         11.8773 
        1.69967         109.707         11.7718         11.7718 
        1.70581         108.958         11.6676         11.6676 
        1.71193         108.358         11.5651         11.5651 
        1.71806         107.978         11.4636         11.4636 
        1.72421         107.439          11.363          11.363 
        1.73035         107.004         11.2639         11.2639 
        1.73649         106.276         11.1659         11.1659 
        1.74262          105.62         11.0691         11.0691 
        1.74876         105.067         10.9735         10.9735 
        1.75489         104.293         10.8791         10.8791 
        1.76101         103.576         10.7859         10.7859 
        1.76715         103.255         10.6937         10.6937 
        1.77329         102.716         10.6024         10.6024 
        1.77943         102.125         10.5122         10.5122 
        1.78557         101.729         10.4231         10.4231 
        1.79171         100.819          10.335          10.335 
        1.79785         100.365          10.248          10.248 
        1.80399         99.7815         10.1619         10.1619 
        1.81012          99.283          10.077          10.077 
        1.81625         98.8487         9.99306         9.99306 
        1.82239          98.259         9.90995         9.90995 
        1.82853         97.4898         9.82782         9.82782 
        1.83466         97.0566          9.7467          9.7467 
        1.84078          96.588         9.66658         9.66658 
        1.84692         95.7774         9.58722         9.58722 
        1.85306         95.5444         9.50866         9.50866 
         1.8592         94.8633         9.43109         9.43109 
        1.86533         94.3572         9.35444         9.35444 
        1.87147         93.7307         9.27854         9.27854 
        1.87761         93.0388         9.20346         9.20346 
