# k  (h/Mpc)    P(k)  (Mpc/h)^3    P_linear(k)  (Mpc/h)^3     P_NL(k)  ShotnoiseSubtracted = false
     0.00783031         16878.2         17125.8         17125.8 
       0.013688         20118.7         19913.7         19913.7 
       0.019231         19265.2         19197.6         19197.6 
      0.0249154         16617.9         16944.8         16944.8 
      0.0312784         13923.5         14035.5         14035.5 
      0.0375637         11645.6         11593.5         11593.5 
      0.0433917         9837.11         9957.12         9957.12 
      0.0492413         8840.83         8860.19         8860.19 
      0.0555754          7873.5         8074.08         8074.08 
      0.0619321          7508.3         7454.16         7454.16 
       0.067871         6720.91         6859.08         6859.08 
      0.0738098         6076.64         6185.37         6185.37 
      0.0800417         5299.87         5425.04         5425.04 
      0.0862327          4677.2         4701.48         4701.48 
      0.0921407         4198.49         4116.86         4116.86 
      0.0982031         3720.81          3663.3          3663.3 
       0.104506         3503.27         3343.14         3343.14 
       0.110769         3265.43         3136.22         3136.22 
       0.116806         3094.38         2987.55         2987.55 
       0.122832         2945.17         2840.49         2840.49 
       0.129052         2707.02         2659.42         2659.42 
       0.135211         2520.17         2446.61         2446.61 
       0.141259         2365.95         2222.66         2222.66 
       0.147318         2191.56         2009.22         2009.22 
       0.153489         1991.18         1825.03         1825.03 
       0.159709          1878.1         1683.61         1683.61 
       0.165845         1807.22         1584.66         1584.66 
       0.171974         1718.44         1513.88         1513.88 
       0.178125         1641.12         1455.02         1455.02 
       0.184229         1568.88         1394.69         1394.69 
        0.19034         1471.68         1324.46         1324.46 
       0.196428         1428.89         1244.29         1244.29 
       0.202534         1364.93         1159.17         1159.17 
       0.208729         1288.25         1076.12         1076.12 
       0.214876         1226.61         1003.89         1003.89 
       0.220989         1180.25         945.451         945.451 
       0.227147         1130.77         899.562         899.562 
        0.23329         1086.59         863.267         863.267 
       0.239377         1065.88         831.887         831.887 
       0.245482         996.493         800.705         800.705 
       0.251667         987.764         766.772         766.772 
       0.257832         945.448         730.129         730.129 
       0.263955         911.199          692.42          692.42 
       0.270079          875.34         655.708         655.708 
        0.27624         862.798         621.926         621.926 
       0.282372         826.825          592.72          592.72 
        0.28843          814.45         568.204         568.204 
       0.294538         772.108         547.013         547.013 
       0.300721         767.387         527.731         527.731 
        0.30691         734.405          509.21          509.21 
       0.313033         719.012         490.684         490.684 
       0.319153         701.593         471.688         471.688 
       0.325316         679.407         452.342         452.342 
        0.33145         660.896         433.515         433.515 
       0.337538          648.36         415.873         415.873 
       0.343633         630.727         399.735         399.735 
       0.349808         607.421         385.007         385.007 
       0.355968         602.742         371.787         371.787 
       0.362074         594.737         359.708         359.708 
       0.368217         576.449         348.159         348.159 
       0.374374         551.338         336.861         336.861 
       0.380519         550.646         325.659         325.659 
       0.386598         534.506         314.707         314.707 
       0.392688         531.565         303.984         303.984 
        0.39888         515.653         293.518         293.518 
       0.405048         505.972         283.709         283.709 
       0.411186         498.327         274.599         274.599 
       0.417313         487.988         266.122         266.122 
       0.423458         477.615         258.155         258.155 
       0.429607         471.118         250.567         250.567 
       0.435692         459.072         243.312         243.312 
       0.441815         454.409          236.21          236.21 
       0.447964         444.364         229.248         229.248 
       0.454126           436.9          222.45          222.45 
       0.460267         427.275          215.91          215.91 
       0.466387         422.205         209.676         209.676 
        0.47254         415.464         203.706         203.706 
       0.478662         413.128         198.055         198.055 
       0.484765         398.472         192.694         192.694 
       0.490885         395.042         187.556         187.556 
       0.497035         387.178         182.583         182.583 
       0.503198         382.664         177.755         177.755 
       0.509342         379.747         173.083         173.083 
       0.515458         375.569         168.575         168.575 
       0.521598         365.354         164.197         164.197 
       0.527764         359.886          159.95          159.95 
       0.533884         357.072         155.889         155.889 
           0.54         352.204         151.988         151.988 
       0.546137         350.035         148.229         148.229 
       0.552299         343.274         144.599         144.599 
       0.558452         341.281         141.101         141.101 
       0.564573         336.671         137.732         137.732 
       0.570708         330.545         134.455         134.455 
       0.576825         323.301         131.288         131.288 
       0.582926         321.831         128.227         128.227 
       0.589034         318.539          125.26          125.26 
       0.595184         315.795         122.369         122.369 
       0.601379         310.364         119.553         119.553 
       0.607522         306.418          116.85          116.85 
       0.613639         304.421         114.244         114.244 
       0.619772         298.178         111.713         111.713 
       0.625918         296.999         109.256         109.256 
       0.632068         291.722         106.873         106.873 
       0.638161          290.39         104.582         104.582 
         0.6443         285.693         102.342         102.342 
       0.650464          282.94         100.158         100.158 
       0.656582         280.141         98.0532         98.0532 
       0.662703         279.618         96.0075         96.0075 
       0.668861         274.887         94.0084         94.0084 
       0.675024         271.537         92.0649         92.0649 
       0.681124         269.261         90.1965         90.1965 
       0.687237         266.613         88.3771         88.3771 
       0.693381         262.503         86.6002         86.6002 
       0.699536         259.826         84.8697         84.8697 
       0.705665         257.522         83.1945         83.1945 
       0.711789         256.176         81.5665         81.5665 
       0.717957         254.111          79.971          79.971 
        0.72409         251.796         78.4272         78.4272 
       0.730186         248.378         76.9334         76.9334 
       0.736317          245.95         75.4704         75.4704 
       0.742472          244.14         74.0401         74.0401 
       0.748622         242.019         72.6483         72.6483 
        0.75476         239.187         71.2952         71.2952 
       0.760888         236.652         69.9788         69.9788 
       0.767043           236.6         68.6904         68.6904 
       0.773185         233.967         67.4373         67.4373 
       0.779291          229.92         66.2227         66.2227 
       0.785407         229.342         65.0363         65.0363 
       0.791564         226.609         63.8717         63.8717 
       0.797719         224.135         62.7362         62.7362 
       0.803834         222.231         61.6357         61.6357 
       0.809972         221.569         60.5577         60.5577 
       0.816124         220.532         59.5033         59.5033 
       0.822261         218.267         58.4769         58.4769 
       0.828378          215.99         57.4778         57.4778 
       0.834502         214.652         56.5013         56.5013 
       0.840667         212.438         55.5413         55.5413 
       0.846816         210.846         54.6063         54.6063 
       0.852925         209.716         53.6989         53.6989 
       0.859047         207.956         52.8102         52.8102 
       0.865192         205.108         51.9388         51.9388 
       0.871341           203.6         51.0866         51.0866 
       0.877463         202.663         50.2574         50.2574 
       0.883569         201.748         49.4487         49.4487 
       0.889708         199.247         48.6538         48.6538 
       0.895864         197.681         47.8743         47.8743 
       0.902008         196.293         47.1136         47.1136 
       0.908149         195.258           46.37           46.37 
       0.914301         192.597         45.6412         45.6412 
       0.920448          191.69         44.9288         44.9288 
       0.926574         189.891         44.2342         44.2342 
       0.932687         189.869         43.5557         43.5557 
       0.938823         187.413          42.889          42.889 
       0.944975         186.627         42.2349         42.2349 
       0.951105         185.327         41.5967         41.5967 
       0.957225         183.981         40.9728         40.9728 
       0.963368         181.257         40.3596         40.3596 
       0.969511         180.669         39.7589         39.7589 
       0.975621         178.923         39.1737         39.1737 
       0.981748         178.765         38.5988         38.5988 
       0.987916         177.165         38.0318         38.0318 
        0.99406         175.379         37.4784         37.4784 
        1.00019         174.929         36.9371         36.9371 
        1.00632         173.378          36.407          36.407 
        1.01246         172.145         35.8865         35.8865 
        1.01859         171.988          35.377          35.377 
        1.02471         169.382         34.8781         34.8781 
        1.03085         168.185         34.3871         34.3871 
        1.03698          167.23         33.9065         33.9065 
        1.04314         165.687         33.4332         33.4332 
        1.04929         165.112         32.9699         32.9699 
        1.05541         164.607         32.5173         32.5173 
        1.06154         162.684         32.0721         32.0721 
        1.06769          162.41         31.6346         31.6346 
        1.07382         160.857         31.2067         31.2067 
        1.07993         159.531         30.7876         30.7876 
        1.08607         159.188         30.3746         30.3746 
        1.09222          158.09         29.9687         29.9687 
        1.09836         156.803         29.5707         29.5707 
        1.10449         155.095         29.1804         29.1804 
        1.11063         153.934         28.7967         28.7967 
        1.11677         153.403         28.4201         28.4201 
         1.1229         152.224         28.0509         28.0509 
        1.12903         151.626         27.6879         27.6879 
        1.13518         150.575         27.3311         27.3311 
        1.14131         149.079         26.9807         26.9807 
        1.14745         149.094         26.6367         26.6367 
        1.15359         147.729         26.2986         26.2986 
        1.15973          146.57         25.9662         25.9662 
        1.16584         145.591         25.6411         25.6411 
        1.17197         145.169         25.3211         25.3211 
        1.17811         143.698         25.0055         25.0055 
        1.18424         143.171         24.6963         24.6963 
        1.19038          142.76         24.3914         24.3914 
        1.19652         141.377         24.0918         24.0918 
        1.20267         140.889         23.7972         23.7972 
        1.20881         139.701         23.5076         23.5076 
        1.21495         138.814         23.2232         23.2232 
        1.22108         137.908         22.9436         22.9436 
         1.2272         136.868         22.6693         22.6693 
        1.23334         136.571         22.3988         22.3988 
        1.23949         135.391         22.1321         22.1321 
        1.24562         134.615         21.8705         21.8705 
        1.25174         133.846         21.6135         21.6135 
        1.25789         132.985         21.3598         21.3598 
        1.26402         131.555         21.1106         21.1106 
        1.27014         130.758          20.866          20.866 
        1.27628         130.423         20.6246         20.6246 
        1.28244         130.147         20.3865         20.3865 
        1.28858         128.946         20.1525         20.1525 
        1.29471         127.821         19.9226         19.9226 
        1.30084         127.565         19.6966         19.6966 
        1.30697         126.099         19.4737         19.4737 
        1.31312         125.567          19.254          19.254 
        1.31925         124.739         19.0383         19.0383 
        1.32537         124.441         18.8261         18.8261 
        1.33151         123.291         18.6165         18.6165 
        1.33765         122.471         18.4101         18.4101 
        1.34378         121.987         18.2073         18.2073 
        1.34992         121.506         18.0074         18.0074 
        1.35606         121.135           17.81           17.81 
         1.3622         119.789          17.616          17.616 
        1.36833         118.954         17.4253         17.4253 
        1.37445         118.515         17.2375         17.2375 
        1.38059         117.626         17.0519         17.0519 
        1.38675         117.074         16.8686         16.8686 
        1.39288         116.579         16.6887         16.6887 
        1.39901         116.117         16.5116         16.5116 
        1.40515         114.881         16.3366         16.3366 
         1.4113         114.495         16.1642         16.1642 
        1.41742         113.557         15.9949         15.9949 
        1.42355         113.063         15.8277         15.8277 
         1.4297         112.437         15.6625         15.6625 
        1.43585         111.595         15.4996         15.4996 
        1.44198         111.152         15.3397         15.3397 
        1.44809         110.629         15.1824         15.1824 
        1.45423         110.128         15.0266         15.0266 
        1.46036         109.197         14.8734         14.8734 
        1.46649           108.4         14.7222         14.7222 
        1.47263         107.768          14.573          14.573 
        1.47877         107.255         14.4259         14.4259 
        1.48491         106.316         14.2806         14.2806 
        1.49104         106.203         14.1376         14.1376 
        1.49718         105.376         13.9965         13.9965 
        1.50333         104.789          13.857          13.857 
        1.50947         104.222         13.7198         13.7198 
         1.5156         103.649         13.5846         13.5846 
        1.52172         102.971         13.4512         13.4512 
        1.52787         102.333         13.3193         13.3193 
          1.534         101.907         13.1894         13.1894 
        1.54013         101.354         13.0613         13.0613 
        1.54627         100.779         12.9347         12.9347 
        1.55241         100.069         12.8097         12.8097 
        1.55855         99.4791         12.6866         12.6866 
        1.56467         99.0548         12.5654         12.5654 
         1.5708         98.2202         12.4455         12.4455 
        1.57695         98.0335         12.3269         12.3269 
        1.58308          97.501         12.2102         12.2102 
        1.58922         97.0638         12.0948         12.0948 
        1.59535         96.3529          11.981          11.981 
         1.6015         95.9926         11.8686         11.8686 
        1.60764         95.3053         11.7576         11.7576 
        1.61376         94.8843         11.6483         11.6483 
        1.61989         94.2197         11.5403         11.5403 
        1.62604         93.6691         11.4335         11.4335 
        1.63218         93.5336         11.3281         11.3281 
        1.63831         92.6383         11.2242         11.2242 
        1.64444         92.1896         11.1216         11.1216 
        1.65059         91.6518           11.02           11.02 
        1.65673         91.0098         10.9198         10.9198 
        1.66285         90.7193         10.8212         10.8212 
        1.66898         90.2889         10.7237         10.7237 
        1.67512         89.5892         10.6272         10.6272 
        1.68127         89.2176         10.5318         10.5318 
         1.6874         88.5439         10.4378         10.4378 
        1.69353         88.1982          10.345          10.345 
        1.69967         87.9044         10.2531         10.2531 
        1.70581         87.1916         10.1624         10.1624 
        1.71193          86.728         10.0731         10.0731 
        1.71806         86.3879         9.98467         9.98467 
        1.72421         85.7486         9.89714         9.89714 
        1.73035         85.4878         9.81075         9.81075 
        1.73649         85.0425         9.72541         9.72541 
        1.74262         84.3592         9.64115         9.64115 
        1.74876         84.0554         9.55783         9.55783 
        1.75489         83.4657         9.47566         9.47566 
        1.76101         82.9488         9.39448         9.39448 
        1.76715         82.4816         9.31414         9.31414 
        1.77329         82.2418         9.23464         9.23464 
        1.77943          81.523         9.15603         9.15603 
        1.78557          81.374         9.07845         9.07845 
        1.79171         80.5644         9.00176         9.00176 
        1.79785         80.2219         8.92593         8.92593 
        1.80399         79.8024         8.85098         8.85098 
        1.81012         79.4358           8.777           8.777 
        1.81625         79.0678         8.70389         8.70389 
        1.82239          78.602          8.6315          8.6315 
        1.82853         78.1647         8.55996         8.55996 
        1.83466         77.7108         8.48931         8.48931 
        1.84078         77.3133         8.41952         8.41952 
        1.84692         76.9016          8.3504          8.3504 
        1.85306         76.4972         8.28197         8.28197 
         1.8592         76.1841         8.21442         8.21442 
        1.86533         75.6351         8.14765         8.14765 
        1.87147         75.1462         8.08155         8.08155 
        1.87761         74.7926         8.01615         8.01615 
