# k  (h/Mpc)    P(k)  (Mpc/h)^3    P_linear(k)  (Mpc/h)^3     P_NL(k)  ShotnoiseSubtracted = false
     0.00783031         4346.56         4397.36         4397.36 
       0.013688         5134.37         5119.26         5119.26 
       0.019231          4947.1         4936.97         4936.97 
      0.0249154         4320.14          4358.4          4358.4 
      0.0312784         3606.19         3610.49         3610.49 
      0.0375637         2997.21         2982.49         2982.49 
      0.0433917          2554.1         2561.63         2561.63 
      0.0492413         2282.62         2279.49         2279.49 
      0.0555754         2058.52         2077.29         2077.29 
      0.0619321         1931.99         1917.83         1917.83 
       0.067871         1753.58         1764.74         1764.74 
      0.0738098          1581.4         1591.42         1591.42 
      0.0800417         1382.53         1395.81         1395.81 
      0.0862327         1207.93         1209.65         1209.65 
      0.0921407         1067.27         1059.24         1059.24 
      0.0982031         945.211         942.545         942.545 
       0.104506         876.595         860.173         860.173 
       0.110769         819.328         806.934         806.934 
       0.116806         774.406         768.687         768.687 
       0.122832         740.155         730.849         730.849 
       0.129052         685.966         684.261         684.261 
       0.135211         633.311         629.507         629.507 
       0.141259         583.351         571.887         571.887 
       0.147318         532.806          516.97          516.97 
       0.153489          482.74         469.577         469.577 
       0.159709         449.084         433.192         433.192 
       0.165845         427.705         407.733         407.733 
       0.171974         404.343          389.52          389.52 
       0.178125         389.008         374.376         374.376 
       0.184229         373.788         358.854         358.854 
        0.19034         348.906         340.783         340.783 
       0.196428         334.318         320.156         320.156 
       0.202534         317.141         298.255         298.255 
       0.208729         294.599         276.887         276.887 
       0.214876         274.679         258.302         258.302 
       0.220989         262.888         243.265         243.265 
       0.227147         248.284         231.458         231.458 
        0.23329         238.527         222.119         222.119 
       0.239377         231.719         214.045         214.045 
       0.245482         218.542         206.022         206.022 
       0.251667         213.392         197.291         197.291 
       0.257832         204.491         187.863         187.863 
       0.263955         194.802         178.161         178.161 
       0.270079         185.741         168.715         168.715 
        0.27624         179.932         160.022         160.022 
       0.282372          172.32         152.508         152.508 
        0.28843         165.108           146.2           146.2 
       0.294538          158.24         140.747         140.747 
       0.300721         155.251         135.786         135.786 
        0.30691         148.248         131.021         131.021 
       0.313033         143.674         126.254         126.254 
       0.319153         136.849         121.366         121.366 
       0.325316         133.839         116.388         116.388 
        0.33145         128.187         111.544         111.544 
       0.337538         124.994         107.005         107.005 
       0.343633         120.221         102.853         102.853 
       0.349808         116.298          99.063          99.063 
       0.355968         113.477         95.6615         95.6615 
       0.362074         109.927         92.5535         92.5535 
       0.368217         106.498         89.5818         89.5818 
       0.374374           103.2         86.6748         86.6748 
       0.380519         100.657         83.7926         83.7926 
       0.386598         97.6829         80.9748         80.9748 
       0.392688           95.55         78.2156         78.2156 
        0.39888         92.6833         75.5226         75.5226 
       0.405048         90.1587         72.9989         72.9989 
       0.411186          87.899         70.6549         70.6549 
       0.417313         85.3412         68.4737         68.4737 
       0.423458         83.1261         66.4237         66.4237 
       0.429607         80.9202         64.4713         64.4713 
       0.435692         78.2171         62.6046         62.6046 
       0.441815         77.2035         60.7773         60.7773 
       0.447964         75.6707          58.986          58.986 
       0.454126         72.2259         57.2369         57.2369 
       0.460267         71.1765         55.5541         55.5541 
       0.466387          69.493         53.9502         53.9502 
        0.47254         68.0877         52.4141         52.4141 
       0.478662         67.0133         50.9599         50.9599 
       0.484765         64.9751         49.5807         49.5807 
       0.490885         63.6089         48.2586         48.2586 
       0.497035          62.648         46.9791         46.9791 
       0.503198         60.8193         45.7367         45.7367 
       0.509342         59.3419         44.5345         44.5345 
       0.515458         58.1937         43.3748         43.3748 
       0.521598         57.2348         42.2481         42.2481 
       0.527764         56.1161         41.1555         41.1555 
       0.533884         55.1338         40.1106         40.1106 
           0.54         53.8201         39.1068         39.1068 
       0.546137         53.0852         38.1397         38.1397 
       0.552299          52.196         37.2055         37.2055 
       0.558452         50.7029         36.3056         36.3056 
       0.564573         49.7684         35.4386         35.4386 
       0.570708         49.0172         34.5956         34.5956 
       0.576825         48.0282         33.7807         33.7807 
       0.582926         46.9664         32.9931         32.9931 
       0.589034         45.8509         32.2297         32.2297 
       0.595184         45.2235         31.4859         31.4859 
       0.601379          44.456         30.7613         30.7613 
       0.607522         43.3913         30.0658         30.0658 
       0.613639         43.1214         29.3953         29.3953 
       0.619772         42.0493         28.7441         28.7441 
       0.625918         41.6315         28.1119         28.1119 
       0.632068         41.0232         27.4986         27.4986 
       0.638161         40.2596         26.9092         26.9092 
         0.6443         39.5412         26.3328         26.3328 
       0.650464         38.8587          25.771          25.771 
       0.656582         38.4643         25.2293         25.2293 
       0.662703         37.6552         24.7029         24.7029 
       0.668861         37.0704         24.1886         24.1886 
       0.675024         36.4531         23.6885         23.6885 
       0.681124         35.8258         23.2078         23.2078 
       0.687237         35.1365         22.7396         22.7396 
       0.693381         34.8304         22.2824         22.2824 
       0.699536         34.0737         21.8372         21.8372 
       0.705665          34.084         21.4061         21.4061 
       0.711789         33.1355         20.9872         20.9872 
       0.717957         32.7371         20.5767         20.5767 
        0.72409           32.28         20.1795         20.1795 
       0.730186         31.7383         19.7951         19.7951 
       0.736317         31.4811         19.4187         19.4187 
       0.742472         30.9148         19.0507         19.0507 
       0.748622         30.5924         18.6926         18.6926 
        0.75476         30.1199         18.3444         18.3444 
       0.760888         29.6128         18.0057         18.0057 
       0.767043         29.2449         17.6742         17.6742 
       0.773185         28.7856         17.3518         17.3518 
       0.779291         28.6164         17.0393         17.0393 
       0.785407          28.324          16.734          16.734 
       0.791564          27.792         16.4343         16.4343 
       0.797719          27.179         16.1422         16.1422 
       0.803834         27.1138          15.859          15.859 
       0.809972         26.7204         15.5816         15.5816 
       0.816124         26.2174         15.3103         15.3103 
       0.822261         25.9807         15.0462         15.0462 
       0.828378         25.7876         14.7892         14.7892 
       0.834502         25.4561         14.5379         14.5379 
       0.840667         25.1263         14.2909         14.2909 
       0.846816         24.6921         14.0503         14.0503 
       0.852925         24.4697         13.8169         13.8169 
       0.859047         24.1525         13.5882         13.5882 
       0.865192         23.8801          13.364          13.364 
       0.871341         23.7347         13.1447         13.1447 
       0.877463         23.2591         12.9313         12.9313 
       0.883569         23.0027         12.7233         12.7233 
       0.889708          22.742         12.5187         12.5187 
       0.895864         22.5047         12.3182         12.3182 
       0.902008         22.3046         12.1225         12.1225 
       0.908149         22.0546         11.9311         11.9311 
       0.914301         21.9506         11.7436         11.7436 
       0.920448         21.5462         11.5603         11.5603 
       0.926574         21.3393         11.3816         11.3816 
       0.932687          21.087          11.207          11.207 
       0.938823         20.7925         11.0355         11.0355 
       0.944975         20.6367         10.8671         10.8671 
       0.951105         20.4141         10.7029         10.7029 
       0.957225         20.1611         10.5424         10.5424 
       0.963368         20.0762         10.3846         10.3846 
       0.969511         19.8419         10.2301         10.2301 
       0.975621         19.6807         10.0795         10.0795 
       0.981748           19.37         9.93157         9.93157 
       0.987916         19.2243         9.78569         9.78569 
        0.99406         19.0355         9.64329         9.64329 
        1.00019         18.7839           9.504           9.504 
        1.00632         18.6629          9.3676          9.3676 
        1.01246         18.5457         9.23368         9.23368 
        1.01859         18.2194         9.10259         9.10259 
        1.02471         18.1545         8.97422         8.97422 
        1.03085         17.9898         8.84788         8.84788 
        1.03698         17.6717         8.72424         8.72424 
        1.04314         17.5642         8.60244         8.60244 
        1.04929         17.3736         8.48325         8.48325 
        1.05541         17.1721          8.3668          8.3668 
        1.06154         17.0893         8.25224         8.25224 
        1.06769         16.9485         8.13966         8.13966 
        1.07382         16.7743         8.02956         8.02956 
        1.07993          16.657         7.92174         7.92174 
        1.08607         16.4221         7.81546         7.81546 
        1.09222         16.3395         7.71102         7.71102 
        1.09836         16.1384         7.60862         7.60862 
        1.10449         16.0247         7.50819         7.50819 
        1.11063         15.8022         7.40948         7.40948 
        1.11677         15.7464         7.31257         7.31257 
         1.1229         15.6524         7.21757         7.21757 
        1.12903         15.4384         7.12417         7.12417 
        1.13518         15.2859         7.03235         7.03235 
        1.14131         15.2288          6.9422          6.9422 
        1.14745         15.0686         6.85368         6.85368 
        1.15359         14.9949         6.76669         6.76669 
        1.15973         14.8069         6.68118         6.68118 
        1.16584         14.6224         6.59752         6.59752 
        1.17197         14.6245         6.51518         6.51518 
        1.17811         14.4188         6.43399         6.43399 
        1.18424         14.2971         6.35442         6.35442 
        1.19038         14.2342         6.27597         6.27597 
        1.19652          14.125         6.19888         6.19888 
        1.20267         13.9976         6.12308         6.12308 
        1.20881         13.8806         6.04856         6.04856 
        1.21495         13.7794          5.9754          5.9754 
        1.22108         13.6542         5.90346         5.90346 
         1.2272         13.5085         5.83288         5.83288 
        1.23334         13.4472         5.76328         5.76328 
        1.23949         13.3081         5.69466         5.69466 
        1.24562         13.2372         5.62734         5.62734 
        1.25174         13.1568          5.5612          5.5612 
        1.25789         13.0255         5.49593         5.49593 
        1.26402          12.982         5.43182         5.43182 
        1.27014          12.815         5.36889         5.36889 
        1.27628         12.7037         5.30676         5.30676 
        1.28244         12.6365          5.2455          5.2455 
        1.28858         12.5898         5.18528         5.18528 
        1.29471         12.4681         5.12614         5.12614 
        1.30084         12.3568         5.06798         5.06798 
        1.30697         12.2625         5.01064         5.01064 
        1.31312          12.136          4.9541          4.9541 
        1.31925          12.056          4.8986          4.8986 
        1.32537         12.0121         4.84402         4.84402 
        1.33151         11.9013         4.79007         4.79007 
        1.33765         11.8378         4.73697         4.73697 
        1.34378         11.7554         4.68478         4.68478 
        1.34992         11.6148         4.63334         4.63334 
        1.35606         11.5929         4.58256         4.58256 
         1.3622         11.5104         4.53264         4.53264 
        1.36833         11.3866         4.48357         4.48357 
        1.37445         11.3605         4.43526         4.43526 
        1.38059         11.2523          4.3875          4.3875 
        1.38675          11.127         4.34034         4.34034 
        1.39288         11.1009         4.29406         4.29406 
        1.39901         11.0112         4.24847         4.24847 
        1.40515         10.9567         4.20344         4.20344 
         1.4113          10.857         4.15908         4.15908 
        1.41742         10.7671         4.11553         4.11553 
        1.42355         10.7183         4.07252         4.07252 
         1.4297         10.6726            4.03            4.03 
        1.43585         10.6109          3.9881          3.9881 
        1.44198         10.5111         3.94695         3.94695 
        1.44809         10.4414         3.90646         3.90646 
        1.45423         10.3741         3.86639         3.86639 
        1.46036         10.3142         3.82696         3.82696 
        1.46649         10.2597         3.78805         3.78805 
        1.47263         10.1617         3.74966         3.74966 
        1.47877         10.1086         3.71182         3.71182 
        1.48491         10.0649         3.67444         3.67444 
        1.49104         10.0126         3.63765         3.63765 
        1.49718         9.92371         3.60133         3.60133 
        1.50333         9.86858         3.56545         3.56545 
        1.50947         9.80963         3.53014         3.53014 
         1.5156          9.7297         3.49535         3.49535 
        1.52172         9.67807         3.46103         3.46103 
        1.52787         9.63037          3.4271          3.4271 
          1.534         9.55336         3.39366         3.39366 
        1.54013         9.47358         3.36071         3.36071 
        1.54627         9.42409         3.32813         3.32813 
        1.55241         9.37459         3.29598         3.29598 
        1.55855          9.3137         3.26429         3.26429 
        1.56467         9.25625         3.23311         3.23311 
         1.5708         9.24416         3.20225         3.20225 
        1.57695         9.14823         3.17174         3.17174 
        1.58308         9.11279         3.14171         3.14171 
        1.58922         9.05955         3.11203         3.11203 
        1.59535         9.00124         3.08276         3.08276 
         1.6015         8.93579         3.05381         3.05381 
        1.60764         8.89183         3.02526         3.02526 
        1.61376         8.84377         2.99714         2.99714 
        1.61989         8.77008         2.96936         2.96936 
        1.62604         8.75694         2.94187         2.94187 
        1.63218         8.69239         2.91474         2.91474 
        1.63831         8.65221         2.88802         2.88802 
        1.64444         8.57192         2.86162         2.86162 
        1.65059         8.52793         2.83549         2.83549 
        1.65673         8.50891         2.80971         2.80971 
        1.66285         8.42048         2.78432         2.78432 
        1.66898          8.4057         2.75924         2.75924 
        1.67512         8.36165         2.73441         2.73441 
        1.68127         8.31338         2.70987         2.70987 
         1.6874         8.25387         2.68568         2.68568 
        1.69353         8.19425         2.66181         2.66181 
        1.69967         8.16489         2.63816         2.63816 
        1.70581         8.12832         2.61481         2.61481 
        1.71193         8.06511         2.59184         2.59184 
        1.71806         8.03152         2.56908         2.56908 
        1.72421         7.98415         2.54656         2.54656 
        1.73035         7.94144         2.52433         2.52433 
        1.73649         7.90658         2.50237         2.50237 
        1.74262         7.87652         2.48069         2.48069 
        1.74876         7.82959         2.45926         2.45926 
        1.75489         7.78696         2.43811         2.43811 
        1.76101         7.72301         2.41723         2.41723 
        1.76715         7.71612         2.39656         2.39656 
        1.77329         7.64287          2.3761          2.3761 
        1.77943          7.6103         2.35587         2.35587 
        1.78557         7.58528         2.33591         2.33591 
        1.79171         7.55682         2.31618         2.31618 
        1.79785         7.48438         2.29667         2.29667 
        1.80399         7.45912         2.27738         2.27738 
        1.81012         7.43634         2.25835         2.25835 
        1.81625         7.38288         2.23954         2.23954 
        1.82239         7.34573         2.22091         2.22091 
        1.82853         7.29435          2.2025          2.2025 
        1.83466         7.25549         2.18432         2.18432 
        1.84078           7.219         2.16637         2.16637 
        1.84692         7.20015         2.14858         2.14858 
        1.85306         7.14978         2.13098         2.13098 
         1.8592         7.12091         2.11359         2.11359 
        1.86533         7.09131         2.09641         2.09641 
        1.87147         7.05217         2.07941         2.07941 
        1.87761          7.0264         2.06258         2.06258 
