# k  (h/Mpc)    Pcb(k)  (Mpc/h)^3    Pcb_linear(k) (Mpc/h)^3    Pcb_NL(k) (Mpc/h)^3   ShotnoiseSubtracted = false
     0.00783031          1163.9         1175.97         1175.97 
       0.013688         1368.19         1369.76         1369.76 
       0.019231         1321.92         1321.22         1321.22 
      0.0249154         1161.04         1166.49         1166.49 
      0.0312784         966.865          966.37          966.37 
      0.0375637         801.362         798.308         798.308 
      0.0433917         685.649         685.671         685.671 
      0.0492413         611.186         610.159         610.159 
      0.0555754         554.028         556.041         556.041 
      0.0619321         515.534         513.361         513.361 
       0.067871         471.061         472.386         472.386 
      0.0738098          424.62         425.993         425.993 
      0.0800417          371.84         373.633         373.633 
      0.0862327         323.541         323.803         323.803 
      0.0921407         284.284         283.541         283.541 
      0.0982031          252.24         252.304         252.304 
       0.104506         231.966         230.255         230.255 
       0.110769         217.113         216.004         216.004 
       0.116806         205.692         205.766         205.766 
       0.122832         196.266         195.637         195.637 
       0.129052         182.807         183.167         183.167 
       0.135211         168.251          168.51          168.51 
       0.141259         153.779         153.086         153.086 
       0.147318         139.717         138.386         138.386 
       0.153489         126.659         125.699         125.699 
       0.159709         117.069          115.96          115.96 
       0.165845         110.942         109.144         109.144 
       0.171974         105.086         104.269         104.269 
       0.178125         101.138         100.215         100.215 
       0.184229         97.1338         96.0605         96.0605 
        0.19034         91.3922         91.2233         91.2233 
       0.196428         86.5568         85.7015         85.7015 
       0.202534         81.4382         79.8389         79.8389 
       0.208729          75.378          74.119          74.119 
       0.214876         70.0936         69.1441         69.1441 
       0.220989         66.6662          65.119          65.119 
       0.227147         62.9291         61.9586         61.9586 
        0.23329         60.4007         59.4585         59.4585 
       0.239377         58.3457         57.2972         57.2972 
       0.245482         55.7526         55.1496         55.1496 
       0.251667         53.8642         52.8123         52.8123 
       0.257832         51.3093         50.2885         50.2885 
       0.263955         48.7429         47.6913         47.6913 
       0.270079         46.3036         45.1627         45.1627 
        0.27624          44.312         42.8361         42.8361 
       0.282372         42.3031         40.8244         40.8244 
        0.28843         40.3982         39.1359         39.1359 
       0.294538         38.8489         37.6763         37.6763 
       0.300721         37.7528         36.3482         36.3482 
        0.30691         36.2012         35.0725         35.0725 
       0.313033         34.9103         33.7966         33.7966 
       0.319153         33.2275         32.4882         32.4882 
       0.325316         32.4187         31.1557         31.1557 
        0.33145         30.9937          29.859          29.859 
       0.337538         29.8565         28.6439         28.6439 
       0.343633          28.634         27.5323         27.5323 
       0.349808         27.6973         26.5181         26.5181 
       0.355968          26.818         25.6074         25.6074 
       0.362074          25.913         24.7754         24.7754 
       0.368217         25.0802           23.98           23.98 
       0.374374         24.2155         23.2016         23.2016 
       0.380519         23.5302         22.4303         22.4303 
       0.386598          22.796         21.6759         21.6759 
       0.392688         22.1605         20.9373         20.9373 
        0.39888          21.371         20.2165         20.2165 
       0.405048         20.7387         19.5409         19.5409 
       0.411186         20.1267         18.9135         18.9135 
       0.417313          19.439         18.3296         18.3296 
       0.423458         18.8988         17.7808         17.7808 
       0.429607         18.3193         17.2581         17.2581 
       0.435692         17.7786         16.7585         16.7585 
       0.441815         17.3271         16.2693         16.2693 
       0.447964         16.9425         15.7898         15.7898 
       0.454126         16.2979         15.3216         15.3216 
       0.460267         15.9046         14.8712         14.8712 
       0.466387         15.3787         14.4418         14.4418 
        0.47254         15.0462         14.0306         14.0306 
       0.478662         14.7069         13.6414         13.6414 
       0.484765          14.245         13.2721         13.2721 
       0.490885         13.8927         12.9182         12.9182 
       0.497035         13.6492         12.5757         12.5757 
       0.503198         13.2577         12.2432         12.2432 
       0.509342         12.9212         11.9213         11.9213 
       0.515458         12.5655         11.6109         11.6109 
       0.521598         12.2881         11.3093         11.3093 
       0.527764         11.9612         11.0168         11.0168 
       0.533884         11.7349         10.7371         10.7371 
           0.54         11.4363         10.4684         10.4684 
       0.546137         11.1941         10.2095         10.2095 
       0.552299         10.9512         9.95947         9.95947 
       0.558452         10.6123         9.71857         9.71857 
       0.564573         10.4363         9.48649         9.48649 
       0.570708         10.2041         9.26083         9.26083 
       0.576825         9.92772         9.04267         9.04267 
       0.582926         9.73516         8.83186         8.83186 
       0.589034         9.44028          8.6275          8.6275 
       0.595184         9.27955          8.4284          8.4284 
       0.601379         9.05937         8.23442         8.23442 
       0.607522         8.90519         8.04825         8.04825 
       0.613639         8.76014         7.86875         7.86875 
       0.619772         8.51313         7.69445         7.69445 
       0.625918         8.40877         7.52521         7.52521 
       0.632068         8.25944         7.36105         7.36105 
       0.638161         8.03634         7.20327         7.20327 
         0.6443         7.86501         7.04897         7.04897 
       0.650464         7.68407         6.89858         6.89858 
       0.656582         7.60132         6.75358         6.75358 
       0.662703         7.44246         6.61268         6.61268 
       0.668861         7.29844         6.47499         6.47499 
       0.675024         7.13507         6.34113         6.34113 
       0.681124         6.99868         6.21244         6.21244 
       0.687237         6.87589         6.08712         6.08712 
       0.693381          6.7577         5.96474         5.96474 
       0.699536         6.57191         5.84555         5.84555 
       0.705665         6.47892         5.73017         5.73017 
       0.711789         6.36039         5.61803         5.61803 
       0.717957         6.23478         5.50814         5.50814 
        0.72409         6.11722         5.40181         5.40181 
       0.730186         6.02691         5.29892         5.29892 
       0.736317         5.94764         5.19815         5.19815 
       0.742472         5.84033         5.09964         5.09964 
       0.748622         5.72922         5.00378         5.00378 
        0.75476         5.59683         4.91058         4.91058 
       0.760888         5.51454         4.81991         4.81991 
       0.767043         5.44055         4.73117         4.73117 
       0.773185          5.3181         4.64486         4.64486 
       0.779291         5.25811          4.5612          4.5612 
       0.785407         5.16543         4.47949         4.47949 
       0.791564         5.07927         4.39927         4.39927 
       0.797719         4.98396         4.32107         4.32107 
       0.803834         4.93369         4.24527         4.24527 
       0.809972         4.86097         4.17102         4.17102 
       0.816124         4.74971         4.09839         4.09839 
       0.822261         4.66433          4.0277          4.0277 
       0.828378         4.60616         3.95888         3.95888 
       0.834502         4.55444         3.89163         3.89163 
       0.840667         4.45588          3.8255          3.8255 
       0.846816         4.37569         3.76111         3.76111 
       0.852925         4.33223         3.69861         3.69861 
       0.859047         4.26129          3.6374          3.6374 
       0.865192         4.20856         3.57738         3.57738 
       0.871341         4.15048         3.51868         3.51868 
       0.877463         4.08202         3.46157         3.46157 
       0.883569         4.00509         3.40587         3.40587 
       0.889708         3.93699         3.35112         3.35112 
       0.895864         3.88622         3.29743         3.29743 
       0.902008         3.83415         3.24504         3.24504 
       0.908149         3.78645         3.19381         3.19381 
       0.914301         3.71644         3.14362         3.14362 
       0.920448         3.65956         3.09455         3.09455 
       0.926574         3.60499         3.04671         3.04671 
       0.932687         3.56117         2.99998         2.99998 
       0.938823         3.51208         2.95406         2.95406 
       0.944975         3.46116           2.909           2.909 
       0.951105         3.41733         2.86505         2.86505 
       0.957225         3.39344         2.82207         2.82207 
       0.963368         3.33604         2.77984         2.77984 
       0.969511         3.28511         2.73847         2.73847 
       0.975621         3.23646         2.69816         2.69816 
       0.981748         3.19965         2.65856         2.65856 
       0.987916         3.15544         2.61951         2.61951 
        0.99406         3.09922         2.58139         2.58139 
        1.00019         3.05827         2.54411         2.54411 
        1.00632         3.02581         2.50759         2.50759 
        1.01246         2.98695         2.47175         2.47175 
        1.01859         2.94622         2.43666         2.43666 
        1.02471         2.90915         2.40229         2.40229 
        1.03085         2.86951         2.36847         2.36847 
        1.03698         2.82762         2.33537         2.33537 
        1.04314         2.79804         2.30277         2.30277 
        1.04929         2.76048         2.27086         2.27086 
        1.05541         2.72354         2.23969         2.23969 
        1.06154         2.69258         2.20903         2.20903 
        1.06769         2.66963         2.17889         2.17889 
        1.07382         2.62502         2.14942         2.14942 
        1.07993         2.58624         2.12055         2.12055 
        1.08607         2.56933          2.0921          2.0921 
        1.09222         2.53207         2.06415         2.06415 
        1.09836         2.50499         2.03674         2.03674 
        1.10449         2.47544         2.00985         2.00985 
        1.11063         2.43949         1.98343         1.98343 
        1.11677         2.41415         1.95749         1.95749 
         1.1229         2.38451         1.93206         1.93206 
        1.12903         2.35295         1.90706         1.90706 
        1.13518         2.32894         1.88248         1.88248 
        1.14131         2.29259         1.85834         1.85834 
        1.14745         2.25772         1.83465         1.83465 
        1.15359         2.24402         1.81136         1.81136 
        1.15973         2.20904         1.78847         1.78847 
        1.16584         2.19118         1.76608         1.76608 
        1.17197         2.16474         1.74404         1.74404 
        1.17811         2.14507          1.7223          1.7223 
        1.18424         2.12133           1.701           1.701 
        1.19038         2.09753            1.68            1.68 
        1.19652         2.07357         1.65937         1.65937 
        1.20267         2.05139         1.63907         1.63907 
        1.20881         2.02646         1.61913         1.61913 
        1.21495         2.00761         1.59954         1.59954 
        1.22108         1.98404         1.58029         1.58029 
         1.2272         1.96641         1.56139         1.56139 
        1.23334         1.93736         1.54276         1.54276 
        1.23949         1.91572         1.52439         1.52439 
        1.24562         1.90126         1.50637         1.50637 
        1.25174         1.87591         1.48867         1.48867 
        1.25789         1.85928          1.4712          1.4712 
        1.26402         1.83583         1.45403         1.45403 
        1.27014          1.8162         1.43719         1.43719 
        1.27628         1.80339         1.42056         1.42056 
        1.28244         1.77647         1.40416         1.40416 
        1.28858         1.76382         1.38804         1.38804 
        1.29471         1.74088         1.37221         1.37221 
        1.30084         1.72082         1.35664         1.35664 
        1.30697         1.71179         1.34129         1.34129 
        1.31312         1.68026         1.32615         1.32615 
        1.31925         1.67006          1.3113          1.3113 
        1.32537         1.65177         1.29669         1.29669 
        1.33151          1.6414         1.28224         1.28224 
        1.33765         1.61757         1.26803         1.26803 
        1.34378         1.60331         1.25406         1.25406 
        1.34992         1.59232         1.24029         1.24029 
        1.35606         1.56625          1.2267          1.2267 
         1.3622         1.55822         1.21333         1.21333 
        1.36833         1.54076          1.2002          1.2002 
        1.37445         1.52329         1.18727         1.18727 
        1.38059         1.51406         1.17448         1.17448 
        1.38675         1.50263         1.16186         1.16186 
        1.39288          1.4832         1.14947         1.14947 
        1.39901         1.46537         1.13727         1.13727 
        1.40515         1.45252         1.12521         1.12521 
         1.4113         1.44003         1.11334         1.11334 
        1.41742         1.42742         1.10168         1.10168 
        1.42355          1.4159         1.09017         1.09017 
         1.4297          1.3985         1.07878         1.07878 
        1.43585         1.38908         1.06757         1.06757 
        1.44198         1.37741         1.05655         1.05655 
        1.44809         1.35989         1.04571         1.04571 
        1.45423         1.34762         1.03499         1.03499 
        1.46036         1.33425         1.02443         1.02443 
        1.46649         1.32268         1.01402         1.01402 
        1.47263         1.30857         1.00374         1.00374 
        1.47877         1.29523         0.99361         0.99361 
        1.48491         1.28507        0.983603        0.983603 
        1.49104         1.27484        0.973755        0.973755 
        1.49718         1.26339        0.964034        0.964034 
        1.50333          1.2506         0.95443         0.95443 
        1.50947         1.24065        0.944976        0.944976 
         1.5156         1.22865        0.935663        0.935663 
        1.52172         1.21766        0.926476        0.926476 
        1.52787         1.20654        0.917394        0.917394 
          1.534         1.19586        0.908443        0.908443 
        1.54013         1.18477        0.899622        0.899622 
        1.54627         1.17234        0.890901        0.890901 
        1.55241         1.16221        0.882294        0.882294 
        1.55855         1.15448        0.873813        0.873813 
        1.56467         1.14458        0.865466        0.865466 
         1.5708         1.13125        0.857205        0.857205 
        1.57695         1.12444        0.849039        0.849039 
        1.58308         1.11342        0.840998        0.840998 
        1.58922           1.105        0.833055        0.833055 
        1.59535         1.09506        0.825218        0.825218 
         1.6015         1.08575         0.81747         0.81747 
        1.60764         1.07836        0.809826        0.809826 
        1.61376         1.06901          0.8023          0.8023 
        1.61989          1.0582        0.794863        0.794863 
        1.62604         1.04841        0.787504        0.787504 
        1.63218         1.04328        0.780242        0.780242 
        1.63831         1.03167        0.773089        0.773089 
        1.64444         1.02289        0.766022        0.766022 
        1.65059         1.01581        0.759026        0.759026 
        1.65673         1.00654        0.752126        0.752126 
        1.66285        0.997225        0.745329        0.745329 
        1.66898        0.991555        0.738615        0.738615 
        1.67512        0.979731         0.73197         0.73197 
        1.68127        0.973195          0.7254          0.7254 
         1.6874        0.968482        0.718926        0.718926 
        1.69353        0.955596        0.712534        0.712534 
        1.69967        0.948162        0.706205        0.706205 
        1.70581        0.944386        0.699955        0.699955 
        1.71193        0.934521        0.693804        0.693804 
        1.71806        0.929224        0.687714        0.687714 
        1.72421        0.921032        0.681685        0.681685 
        1.73035        0.911965        0.675734        0.675734 
        1.73649        0.906163        0.669856        0.669856 
        1.74262         0.89874        0.664053        0.664053 
        1.74876         0.89177        0.658314        0.658314 
        1.75489        0.882447        0.652655        0.652655 
        1.76101        0.876465        0.647063        0.647063 
        1.76715        0.870509         0.64153         0.64153 
        1.77329        0.864369        0.636054        0.636054 
        1.77943        0.855173         0.63064         0.63064 
        1.78557        0.849249        0.625296        0.625296 
        1.79171        0.845381        0.620014        0.620014 
        1.79785        0.835997        0.614791        0.614791 
        1.80399        0.830729        0.609629        0.609629 
        1.81012         0.82499        0.604533        0.604533 
        1.81625        0.817798        0.599497        0.599497 
        1.82239        0.811827        0.594511        0.594511 
        1.82853        0.802976        0.589584        0.589584 
        1.83466        0.799279        0.584718        0.584718 
        1.84078        0.792937        0.579911        0.579911 
        1.84692        0.788399        0.575151        0.575151 
        1.85306        0.781209        0.570437        0.570437 
         1.8592         0.77555        0.565784        0.565784 
        1.86533        0.769107        0.561186        0.561186 
        1.87147        0.764493        0.556633        0.556633 
