# k  (h/Mpc)    P(k)  (Mpc/h)^3    P_linear(k)  (Mpc/h)^3     P_NL(k)  ShotnoiseSubtracted = false
     0.00783031         292.925         295.773         295.773 
       0.013688         343.472         344.645         344.645 
       0.019231         332.318         332.474         332.474 
      0.0249154         292.738         293.555         293.555 
      0.0312784         243.451         243.202         243.202 
      0.0375637         201.509         200.911         200.911 
      0.0433917         172.765         172.566         172.566 
      0.0492413         153.812         153.563         153.563 
      0.0555754         139.765         139.943         139.943 
      0.0619321         129.472         129.202         129.202 
       0.067871         118.702          118.89          118.89 
      0.0738098         107.012         107.214         107.214 
      0.0800417         93.8072         94.0364         94.0364 
      0.0862327         81.4777         81.4954         81.4954 
      0.0921407         71.4515         71.3622         71.3622 
      0.0982031         63.4926         63.5006         63.5006 
       0.104506         58.1465         57.9512         57.9512 
       0.110769         54.4649         54.3645         54.3645 
       0.116806         51.7101         51.7878         51.7878 
       0.122832         49.2523         49.2386         49.2386 
       0.129052         45.9939         46.0999         46.0999 
       0.135211         42.3079         42.4111         42.4111 
       0.141259         38.5472         38.5292         38.5292 
       0.147318         34.9382         34.8294         34.8294 
       0.153489         31.7019         31.6365         31.6365 
       0.159709         29.2501         29.1852         29.1852 
       0.165845          27.629         27.4699         27.4699 
       0.171974         26.2571         26.2429         26.2429 
       0.178125         25.2522         25.2226         25.2226 
       0.184229         24.2329         24.1769         24.1769 
        0.19034         22.9084         22.9594         22.9594 
       0.196428         21.5918         21.5697         21.5697 
       0.202534         20.2181         20.0942         20.0942 
       0.208729         18.7242         18.6546         18.6546 
       0.214876          17.428         17.4025         17.4025 
       0.220989         16.5013         16.3894         16.3894 
       0.227147         15.6217          15.594          15.594 
        0.23329         14.9888         14.9648         14.9648 
       0.239377         14.4506         14.4208         14.4208 
       0.245482         13.8759         13.8803         13.8803 
       0.251667         13.3409          13.292          13.292 
       0.257832         12.6874         12.6568         12.6568 
       0.263955         12.0478         12.0032         12.0032 
       0.270079         11.4233         11.3668         11.3668 
        0.27624         10.8765         10.7812         10.7812 
       0.282372         10.3695         10.2749         10.2749 
        0.28843         9.91125         9.84988         9.84988 
       0.294538         9.53862         9.48254         9.48254 
       0.300721         9.23406         9.14828         9.14828 
        0.30691         8.87813         8.82722         8.82722 
       0.313033         8.55674         8.50607         8.50607 
       0.319153         8.17732         8.17677         8.17677 
       0.325316         7.91847         7.84141         7.84141 
        0.33145         7.58009         7.51504         7.51504 
       0.337538         7.27463         7.20922         7.20922 
       0.343633         6.97823         6.92947         6.92947 
       0.349808         6.73765         6.67416         6.67416 
       0.355968          6.5131         6.44499         6.44499 
       0.362074         6.29211          6.2356          6.2356 
       0.368217         6.09094         6.03539         6.03539 
       0.374374         5.87616         5.83953         5.83953 
       0.380519         5.70008         5.64535         5.64535 
       0.386598          5.5169          5.4555          5.4555 
       0.392688         5.34434         5.26961         5.26961 
        0.39888         5.15157         5.08818         5.08818 
       0.405048         4.98579         4.91815         4.91815 
       0.411186         4.83008         4.76023         4.76023 
       0.417313         4.67173         4.61327         4.61327 
       0.423458         4.54185         4.47516         4.47516 
       0.429607         4.39742         4.34362         4.34362 
       0.435692         4.27139         4.21785         4.21785 
       0.441815           4.149         4.09474         4.09474 
       0.447964         4.04352         3.97406         3.97406 
       0.454126         3.90738         3.85622         3.85622 
       0.460267         3.79584         3.74284         3.74284 
       0.466387         3.67907         3.63478         3.63478 
        0.47254         3.58169         3.53129         3.53129 
       0.478662         3.48974         3.43331         3.43331 
       0.484765         3.38679          3.3404          3.3404 
       0.490885         3.30153         3.25132         3.25132 
       0.497035         3.23057         3.16512         3.16512 
       0.503198         3.13711         3.08141         3.08141 
       0.509342         3.06104         3.00042         3.00042 
       0.515458         2.97422         2.92229         2.92229 
       0.521598         2.89993         2.84638         2.84638 
       0.527764         2.81853         2.77277         2.77277 
       0.533884         2.76135         2.70237         2.70237 
           0.54         2.68919         2.63474         2.63474 
       0.546137         2.62627         2.56959         2.56959 
       0.552299         2.56228         2.50665         2.50665 
       0.558452          2.4929         2.44601         2.44601 
       0.564573         2.44114         2.38761         2.38761 
       0.570708         2.38309         2.33081         2.33081 
       0.576825         2.32342          2.2759          2.2759 
       0.582926         2.27656         2.22285         2.22285 
       0.589034         2.21066         2.17141         2.17141 
       0.595184         2.16453          2.1213          2.1213 
       0.601379         2.11508         2.07248         2.07248 
       0.607522          2.0745         2.02562         2.02562 
       0.613639         2.03445         1.98045         1.98045 
       0.619772         1.97994         1.93658         1.93658 
       0.625918         1.94192         1.89398         1.89398 
       0.632068         1.90491         1.85266         1.85266 
       0.638161         1.85873         1.81295         1.81295 
         0.6443         1.81954         1.77412         1.77412 
       0.650464         1.77591         1.73627         1.73627 
       0.656582         1.74565         1.69977         1.69977 
       0.662703         1.70956         1.66431         1.66431 
       0.668861         1.67969         1.62966         1.62966 
       0.675024         1.64089         1.59596         1.59596 
       0.681124         1.60471         1.56358         1.56358 
       0.687237         1.57737         1.53204         1.53204 
       0.693381          1.5467         1.50123         1.50123 
       0.699536          1.5077         1.47124         1.47124 
       0.705665         1.48037          1.4422          1.4422 
       0.711789         1.45552         1.41397         1.41397 
       0.717957         1.42384         1.38632         1.38632 
        0.72409         1.39759         1.35955         1.35955 
       0.730186         1.37084         1.33366         1.33366 
       0.736317         1.35224          1.3083          1.3083 
       0.742472          1.3255          1.2835          1.2835 
       0.748622         1.29848         1.25937         1.25937 
        0.75476         1.27112         1.23592         1.23592 
       0.760888         1.24806          1.2131          1.2131 
       0.767043         1.23269         1.19076         1.19076 
       0.773185         1.20528         1.16904         1.16904 
       0.779291         1.18551         1.14799         1.14799 
       0.785407         1.16423         1.12742         1.12742 
       0.791564         1.14523         1.10723         1.10723 
       0.797719         1.12679         1.08755         1.08755 
       0.803834         1.10832         1.06847         1.06847 
       0.809972         1.08784         1.04978         1.04978 
       0.816124         1.06713          1.0315          1.0315 
       0.822261         1.04708         1.01371         1.01371 
       0.828378         1.03231        0.996391        0.996391 
       0.834502         1.01768        0.979464        0.979464 
       0.840667          0.9959        0.962821        0.962821 
       0.846816        0.979975        0.946614        0.946614 
       0.852925        0.968049        0.930883        0.930883 
       0.859047        0.951625        0.915478        0.915478 
       0.865192        0.934193        0.900372        0.900372 
       0.871341        0.919689        0.885598        0.885598 
       0.877463        0.907782        0.871224        0.871224 
       0.883569         0.89066        0.857206        0.857206 
       0.889708        0.876986        0.843425        0.843425 
       0.895864        0.862591        0.829913        0.829913 
       0.902008        0.848536        0.816726        0.816726 
       0.908149        0.835805        0.803835        0.803835 
       0.914301        0.819452        0.791201        0.791201 
       0.920448        0.808389        0.778852        0.778852 
       0.926574        0.795777         0.76681         0.76681 
       0.932687        0.783392        0.755048        0.755048 
       0.938823        0.774813        0.743492        0.743492 
       0.944975        0.762731        0.732152        0.732152 
       0.951105        0.751679        0.721089        0.721089 
       0.957225        0.742875        0.710273        0.710273 
       0.963368        0.730674        0.699643        0.699643 
       0.969511        0.718407        0.689231        0.689231 
       0.975621        0.707136        0.679086        0.679086 
       0.981748        0.699989         0.66912         0.66912 
       0.987916        0.688479        0.659291        0.659291 
        0.99406        0.677709        0.649697        0.649697 
        1.00019        0.670219        0.640314        0.640314 
        1.00632        0.658147        0.631124        0.631124 
        1.01246        0.649183        0.622101        0.622101 
        1.01859        0.641416        0.613269        0.613269 
        1.02471        0.631795         0.60462         0.60462 
        1.03085        0.625002        0.596108        0.596108 
        1.03698        0.614857        0.587778        0.587778 
        1.04314        0.607072        0.579572        0.579572 
        1.04929        0.597973        0.571542        0.571542 
        1.05541        0.591278        0.563696        0.563696 
        1.06154        0.582024        0.555979        0.555979 
        1.06769        0.573964        0.548394        0.548394 
        1.07382        0.566773        0.540976        0.540976 
        1.07993        0.558104        0.533711        0.533711 
        1.08607        0.553403        0.526551        0.526551 
        1.09222        0.544524        0.519515        0.519515 
        1.09836        0.539546        0.512616        0.512616 
        1.10449        0.532448         0.50585         0.50585 
        1.11063        0.523409        0.499199        0.499199 
        1.11677        0.516282         0.49267         0.49267 
         1.1229        0.510543         0.48627         0.48627 
        1.12903        0.503607        0.479977        0.479977 
        1.13518         0.49832        0.473791        0.473791 
        1.14131        0.491093        0.467717        0.467717 
        1.14745        0.482584        0.461754        0.461754 
        1.15359        0.478526        0.455893        0.455893 
        1.15973        0.470997        0.450131        0.450131 
        1.16584        0.468045        0.444495        0.444495 
        1.17197        0.461275        0.438948        0.438948 
        1.17811        0.456514        0.433478        0.433478 
        1.18424        0.451786        0.428117        0.428117 
        1.19038        0.444687        0.422832        0.422832 
        1.19652        0.438551        0.417637        0.417637 
        1.20267        0.435154         0.41253         0.41253 
        1.20881        0.428792         0.40751         0.40751 
        1.21495        0.425014        0.402581        0.402581 
        1.22108        0.419416        0.397734        0.397734 
         1.2272        0.415261        0.392979        0.392979 
        1.23334        0.409444         0.38829         0.38829 
        1.23949        0.404949        0.383666        0.383666 
        1.24562        0.400397        0.379131        0.379131 
        1.25174        0.396156        0.374675        0.374675 
        1.25789        0.391951        0.370278        0.370278 
        1.26402        0.385994        0.365958        0.365958 
        1.27014        0.381927        0.361718        0.361718 
        1.27628        0.378841        0.357533        0.357533 
        1.28244        0.372734        0.353405        0.353405 
        1.28858        0.369319        0.349348        0.349348 
        1.29471        0.366127        0.345364        0.345364 
        1.30084        0.361062        0.341446        0.341446 
        1.30697        0.357021        0.337582        0.337582 
        1.31312          0.3519        0.333773        0.333773 
        1.31925        0.348916        0.330034        0.330034 
        1.32537        0.345629        0.326356        0.326356 
        1.33151        0.342482        0.322721        0.322721 
        1.33765        0.338433        0.319144        0.319144 
        1.34378        0.333784        0.315628        0.315628 
        1.34992        0.330867        0.312162        0.312162 
        1.35606        0.327134        0.308741        0.308741 
         1.3622        0.323786        0.305378        0.305378 
        1.36833        0.320109        0.302072        0.302072 
        1.37445         0.31582        0.298817        0.298817 
        1.38059        0.312874          0.2956          0.2956 
        1.38675        0.311324        0.292422        0.292422 
        1.39288        0.307104        0.289304        0.289304 
        1.39901        0.303943        0.286232        0.286232 
        1.40515        0.301083        0.283199        0.283199 
         1.4113        0.297176         0.28021         0.28021 
        1.41742        0.294322        0.277276        0.277276 
        1.42355        0.292381        0.274378        0.274378 
         1.4297        0.288297        0.271513        0.271513 
        1.43585        0.285641         0.26869         0.26869 
        1.44198         0.28377        0.265918        0.265918 
        1.44809        0.279986         0.26319         0.26319 
        1.45423        0.277398        0.260491        0.260491 
        1.46036        0.274501        0.257834        0.257834 
        1.46649        0.272203        0.255213        0.255213 
        1.47263        0.269109        0.252626        0.252626 
        1.47877        0.266041        0.250077        0.250077 
        1.48491          0.2638        0.247558        0.247558 
        1.49104         0.26053        0.245079        0.245079 
        1.49718        0.258312        0.242633        0.242633 
        1.50333        0.256154        0.240216        0.240216 
        1.50947         0.25352        0.237836        0.237836 
         1.5156        0.250831        0.235492        0.235492 
        1.52172        0.248606         0.23318         0.23318 
        1.52787        0.246087        0.230894        0.230894 
          1.534         0.24369        0.228642        0.228642 
        1.54013        0.241063        0.226421        0.226421 
        1.54627        0.239282        0.224226        0.224226 
        1.55241        0.236606         0.22206         0.22206 
        1.55855        0.234205        0.219925        0.219925 
        1.56467        0.233109        0.217825        0.217825 
         1.5708        0.230238        0.215746        0.215746 
        1.57695        0.228299         0.21369         0.21369 
        1.58308         0.22589        0.211666        0.211666 
        1.58922        0.224022        0.209667        0.209667 
        1.59535         0.22176        0.207695        0.207695 
         1.6015        0.219691        0.205745        0.205745 
        1.60764        0.217898        0.203821        0.203821 
        1.61376        0.215299        0.201927        0.201927 
        1.61989        0.213817        0.200055        0.200055 
        1.62604         0.21196        0.198203        0.198203 
        1.63218        0.210138        0.196375        0.196375 
        1.63831        0.208378        0.194575        0.194575 
        1.64444        0.206239        0.192796        0.192796 
        1.65059        0.204406        0.191036        0.191036 
        1.65673        0.202677        0.189299        0.189299 
        1.66285        0.201085        0.187588        0.187588 
        1.66898        0.199407        0.185898        0.185898 
        1.67512        0.197064        0.184226        0.184226 
        1.68127        0.195266        0.182572        0.182572 
         1.6874        0.194205        0.180943        0.180943 
        1.69353           0.192        0.179334        0.179334 
        1.69967        0.190711        0.177741        0.177741 
        1.70581        0.188593        0.176168        0.176168 
        1.71193        0.187225         0.17462         0.17462 
        1.71806        0.185374        0.173087        0.173087 
        1.72421        0.184145         0.17157         0.17157 
        1.73035         0.18224        0.170072        0.170072 
        1.73649        0.181102        0.168593        0.168593 
        1.74262        0.179367        0.167132        0.167132 
        1.74876        0.177712        0.165688        0.165688 
        1.75489        0.176429        0.164263        0.164263 
        1.76101        0.174628        0.162856        0.162856 
        1.76715        0.173253        0.161463        0.161463 
        1.77329        0.171698        0.160085        0.160085 
        1.77943         0.17015        0.158723        0.158723 
        1.78557        0.169156        0.157378        0.157378 
        1.79171        0.167733        0.156048        0.156048 
        1.79785        0.166246        0.154734        0.154734 
        1.80399        0.164874        0.153434        0.153434 
        1.81012        0.163586        0.152152        0.152152 
        1.81625        0.162212        0.150884        0.150884 
        1.82239        0.161025         0.14963         0.14963 
        1.82853        0.159312         0.14839         0.14839 
        1.83466        0.158202        0.147165        0.147165 
        1.84078        0.156861        0.145955        0.145955 
        1.84692        0.155539        0.144757        0.144757 
        1.85306        0.154732        0.143571        0.143571 
         1.8592        0.153112        0.142399        0.142399 
        1.86533        0.152174        0.141242        0.141242 
        1.87147        0.150796        0.140096        0.140096 
        1.87761         0.14979        0.138962        0.138962 
