# k  (h/Mpc)    Pcb(k)  (Mpc/h)^3    Pcb_linear(k) (Mpc/h)^3    Pcb_NL(k) (Mpc/h)^3   ShotnoiseSubtracted = false
     0.00783031         15426.8         15648.3         15648.3 
       0.013688         18373.4         18198.3         18198.3 
       0.019231         17605.4         17544.6         17544.6 
      0.0249154         15205.3         15486.1         15486.1 
      0.0312784           12736         12827.4         12827.4 
      0.0375637         10645.3         10595.6         10595.6 
      0.0433917         9000.15         9100.17         9100.17 
      0.0492413         8084.11         8097.67         8097.67 
      0.0555754         7209.22         7379.23         7379.23 
      0.0619321         6864.85         6812.67         6812.67 
       0.067871         6153.26         6268.81         6268.81 
      0.0738098         5561.53         5653.08         5653.08 
      0.0800417          4851.4         4958.19         4958.19 
      0.0862327         4276.89          4296.9          4296.9 
      0.0921407         3832.48         3762.59         3762.59 
      0.0982031         3395.24         3348.06         3348.06 
       0.104506         3192.73         3055.45         3055.45 
       0.110769         2976.61         2866.34         2866.34 
       0.116806         2818.93         2730.47         2730.47 
       0.122832         2684.96         2596.06         2596.06 
       0.129052         2469.35         2430.57         2430.57 
       0.135211         2297.28         2236.07         2236.07 
       0.141259         2152.48          2031.4          2031.4 
       0.147318         1990.54         1836.33         1836.33 
       0.153489          1807.6         1667.98         1667.98 
       0.159709         1703.29         1538.74         1538.74 
       0.165845         1636.94          1448.3          1448.3 
       0.171974         1555.38         1383.61         1383.61 
       0.178125         1486.56         1329.81         1329.81 
       0.184229         1422.54         1274.68         1274.68 
        0.19034         1331.38         1210.49         1210.49 
       0.196428         1292.41         1137.22         1137.22 
       0.202534         1234.57         1059.42         1059.42 
       0.208729         1163.19         983.522         983.522 
       0.214876         1104.37         917.507         917.507 
       0.220989         1062.46         864.096         864.096 
       0.227147         1016.35         822.158         822.158 
        0.23329         976.636         788.983         788.983 
       0.239377         957.138         760.303         760.303 
       0.245482         894.107         731.805         731.805 
       0.251667          885.56          700.79          700.79 
       0.257832         848.004           667.3           667.3 
       0.263955         816.812         632.837         632.837 
       0.270079         783.876         599.284         599.284 
        0.27624         772.207         568.411         568.411 
       0.282372         740.021         541.716         541.716 
        0.28843         726.507          519.31          519.31 
       0.294538         688.891         499.943         499.943 
       0.300721         684.669         482.319         482.319 
        0.30691         654.287         465.392         465.392 
       0.313033         640.526         448.461         448.461 
       0.319153         623.422         431.099         431.099 
       0.325316         604.005         413.417         413.417 
        0.33145         586.568         396.211         396.211 
       0.337538         575.902         380.088         380.088 
       0.343633         559.005         365.337         365.337 
       0.349808         538.483         351.879         351.879 
       0.355968         534.016         339.795         339.795 
       0.362074         525.956         328.755         328.755 
       0.368217         510.197           318.2           318.2 
       0.374374         487.597         307.872         307.872 
       0.380519         486.104         297.636         297.636 
       0.386598         472.299         287.627         287.627 
       0.392688         469.191         277.826         277.826 
        0.39888         455.316         268.261         268.261 
       0.405048         445.802         259.295         259.295 
       0.411186         438.631          250.97          250.97 
       0.417313         429.663         243.222         243.222 
       0.423458         420.535         235.941         235.941 
       0.429607         414.105         229.004         229.004 
       0.435692         403.406         222.375         222.375 
       0.441815         399.357         215.884         215.884 
       0.447964         390.348         209.521         209.521 
       0.454126         382.147         203.308         203.308 
       0.460267         374.524         197.331         197.331 
       0.466387         370.079         191.634         191.634 
        0.47254         363.044         186.177         186.177 
       0.478662         361.594         181.012         181.012 
       0.484765         348.626         176.113         176.113 
       0.490885         345.271         171.417         171.417 
       0.497035         338.608         166.872         166.872 
       0.503198          333.78         162.459         162.459 
       0.509342         331.184         158.189         158.189 
       0.515458         327.162         154.069         154.069 
       0.521598         318.669         150.067         150.067 
       0.527764         313.872         146.186         146.186 
       0.533884         311.115         142.475         142.475 
           0.54         306.662         138.909         138.909 
       0.546137         304.846         135.474         135.474 
       0.552299         298.529         132.156         132.156 
       0.558452         296.843         128.959         128.959 
       0.564573          292.61          125.88          125.88 
       0.570708         286.793         122.885         122.885 
       0.576825         281.151          119.99          119.99 
       0.582926         279.111         117.193         117.193 
       0.589034         276.272         114.481         114.481 
       0.595184         273.645          111.84          111.84 
       0.601379         269.339         109.265         109.265 
       0.607522         265.557         106.795         106.795 
       0.613639          263.57         104.413         104.413 
       0.619772         258.012           102.1           102.1 
       0.625918         256.945         99.8547         99.8547 
       0.632068         252.415         97.6764         97.6764 
       0.638161         251.221         95.5828         95.5828 
         0.6443         247.093         93.5353         93.5353 
       0.650464         244.508         91.5397         91.5397 
       0.656582         242.133         89.6157         89.6157 
       0.662703         241.458          87.746          87.746 
       0.668861         237.202         85.9189         85.9189 
       0.675024         234.042         84.1427         84.1427 
       0.681124         232.358          82.435          82.435 
       0.687237         229.849         80.7722         80.7722 
       0.693381         226.194         79.1482         79.1482 
       0.699536         224.182         77.5667         77.5667 
       0.705665         222.033         76.0356         76.0356 
       0.711789         220.372         74.5476         74.5476 
       0.717957         218.935         73.0895         73.0895 
        0.72409         216.555         71.6785         71.6785 
       0.730186         213.725         70.3132         70.3132 
       0.736317         211.432         68.9762         68.9762 
       0.742472         209.954         67.6689         67.6689 
       0.748622         208.118         66.3969         66.3969 
        0.75476           205.9         65.1603         65.1603 
       0.760888         203.582         63.9571         63.9571 
       0.767043         203.411         62.7796         62.7796 
       0.773185         201.148         61.6343         61.6343 
       0.779291         197.371         60.5242         60.5242 
       0.785407          196.86         59.4399         59.4399 
       0.791564         194.704         58.3755         58.3755 
       0.797719          192.15         57.3378         57.3378 
       0.803834         190.864         56.3319         56.3319 
       0.809972         190.007         55.3467         55.3467 
       0.816124          189.12          54.383          54.383 
       0.822261          187.13         53.4449         53.4449 
       0.828378         185.153         52.5318         52.5318 
       0.834502         184.407         51.6394         51.6394 
       0.840667         181.974         50.7619         50.7619 
       0.846816         180.425         49.9075         49.9075 
       0.852925         179.632         49.0781         49.0781 
       0.859047          178.02         48.2659         48.2659 
       0.865192         175.664         47.4695         47.4695 
       0.871341         174.342         46.6906         46.6906 
       0.877463         173.129         45.9327         45.9327 
       0.883569         172.673         45.1937         45.1937 
       0.889708         170.563         44.4671         44.4671 
       0.895864         168.803         43.7547         43.7547 
       0.902008          167.82         43.0595         43.0595 
       0.908149         167.177         42.3798         42.3798 
       0.914301         164.767         41.7138         41.7138 
       0.920448         163.876         41.0627         41.0627 
       0.926574         162.575         40.4278         40.4278 
       0.932687         162.474         39.8077         39.8077 
       0.938823         160.264         39.1984         39.1984 
       0.944975         159.293         38.6005         38.6005 
       0.951105         158.297         38.0173         38.0173 
       0.957225          156.99         37.4471         37.4471 
       0.963368         154.719         36.8866         36.8866 
       0.969511         154.314         36.3377         36.3377 
       0.975621         152.874         35.8028         35.8028 
       0.981748         152.796         35.2774         35.2774 
       0.987916         151.178         34.7592         34.7592 
        0.99406         149.771         34.2534         34.2534 
        1.00019         149.542         33.7586         33.7586 
        1.00632         147.978         33.2741         33.2741 
        1.01246         147.064         32.7984         32.7984 
        1.01859         146.595         32.3328         32.3328 
        1.02471         144.592         31.8768         31.8768 
        1.03085         143.447         31.4281         31.4281 
        1.03698         142.732         30.9889         30.9889 
        1.04314         141.285         30.5562         30.5562 
        1.04929         140.816         30.1329         30.1329 
        1.05541          140.17         29.7192         29.7192 
        1.06154         138.904         29.3123         29.3123 
        1.06769         138.662         28.9124         28.9124 
        1.07382         137.227         28.5213         28.5213 
        1.07993         136.099         28.1384         28.1384 
        1.08607          135.53         27.7608         27.7608 
        1.09222         134.916         27.3899         27.3899 
        1.09836         133.757         27.0261         27.0261 
        1.10449         132.259         26.6694         26.6694 
        1.11063         131.309         26.3188         26.3188 
        1.11677         130.827         25.9746         25.9746 
         1.1229         129.873         25.6371         25.6371 
        1.12903         129.292         25.3054         25.3054 
        1.13518         128.539         24.9792         24.9792 
        1.14131          127.22          24.659          24.659 
        1.14745         127.018         24.3446         24.3446 
        1.15359         125.974         24.0356         24.0356 
        1.15973         125.193         23.7318         23.7318 
        1.16584         124.064         23.4347         23.4347 
        1.17197          123.54         23.1422         23.1422 
        1.17811         122.681         22.8538         22.8538 
        1.18424         122.201         22.5712         22.5712 
        1.19038         121.808         22.2925         22.2925 
        1.19652         120.684         22.0187         22.0187 
        1.20267         120.027         21.7494         21.7494 
        1.20881           119.1         21.4847         21.4847 
        1.21495         118.374         21.2249         21.2249 
        1.22108         117.683         20.9693         20.9693 
         1.2272         116.684         20.7186         20.7186 
        1.23334         116.271         20.4714         20.4714 
        1.23949         115.512         20.2277         20.2277 
        1.24562         114.758         19.9885         19.9885 
        1.25174         114.044         19.7536         19.7536 
        1.25789         113.391         19.5218         19.5218 
        1.26402         112.185         19.2941         19.2941 
        1.27014         111.642         19.0705         19.0705 
        1.27628          111.28         18.8498         18.8498 
        1.28244         110.886         18.6322         18.6322 
        1.28858         110.165         18.4183         18.4183 
        1.29471         109.045         18.2083         18.2083 
        1.30084         108.902         18.0017         18.0017 
        1.30697         107.699          17.798          17.798 
        1.31312         107.278         17.5972         17.5972 
        1.31925         106.508            17.4            17.4 
        1.32537          106.09         17.2061         17.2061 
        1.33151          105.15         17.0145         17.0145 
        1.33765         104.643         16.8259         16.8259 
        1.34378         104.152         16.6405         16.6405 
        1.34992         103.814         16.4578         16.4578 
        1.35606         103.254         16.2775         16.2775 
         1.3622         102.197         16.1001         16.1001 
        1.36833         101.633         15.9258         15.9258 
        1.37445         101.182         15.7542         15.7542 
        1.38059         100.455         15.5846         15.5846 
        1.38675         99.8729         15.4171         15.4171 
        1.39288         99.6441         15.2527         15.2527 
        1.39901         99.0382         15.0907         15.0907 
        1.40515         98.1292         14.9308         14.9308 
         1.4113         97.7455         14.7732         14.7732 
        1.41742         97.1203         14.6185         14.6185 
        1.42355         96.5619         14.4658         14.4658 
         1.4297         96.1146         14.3147         14.3147 
        1.43585         95.3074         14.1659         14.1659 
        1.44198         94.9408         14.0197         14.0197 
        1.44809         94.4641         13.8759         13.8759 
        1.45423         94.0187         13.7336         13.7336 
        1.46036         93.4408         13.5935         13.5935 
        1.46649         92.7012         13.4553         13.4553 
        1.47263         92.0911          13.319          13.319 
        1.47877         91.8349         13.1845         13.1845 
        1.48491          91.002         13.0517         13.0517 
        1.49104         90.8643         12.9211         12.9211 
        1.49718         90.2228         12.7921         12.7921 
        1.50333         89.7525         12.6646         12.6646 
        1.50947         89.2214         12.5392         12.5392 
         1.5156         88.7106         12.4156         12.4156 
        1.52172         88.1443         12.2937         12.2937 
        1.52787         87.6786         12.1732         12.1732 
          1.534         87.1595         12.0544         12.0544 
        1.54013         86.7362         11.9374         11.9374 
        1.54627         86.3277         11.8216         11.8216 
        1.55241         85.7052         11.7074         11.7074 
        1.55855         85.2401         11.5949         11.5949 
        1.56467         84.9952         11.4841         11.4841 
         1.5708          84.245         11.3745         11.3745 
        1.57695         84.1785         11.2662         11.2662 
        1.58308          83.551         11.1595         11.1595 
        1.58922         83.2021         11.0541         11.0541 
        1.59535         82.6931         10.9501         10.9501 
         1.6015         82.1833         10.8473         10.8473 
        1.60764         81.7158         10.7458         10.7458 
        1.61376           81.48          10.646          10.646 
        1.61989         80.8629         10.5473         10.5473 
        1.62604         80.5229         10.4496         10.4496 
        1.63218         80.2586         10.3533         10.3533 
        1.63831         79.3642         10.2584         10.2584 
        1.64444         79.1015         10.1646         10.1646 
        1.65059         78.6986         10.0718         10.0718 
        1.65673         78.0627         9.98019         9.98019 
        1.66285         77.8328         9.89001         9.89001 
        1.66898         77.5707         9.80091         9.80091 
        1.67512         76.8825         9.71274         9.71274 
        1.68127         76.6237         9.62557         9.62557 
         1.6874         76.0288         9.53965         9.53965 
        1.69353         75.6456         9.45484         9.45484 
        1.69967         75.4069         9.37085         9.37085 
        1.70581         74.9561         9.28792         9.28792 
        1.71193         74.5698          9.2063          9.2063 
        1.71806         74.1973         9.12549         9.12549 
        1.72421         73.6235         9.04549         9.04549 
        1.73035         73.3822         8.96653         8.96653 
        1.73649          73.062         8.88853         8.88853 
        1.74262         72.4793         8.81152         8.81152 
        1.74876         72.2434         8.73537         8.73537 
        1.75489         71.7297         8.66028         8.66028 
        1.76101         71.4119         8.58609         8.58609 
        1.76715         70.9085         8.51266         8.51266 
        1.77329         70.6694            8.44            8.44 
        1.77943         70.1375         8.36816         8.36816 
        1.78557         70.0248         8.29725         8.29725 
        1.79171         69.3376         8.22715         8.22715 
        1.79785         69.0174         8.15785         8.15785 
        1.80399         68.7675         8.08935         8.08935 
        1.81012         68.4813         8.02174         8.02174 
        1.81625           68.06         7.95492         7.95492 
        1.82239          67.717         7.88876         7.88876 
        1.82853         67.4119         7.82338         7.82338 
        1.83466         67.0401          7.7588          7.7588 
        1.84078         66.6132         7.69502         7.69502 
        1.84692         66.3279         7.63185         7.63185 
        1.85306         65.9294         7.56931         7.56931 
         1.8592         65.6967         7.50757         7.50757 
        1.86533         65.2296         7.44655         7.44655 
        1.87147         64.7602         7.38613         7.38613 
