# k  (h/Mpc)    Pcb(k)  (Mpc/h)^3    Pcb_linear(k) (Mpc/h)^3    Pcb_NL(k) (Mpc/h)^3   ShotnoiseSubtracted = false
     0.00783031         17555.9         17815.2         17815.2 
       0.013688         20931.9         20714.3         20714.3 
       0.019231         20039.8         19969.1         19969.1 
      0.0249154         17279.2         17625.7         17625.7 
      0.0312784         14478.9         14599.4         14599.4 
      0.0375637         12112.7         12059.3         12059.3 
      0.0433917         10228.8         10357.2         10357.2 
      0.0492413         9194.48         9216.15         9216.15 
      0.0555754            8185         8398.45         8398.45 
      0.0619321         7808.86         7753.62         7753.62 
       0.067871            6987         7134.63         7134.63 
      0.0738098         6317.91         6433.85         6433.85 
      0.0800417         5510.04         5642.98         5642.98 
      0.0862327         4864.31         4890.35         4890.35 
      0.0921407         4368.85         4282.24         4282.24 
      0.0982031         3872.27         3810.46         3810.46 
       0.104506         3647.27         3477.44         3477.44 
       0.110769         3399.43          3262.2          3262.2 
       0.116806         3222.03         3107.57         3107.57 
       0.122832         3065.95          2954.6          2954.6 
       0.129052         2817.53         2766.25         2766.25 
       0.135211          2623.6         2544.89         2544.89 
       0.141259         2464.57         2311.95         2311.95 
       0.147318         2284.12         2089.94         2089.94 
       0.153489         2075.63         1898.34         1898.34 
       0.159709          1958.3         1751.25         1751.25 
       0.165845         1885.18         1648.32         1648.32 
       0.171974         1792.97         1574.69         1574.69 
       0.178125         1711.91         1513.47         1513.47 
       0.184229         1635.99         1450.72         1450.72 
        0.19034         1535.86         1377.67         1377.67 
       0.196428         1491.22         1294.27         1294.27 
       0.202534         1424.43         1205.74         1205.74 
       0.208729         1345.15         1119.35         1119.35 
       0.214876         1281.95         1044.22         1044.22 
       0.220989         1233.54         983.433         983.433 
       0.227147          1182.4         935.703         935.703 
        0.23329          1136.2         897.946         897.946 
       0.239377         1114.88         865.306         865.306 
       0.245482         1042.62         832.871         832.871 
       0.251667         1033.72         797.574         797.574 
       0.257832         989.327         759.458         759.458 
       0.263955         953.615         720.235         720.235 
       0.270079         916.395         682.049         682.049 
        0.27624         903.368         646.912         646.912 
       0.282372         865.726          616.53          616.53 
        0.28843         853.639          591.03          591.03 
       0.294538         809.265         568.988         568.988 
       0.300721         804.268          548.93          548.93 
        0.30691         770.098         529.665         529.665 
       0.313033         753.945         510.396         510.396 
       0.319153         736.252         490.637         490.637 
       0.325316         712.877         470.512         470.512 
        0.33145         693.807          450.93          450.93 
       0.337538         680.447          432.58          432.58 
       0.343633         662.432         415.792         415.792 
       0.349808         637.949         400.475         400.475 
       0.355968         633.091         386.722         386.722 
       0.362074         625.022         374.158         374.158 
       0.368217         605.633         362.145         362.145 
       0.374374         579.492          350.39          350.39 
       0.380519         579.042         338.741         338.741 
       0.386598         561.903         327.349         327.349 
       0.392688         558.953         316.195         316.195 
        0.39888         542.178         305.309         305.309 
       0.405048         532.385         295.105         295.105 
       0.411186         524.466          285.63          285.63 
       0.417313         513.551         276.813         276.813 
       0.423458         502.619         268.525         268.525 
       0.429607         496.043         260.631         260.631 
       0.435692         483.404         253.086         253.086 
       0.441815         478.466         245.699         245.699 
       0.447964         467.992         238.457         238.457 
       0.454126         460.697         231.386         231.386 
       0.460267         450.248         224.584         224.584 
       0.466387         444.904         218.099         218.099 
        0.47254         438.277         211.889         211.889 
       0.478662         435.522         206.011         206.011 
       0.484765         420.176         200.435         200.435 
       0.490885         416.674          195.09          195.09 
       0.497035         408.321         189.918         189.918 
       0.503198         403.854         184.895         184.895 
       0.509342         400.769         180.035         180.035 
       0.515458         396.503         175.347         175.347 
       0.521598         385.603         170.792         170.792 
       0.527764         379.862         166.375         166.375 
       0.533884         376.967         162.151         162.151 
           0.54         371.931         158.093         158.093 
       0.546137         369.561         154.184         154.184 
       0.552299         362.632         150.407         150.407 
       0.558452         360.452         146.769         146.769 
       0.564573          355.68         143.264         143.264 
       0.570708          349.41         139.856         139.856 
       0.576825         341.539         136.562         136.562 
       0.582926         340.258         133.378         133.378 
       0.589034         336.761         130.292         130.292 
       0.595184         333.937         127.285         127.285 
       0.601379          328.07         124.356         124.356 
       0.607522         323.999         121.544         121.544 
       0.613639         321.984         118.833         118.833 
       0.619772         315.483         116.201         116.201 
       0.625918         314.191         113.645         113.645 
       0.632068         308.632         111.166         111.166 
       0.638161         307.218         108.783         108.783 
         0.6443         302.298         106.453         106.453 
       0.650464         299.481         104.182         104.182 
       0.656582         296.473         101.992         101.992 
       0.662703          295.97         99.8642         99.8642 
       0.668861         291.035         97.7848         97.7848 
       0.675024         287.605         95.7632         95.7632 
       0.681124         285.103         93.8197         93.8197 
       0.687237         282.365         91.9272         91.9272 
       0.693381         278.051          90.079          90.079 
       0.699536         275.096          88.279          88.279 
       0.705665          272.78         86.5365         86.5365 
       0.711789         271.479          84.843          84.843 
       0.717957         269.183         83.1835         83.1835 
        0.72409         266.884         81.5776         81.5776 
       0.730186          263.19         80.0239         80.0239 
       0.736317         260.716         78.5021         78.5021 
       0.742472         258.772         77.0144         77.0144 
       0.748622         256.514         75.5666         75.5666 
        0.75476         253.422         74.1592         74.1592 
       0.760888          250.78         72.7899         72.7899 
       0.767043         250.755         71.4498         71.4498 
       0.773185         247.989         70.1463         70.1463 
       0.779291         243.825         68.8829         68.8829 
       0.785407         243.207         67.6489         67.6489 
       0.791564         240.258         66.4374         66.4374 
       0.797719         237.792         65.2564         65.2564 
       0.803834         235.615         64.1116         64.1116 
       0.809972         235.014         62.9904         62.9904 
       0.816124         233.914         61.8936         61.8936 
       0.822261         231.509         60.8259         60.8259 
       0.828378         229.141         59.7867         59.7867 
       0.834502         227.543          58.771          58.771 
       0.840667         225.389         57.7724         57.7724 
       0.846816         223.781         56.7999         56.7999 
       0.852925         222.517          55.856          55.856 
       0.859047         220.661         54.9316         54.9316 
       0.865192         217.647         54.0252         54.0252 
       0.871341          216.04         53.1388         53.1388 
       0.877463         215.224         52.2762         52.2762 
       0.883569         214.089         51.4351         51.4351 
       0.889708         211.466         50.6082         50.6082 
       0.895864         209.986         49.7975         49.7975 
       0.902008          208.41         49.0062         49.0062 
       0.908149         207.166         48.2327         48.2327 
       0.914301         204.475         47.4746         47.4746 
       0.920448         203.511         46.7336         46.7336 
       0.926574         201.496         46.0111         46.0111 
       0.932687         201.487         45.3053         45.3053 
       0.938823         198.929         44.6119         44.6119 
       0.944975         198.206         43.9315         43.9315 
       0.951105         196.769         43.2676         43.2676 
       0.957225         195.395         42.6187         42.6187 
       0.963368         192.493         41.9809         41.9809 
       0.969511         191.858         41.3561         41.3561 
       0.975621         190.038         40.7474         40.7474 
       0.981748         189.764         40.1494         40.1494 
       0.987916         188.184         39.5596         39.5596 
        0.99406         186.229         38.9839         38.9839 
        1.00019         185.655         38.4209         38.4209 
        1.00632         184.142         37.8695         37.8695 
        1.01246         182.779         37.3281         37.3281 
        1.01859         182.709         36.7981         36.7981 
        1.02471          179.86         36.2792         36.2792 
        1.03085          178.66         35.7684         35.7684 
        1.03698         177.636         35.2686         35.2686 
        1.04314         176.035         34.7762         34.7762 
        1.04929         175.385         34.2944         34.2944 
        1.05541         174.909         33.8236         33.8236 
        1.06154         172.746         33.3605         33.3605 
        1.06769          172.44         32.9054         32.9054 
        1.07382         170.842         32.4603         32.4603 
        1.07993         169.458         32.0244         32.0244 
        1.08607         169.166         31.5947         31.5947 
        1.09222          167.87         31.1725         31.1725 
        1.09836         166.529         30.7586         30.7586 
        1.10449         164.765         30.3526         30.3526 
        1.11063         163.519         29.9535         29.9535 
        1.11677         162.956         29.5618         29.5618 
         1.1229         161.664         29.1777         29.1777 
        1.12903         161.043         28.8002         28.8002 
        1.13518          159.91          28.429          28.429 
        1.14131          158.35         28.0645         28.0645 
        1.14745          158.41         27.7067         27.7067 
        1.15359         156.923          27.355          27.355 
        1.15973         155.613         27.0093         27.0093 
        1.16584         154.686         26.6711         26.6711 
        1.17197         154.314         26.3382         26.3382 
        1.17811         152.584           26.01           26.01 
        1.18424         152.029         25.6884         25.6884 
        1.19038         151.589         25.3712         25.3712 
        1.19652         150.103         25.0596         25.0596 
        1.20267         149.691         24.7531         24.7531 
        1.20881         148.391         24.4519         24.4519 
        1.21495         147.446         24.1561         24.1561 
        1.22108         146.471         23.8653         23.8653 
         1.2272         145.392           23.58           23.58 
        1.23334         145.137         23.2986         23.2986 
        1.23949         143.749         23.0212         23.0212 
        1.24562         142.987         22.7491         22.7491 
        1.25174         142.196         22.4817         22.4817 
        1.25789         141.276         22.2178         22.2178 
        1.26402         139.752         21.9587         21.9587 
        1.27014         138.885         21.7042         21.7042 
        1.27628         138.495         21.4531         21.4531 
        1.28244          138.25         21.2054         21.2054 
        1.28858         136.896          20.962          20.962 
        1.29471         135.796         20.7229         20.7229 
        1.30084         135.425         20.4878         20.4878 
        1.30697         133.896          20.256          20.256 
        1.31312         133.302         20.0274         20.0274 
        1.31925         132.434         19.8031         19.8031 
        1.32537         132.185         19.5824         19.5824 
        1.33151         130.937         19.3643         19.3643 
        1.33765         130.015         19.1496         19.1496 
        1.34378         129.529         18.9387         18.9387 
        1.34992         128.978         18.7307         18.7307 
        1.35606         128.651         18.5254         18.5254 
         1.3622         127.201         18.3236         18.3236 
        1.36833         126.307         18.1253         18.1253 
        1.37445         125.837         17.9299         17.9299 
        1.38059         124.863         17.7369         17.7369 
        1.38675         124.332         17.5462         17.5462 
        1.39288         123.715         17.3591         17.3591 
        1.39901         123.287         17.1748         17.1748 
        1.40515         121.952         16.9928         16.9928 
         1.4113          121.55         16.8135         16.8135 
        1.41742         120.516         16.6374         16.6374 
        1.42355         120.038         16.4636         16.4636 
         1.4297         119.309         16.2916         16.2916 
        1.43585         118.484         16.1223         16.1223 
        1.44198         117.994         15.9559         15.9559 
        1.44809         117.437         15.7922         15.7922 
        1.45423         116.916         15.6303         15.6303 
        1.46036         115.864         15.4708         15.4708 
        1.46649         115.046         15.3136         15.3136 
        1.47263         114.395         15.1584         15.1584 
        1.47877         113.781         15.0054         15.0054 
        1.48491         112.787         14.8543         14.8543 
        1.49104         112.692         14.7055         14.7055 
        1.49718         111.784         14.5587         14.5587 
        1.50333         111.146         14.4137         14.4137 
        1.50947          110.55         14.2709         14.2709 
         1.5156         109.963         14.1303         14.1303 
        1.52172         109.238         13.9915         13.9915 
        1.52787         108.521         13.8544         13.8544 
          1.534         108.112         13.7192         13.7192 
        1.54013         107.522          13.586          13.586 
        1.54627         106.885         13.4543         13.4543 
        1.55241         106.137         13.3243         13.3243 
        1.55855         105.531         13.1962         13.1962 
        1.56467         104.976         13.0702         13.0702 
         1.5708         104.129         12.9454         12.9454 
        1.57695         103.929         12.8221         12.8221 
        1.58308         103.384         12.7006         12.7006 
        1.58922         102.921         12.5807         12.5807 
        1.59535         102.151         12.4623         12.4623 
         1.6015           101.8         12.3453         12.3453 
        1.60764         101.069         12.2299         12.2299 
        1.61376         100.548         12.1162         12.1162 
        1.61989         99.8491         12.0039         12.0039 
        1.62604         99.2266         11.8928         11.8928 
        1.63218         99.1205         11.7831         11.7831 
        1.63831         98.2216         11.6751         11.6751 
        1.64444         97.7002         11.5684         11.5684 
        1.65059          97.138         11.4627         11.4627 
        1.65673         96.4674         11.3585         11.3585 
        1.66285         96.1568         11.2559         11.2559 
        1.66898         95.6334         11.1545         11.1545 
        1.67512         94.9516         11.0541         11.0541 
        1.68127         94.5222         10.9549         10.9549 
         1.6874         93.8516         10.8571         10.8571 
        1.69353         93.5002         10.7606         10.7606 
        1.69967         93.1283          10.665          10.665 
        1.70581         92.3577         10.5706         10.5706 
        1.71193         91.8653         10.4777         10.4777 
        1.71806         91.5264         10.3858         10.3858 
        1.72421         90.9012         10.2947         10.2947 
        1.73035         90.6078         10.2049         10.2049 
        1.73649         90.1014         10.1161         10.1161 
        1.74262         89.3994         10.0284         10.0284 
        1.74876         89.0675         9.94177         9.94177 
        1.75489         88.4217          9.8563          9.8563 
        1.76101         87.8587         9.77187         9.77187 
        1.76715         87.4134          9.6883          9.6883 
        1.77329         87.1354         9.60561         9.60561 
        1.77943         86.3865         9.52384         9.52384 
        1.78557          86.187         9.44314         9.44314 
        1.79171         85.3589         9.36336         9.36336 
        1.79785         84.9868         9.28449         9.28449 
        1.80399         84.5191         9.20653         9.20653 
        1.81012         84.1057         9.12958         9.12958 
        1.81625         83.7454         9.05353         9.05353 
        1.82239         83.2471         8.97823         8.97823 
        1.82853         82.7275         8.90382         8.90382 
        1.83466         82.2668         8.83033         8.83033 
        1.84078         81.8709         8.75774         8.75774 
        1.84692         81.3645         8.68585         8.68585 
        1.85306         80.9963         8.61467         8.61467 
         1.8592         80.6138          8.5444          8.5444 
        1.86533         80.0506         8.47495         8.47495 
        1.87147         79.5424         8.40619         8.40619 
