# k  (h/Mpc)    Pcb(k)  (Mpc/h)^3    Pcb_linear(k) (Mpc/h)^3    Pcb_NL(k) (Mpc/h)^3   ShotnoiseSubtracted = false
     0.00783031         1402.66         1417.39         1417.39 
       0.013688          1649.7         1650.86         1650.86 
       0.019231         1593.46         1592.33         1592.33 
      0.0249154         1398.71         1405.84         1405.84 
      0.0312784         1165.09         1164.65         1164.65 
      0.0375637         965.924         962.098         962.098 
      0.0433917         826.111          826.35          826.35 
      0.0492413         736.583         735.344         735.344 
      0.0555754         667.365         670.122         670.122 
      0.0619321          621.55         618.684         618.684 
       0.067871         567.547         569.303         569.303 
      0.0738098         511.599         513.392         513.392 
      0.0800417         447.923         450.289         450.289 
      0.0862327         389.892         390.235         390.235 
      0.0921407         342.747         341.713         341.713 
      0.0982031         304.036         304.067         304.067 
       0.104506         279.838         277.494         277.494 
       0.110769         261.882          260.32          260.32 
       0.116806         248.018         247.981         247.981 
       0.122832         236.721         235.775         235.775 
       0.129052         220.374         220.745         220.745 
       0.135211          202.87         203.082         203.082 
       0.141259         185.551         184.493         184.493 
       0.147318          168.67         166.777         166.777 
       0.153489         152.886         151.488         151.488 
       0.159709         141.384          139.75          139.75 
       0.165845         134.062         131.537         131.537 
       0.171974         126.928         125.661         125.661 
       0.178125         122.169         120.776         120.776 
       0.184229         117.346         115.768         115.768 
        0.19034         110.307         109.939         109.939 
       0.196428         104.588         103.284         103.284 
       0.202534         98.4943         96.2188         96.2188 
       0.208729         91.1756         89.3254         89.3254 
       0.214876         84.7843         83.3298         83.3298 
       0.220989         80.7025         78.4789         78.4789 
       0.227147         76.1548         74.6701         74.6701 
        0.23329         73.1021         71.6571         71.6571 
       0.239377         70.6511         69.0524         69.0524 
       0.245482         67.4291         66.4641         66.4641 
       0.251667         65.2136         63.6473         63.6473 
       0.257832         62.1558         60.6057         60.6057 
       0.263955         59.0531         57.4757         57.4757 
       0.270079         56.1212         54.4284         54.4284 
        0.27624         53.7692         51.6244         51.6244 
       0.282372         51.3487         49.1999         49.1999 
        0.28843         49.0386          47.165          47.165 
       0.294538          47.148          45.406          45.406 
       0.300721         45.8569         43.8054         43.8054 
        0.30691         43.9518         42.2681         42.2681 
       0.313033         42.3954         40.7304         40.7304 
       0.319153         40.3325         39.1535         39.1535 
       0.325316         39.3909         37.5476         37.5476 
        0.33145         37.6543         35.9849         35.9849 
       0.337538         36.3128         34.5205         34.5205 
       0.343633         34.8318         33.1808         33.1808 
       0.349808         33.6996         31.9585         31.9585 
       0.355968         32.6461          30.861          30.861 
       0.362074         31.5487         29.8584         29.8584 
       0.368217         30.5344         28.8998         28.8998 
       0.374374         29.4971         27.9617         27.9617 
       0.380519         28.6687         27.0321         27.0321 
       0.386598         27.7785          26.123          26.123 
       0.392688         27.0227         25.2329         25.2329 
        0.39888         26.0696         24.3642         24.3642 
       0.405048         25.3109         23.5499         23.5499 
       0.411186          24.576         22.7938         22.7938 
       0.417313         23.7359         22.0901         22.0901 
       0.423458         23.0752         21.4288         21.4288 
       0.429607         22.3787         20.7988         20.7988 
       0.435692         21.7089         20.1967         20.1967 
       0.441815         21.1823         19.6072         19.6072 
       0.447964         20.7227         19.0292         19.0292 
       0.454126         19.9147          18.465          18.465 
       0.460267         19.4558         17.9222         17.9222 
       0.466387         18.8127         17.4047         17.4047 
        0.47254         18.4225         16.9091         16.9091 
       0.478662         18.0194           16.44           16.44 
       0.484765         17.4512          15.995          15.995 
       0.490885          17.022         15.5686         15.5686 
       0.497035         16.7321         15.1558         15.1558 
       0.503198         16.2548          14.755          14.755 
       0.509342         15.8366         14.3671         14.3671 
       0.515458         15.4099          13.993          13.993 
       0.521598         15.0803         13.6295         13.6295 
       0.527764         14.6889          13.277          13.277 
       0.533884         14.4121         12.9399         12.9399 
           0.54         14.0484         12.6161         12.6161 
       0.546137         13.7604         12.3041         12.3041 
       0.552299         13.4711         12.0028         12.0028 
       0.558452          13.048         11.7124         11.7124 
       0.564573         12.8372         11.4327         11.4327 
       0.570708         12.5595         11.1608         11.1608 
       0.576825         12.2184         10.8979         10.8979 
       0.582926         11.9789         10.6438         10.6438 
       0.589034         11.6198         10.3975         10.3975 
       0.595184         11.4306         10.1576         10.1576 
       0.601379         11.1611          9.9238          9.9238 
       0.607522         10.9698         9.69943         9.69943 
       0.613639         10.7992         9.48311         9.48311 
       0.619772         10.4957         9.27305         9.27305 
       0.625918         10.3813         9.06909         9.06909 
       0.632068         10.1973         8.87124         8.87124 
       0.638161         9.92332          8.6811          8.6811 
         0.6443         9.71146         8.49514         8.49514 
       0.650464         9.49349         8.31389         8.31389 
       0.656582          9.4005         8.13915         8.13915 
       0.662703         9.20486         7.96934         7.96934 
       0.668861         9.02123          7.8034          7.8034 
       0.675024         8.82375         7.64208         7.64208 
       0.681124         8.65939         7.48698         7.48698 
       0.687237         8.50455         7.33596         7.33596 
       0.693381         8.36765         7.18847         7.18847 
       0.699536         8.13728         7.04483         7.04483 
       0.705665         8.03234         6.90577         6.90577 
       0.711789           7.879         6.77063         6.77063 
       0.717957         7.72954          6.6382          6.6382 
        0.72409         7.58633         6.51005         6.51005 
       0.730186         7.47768         6.38605         6.38605 
       0.736317         7.37751         6.26461         6.26461 
       0.742472         7.24551         6.14589         6.14589 
       0.748622         7.11562         6.03035         6.03035 
        0.75476         6.95257         5.91804         5.91804 
       0.760888         6.85161         5.80877         5.80877 
       0.767043         6.75838         5.70183         5.70183 
       0.773185         6.60861         5.59781         5.59781 
       0.779291         6.54015         5.49698         5.49698 
       0.785407         6.42946         5.39851         5.39851 
       0.791564         6.31856         5.30183         5.30183 
       0.797719         6.19288         5.20758         5.20758 
       0.803834         6.14139         5.11623         5.11623 
       0.809972         6.05697         5.02675         5.02675 
       0.816124         5.91424         4.93922         4.93922 
       0.822261         5.81353         4.85402         4.85402 
       0.828378         5.74164         4.77109         4.77109 
       0.834502         5.67875         4.69004         4.69004 
       0.840667          5.5605         4.61035         4.61035 
       0.846816          5.4574         4.53274         4.53274 
       0.852925         5.40315         4.45741         4.45741 
       0.859047         5.31776         4.38365         4.38365 
       0.865192         5.25742         4.31132         4.31132 
       0.871341         5.18633         4.24057         4.24057 
       0.877463         5.09747         4.17174         4.17174 
       0.883569         5.00451         4.10462         4.10462 
       0.889708         4.91692         4.03863         4.03863 
       0.895864         4.85861         3.97393         3.97393 
       0.902008          4.7992         3.91079         3.91079 
       0.908149         4.73993         3.84906         3.84906 
       0.914301         4.65803         3.78857         3.78857 
       0.920448         4.58305         3.72943         3.72943 
       0.926574         4.51789         3.67177         3.67177 
       0.932687          4.4636         3.61545         3.61545 
       0.938823         4.39983         3.56012         3.56012 
       0.944975         4.33628         3.50581         3.50581 
       0.951105         4.28387         3.45284         3.45284 
       0.957225         4.25532         3.40105         3.40105 
       0.963368         4.18499         3.35015         3.35015 
       0.969511         4.12501         3.30029         3.30029 
       0.975621         4.06635         3.25172         3.25172 
       0.981748         4.01759           3.204           3.204 
       0.987916         3.96679         3.15693         3.15693 
        0.99406         3.89649         3.11099         3.11099 
        1.00019         3.83987         3.06606         3.06606 
        1.00632         3.80765         3.02205         3.02205 
        1.01246         3.75814         2.97885         2.97885 
        1.01859         3.70412         2.93656         2.93656 
        1.02471         3.66214         2.89515         2.89515 
        1.03085         3.61268         2.85439         2.85439 
        1.03698         3.55891          2.8145          2.8145 
        1.04314         3.52421         2.77521         2.77521 
        1.04929         3.47703         2.73676         2.73676 
        1.05541         3.42944         2.69919         2.69919 
        1.06154          3.3939         2.66223         2.66223 
        1.06769         3.36826         2.62591         2.62591 
        1.07382         3.31033         2.59039         2.59039 
        1.07993         3.26394         2.55561         2.55561 
        1.08607         3.24204         2.52132         2.52132 
        1.09222         3.19731         2.48763         2.48763 
        1.09836         3.16038         2.45459         2.45459 
        1.10449         3.12489          2.4222          2.4222 
        1.11063         3.08219         2.39035         2.39035 
        1.11677         3.05309         2.35909         2.35909 
         1.1229         3.01709         2.32844         2.32844 
        1.12903         2.97668         2.29831         2.29831 
        1.13518         2.94419         2.26869         2.26869 
        1.14131         2.90091          2.2396          2.2396 
        1.14745         2.86014         2.21105         2.21105 
        1.15359         2.84227         2.18298         2.18298 
        1.15973         2.80088          2.1554          2.1554 
        1.16584         2.77226         2.12841         2.12841 
        1.17197         2.74197         2.10184         2.10184 
        1.17811         2.71957         2.07565         2.07565 
        1.18424         2.68848         2.04998         2.04998 
        1.19038         2.66294         2.02467         2.02467 
        1.19652         2.63132          1.9998          1.9998 
        1.20267         2.60154         1.97535         1.97535 
        1.20881         2.57532         1.95131         1.95131 
        1.21495         2.54994         1.92771         1.92771 
        1.22108         2.51919          1.9045          1.9045 
         1.2272          2.4975         1.88173         1.88173 
        1.23334         2.46099         1.85928         1.85928 
        1.23949         2.43463         1.83714         1.83714 
        1.24562         2.41675         1.81542         1.81542 
        1.25174         2.38535         1.79408         1.79408 
        1.25789         2.36526         1.77303         1.77303 
        1.26402         2.33891         1.75234         1.75234 
        1.27014         2.31349         1.73204         1.73204 
        1.27628         2.29445           1.712           1.712 
        1.28244         2.26163         1.69223         1.69223 
        1.28858         2.24855         1.67281         1.67281 
        1.29471         2.21823         1.65373         1.65373 
        1.30084         2.19328         1.63497         1.63497 
        1.30697         2.18516         1.61647         1.61647 
        1.31312          2.1428         1.59823         1.59823 
        1.31925         2.12914         1.58032         1.58032 
        1.32537         2.10622         1.56271         1.56271 
        1.33151         2.09554         1.54531         1.54531 
        1.33765         2.06435         1.52818         1.52818 
        1.34378         2.04798         1.51134         1.51134 
        1.34992         2.03386         1.49475         1.49475 
        1.35606         2.00086         1.47837         1.47837 
         1.3622         1.99121         1.46226         1.46226 
        1.36833         1.96918         1.44643         1.44643 
        1.37445         1.94866         1.43085         1.43085 
        1.38059         1.93867         1.41544         1.41544 
        1.38675         1.92169         1.40023         1.40023 
        1.39288         1.89969         1.38529         1.38529 
        1.39901         1.87576         1.37059         1.37059 
        1.40515         1.85994         1.35606         1.35606 
         1.4113         1.84457         1.34175         1.34175 
        1.41742         1.82918          1.3277          1.3277 
        1.42355         1.81203         1.31382         1.31382 
         1.4297         1.79296         1.30011         1.30011 
        1.43585         1.78182         1.28659         1.28659 
        1.44198         1.76639         1.27331         1.27331 
        1.44809          1.7452         1.26025         1.26025 
        1.45423          1.7291         1.24733         1.24733 
        1.46036         1.71177          1.2346          1.2346 
        1.46649         1.69799         1.22205         1.22205 
        1.47263         1.68037         1.20967         1.20967 
        1.47877         1.66387         1.19746         1.19746 
        1.48491         1.65135          1.1854          1.1854 
        1.49104         1.63865         1.17353         1.17353 
        1.49718         1.62317         1.16182         1.16182 
        1.50333         1.60931         1.15024         1.15024 
        1.50947         1.59471         1.13885         1.13885 
         1.5156         1.58061         1.12762         1.12762 
        1.52172          1.5674         1.11655         1.11655 
        1.52787         1.55419         1.10561         1.10561 
          1.534         1.53908         1.09482         1.09482 
        1.54013         1.52705         1.08419         1.08419 
        1.54627          1.5109         1.07368         1.07368 
        1.55241         1.49753         1.06331         1.06331 
        1.55855         1.48854         1.05308         1.05308 
        1.56467         1.47605         1.04303         1.04303 
         1.5708         1.46024         1.03307         1.03307 
        1.57695          1.4497         1.02323         1.02323 
        1.58308          1.4356         1.01354         1.01354 
        1.58922         1.42685         1.00397         1.00397 
        1.59535         1.41413         0.99452         0.99452 
         1.6015         1.40211        0.985183        0.985183 
        1.60764         1.39248         0.97597         0.97597 
        1.61376          1.3815          0.9669          0.9669 
        1.61989         1.36731        0.957938        0.957938 
        1.62604         1.35554        0.949069        0.949069 
        1.63218         1.34934        0.940317        0.940317 
        1.63831         1.33453        0.931696        0.931696 
        1.64444         1.32381        0.923179        0.923179 
        1.65059         1.31376        0.914749        0.914749 
        1.65673         1.30389        0.906432        0.906432 
        1.66285         1.29092        0.898242        0.898242 
        1.66898         1.28337         0.89015         0.89015 
        1.67512         1.26935        0.882141        0.882141 
        1.68127         1.26107        0.874224        0.874224 
         1.6874         1.25549        0.866421        0.866421 
        1.69353          1.2383        0.858718        0.858718 
        1.69967         1.23006         0.85109         0.85109 
        1.70581         1.22481        0.843558        0.843558 
        1.71193         1.21238        0.836145        0.836145 
        1.71806         1.20566        0.828806        0.828806 
        1.72421         1.19566         0.82154         0.82154 
        1.73035         1.18495        0.814369        0.814369 
        1.73649         1.17625        0.807285        0.807285 
        1.74262         1.16699         0.80029         0.80029 
        1.74876         1.15949        0.793374        0.793374 
        1.75489         1.14784        0.786554        0.786554 
        1.76101         1.13915        0.779815        0.779815 
        1.76715         1.13246        0.773147        0.773147 
        1.77329         1.12494        0.766547        0.766547 
        1.77943         1.11245        0.760022        0.760022 
        1.78557         1.10566        0.753583        0.753583 
        1.79171         1.10072        0.747216        0.747216 
        1.79785         1.08856        0.740922        0.740922 
        1.80399         1.08174        0.734701        0.734701 
        1.81012          1.0746        0.728559        0.728559 
        1.81625         1.06625        0.722491        0.722491 
        1.82239         1.05784        0.716482        0.716482 
        1.82853         1.04724        0.710544        0.710544 
        1.83466           1.043        0.704679        0.704679 
        1.84078         1.03541        0.698886        0.698886 
        1.84692         1.02873        0.693149        0.693149 
        1.85306         1.01919        0.687469        0.687469 
         1.8592         1.01179        0.681861        0.681861 
        1.86533         1.00407        0.676319        0.676319 
        1.87147         0.99882        0.670832        0.670832 
