# k  (h/Mpc)    P(k)  (Mpc/h)^3    P_linear(k)  (Mpc/h)^3     P_NL(k)  ShotnoiseSubtracted = false
     0.00783031         937.524         947.122         947.122 
       0.013688         1101.52         1103.27         1103.27 
       0.019231         1064.56          1064.2          1064.2 
      0.0249154          935.55         939.577         939.577 
      0.0312784         778.882          778.39          778.39 
      0.0375637          645.38         643.022         643.022 
      0.0433917         552.416         552.297         552.297 
      0.0492413         492.297         491.474         491.474 
      0.0555754         446.478         447.883         447.883 
      0.0619321         415.085         413.505         413.505 
       0.067871         379.534         380.501         380.501 
      0.0738098         342.116         343.132         343.132 
      0.0800417          299.65         300.957         300.957 
      0.0862327         260.629         260.819         260.819 
      0.0921407         228.903         228.388         228.388 
      0.0982031         203.156         203.228         203.228 
       0.104506         186.669         185.467         185.467 
       0.110769         174.742         173.989         173.989 
       0.116806         165.612         165.742         165.742 
       0.122832         157.973         157.584         157.584 
       0.129052         147.217         147.539         147.539 
       0.135211          135.47         135.733         135.733 
       0.141259         123.732         123.309         123.309 
       0.147318         112.362         111.468         111.468 
       0.153489         101.875         101.249         101.249 
       0.159709         94.1183         93.4041         93.4041 
       0.165845         89.1383         87.9147         87.9147 
       0.171974         84.4777         83.9876         83.9876 
       0.178125         81.2946         80.7224         80.7224 
       0.184229          78.066         77.3756         77.3756 
        0.19034         73.5205         73.4793         73.4793 
       0.196428         69.5557         69.0316         69.0316 
       0.202534          65.381         64.3094         64.3094 
       0.208729         60.5128         59.7021         59.7021 
       0.214876         56.2738         55.6949         55.6949 
       0.220989         53.4777         52.4526         52.4526 
       0.227147         50.5002         49.9068         49.9068 
        0.23329         48.4668         47.8932         47.8932 
       0.239377         46.7955         46.1523         46.1523 
       0.245482         44.7671         44.4223         44.4223 
       0.251667         43.2063         42.5398         42.5398 
       0.257832          41.136         40.5068         40.5068 
       0.263955         39.0751         38.4148         38.4148 
       0.270079         37.1044         36.3781         36.3781 
        0.27624         35.4689         34.5039         34.5039 
       0.282372         33.8501         32.8836         32.8836 
        0.28843         32.3266         31.5235         31.5235 
       0.294538         31.0928         30.3478         30.3478 
       0.300721         30.1908         29.2781         29.2781 
        0.30691         28.9638         28.2506         28.2506 
       0.313033         27.9254         27.2227         27.2227 
       0.319153         26.5953         26.1689         26.1689 
       0.325316         25.9167         25.0956         25.0956 
        0.33145         24.7822         24.0511         24.0511 
       0.337538          23.849         23.0723         23.0723 
       0.343633         22.8699          22.177          22.177 
       0.349808         22.1158         21.3599         21.3599 
       0.355968         21.4045         20.6265         20.6265 
       0.362074         20.6798         19.9563         19.9563 
       0.368217         20.0157         19.3156         19.3156 
       0.374374         19.3171         18.6888         18.6888 
       0.380519         18.7659         18.0673         18.0673 
       0.386598         18.1774         17.4597         17.4597 
       0.392688         17.6582         16.8648         16.8648 
        0.39888         17.0243         16.2842         16.2842 
       0.405048         16.5117           15.74           15.74 
       0.411186         16.0172         15.2346         15.2346 
       0.417313         15.4719         14.7643         14.7643 
       0.423458         15.0429         14.3223         14.3223 
       0.429607         14.5752         13.9013         13.9013 
       0.435692         14.1499         13.4988         13.4988 
       0.441815         13.7765         13.1048         13.1048 
       0.447964         13.4631         12.7185         12.7185 
       0.454126         12.9633         12.3414         12.3414 
       0.460267         12.6369         11.9786         11.9786 
       0.466387         12.2216         11.6327         11.6327 
        0.47254         11.9455         11.3015         11.3015 
       0.478662         11.6681         10.9879         10.9879 
       0.484765         11.3042         10.6906         10.6906 
       0.490885         11.0236         10.4055         10.4055 
       0.497035         10.8237         10.1296         10.1296 
       0.503198         10.5115         9.86173         9.86173 
       0.509342         10.2485         9.60251         9.60251 
       0.515458         9.96159         9.35246         9.35246 
       0.521598         9.73503         9.10953         9.10953 
       0.527764         9.47057         8.87393         8.87393 
       0.533884         9.29049         8.64863         8.64863 
           0.54         9.05202          8.4322          8.4322 
       0.546137         8.85495         8.22367         8.22367 
       0.552299         8.65697         8.02225         8.02225 
       0.558452         8.39431          7.8282          7.8282 
       0.564573         8.24989         7.64127         7.64127 
       0.570708         8.06218          7.4595          7.4595 
       0.576825         7.84574         7.28377         7.28377 
       0.582926         7.69433         7.11397         7.11397 
       0.589034         7.46008         6.94935         6.94935 
       0.595184         7.32724         6.78899         6.78899 
       0.601379         7.15343         6.63274         6.63274 
       0.607522         7.03095         6.48278         6.48278 
       0.613639         6.91176          6.3382          6.3382 
       0.619772         6.71688          6.1978          6.1978 
       0.625918         6.62463         6.06148         6.06148 
       0.632068         6.50652         5.92924         5.92924 
       0.638161         6.33165         5.80216         5.80216 
         0.6443           6.197         5.67787         5.67787 
       0.650464         6.05146         5.55673         5.55673 
       0.656582          5.9795         5.43994         5.43994 
       0.662703         5.85421         5.32644         5.32644 
       0.668861          5.7447         5.21553         5.21553 
       0.675024         5.61371         5.10771         5.10771 
       0.681124         5.50307         5.00405         5.00405 
       0.687237         5.40819         4.90311         4.90311 
       0.693381         5.31036         4.80453         4.80453 
       0.699536         5.16529         4.70853         4.70853 
       0.705665         5.08663         4.61559         4.61559 
       0.711789         4.99678         4.52526         4.52526 
       0.717957         4.89463         4.43675         4.43675 
        0.72409         4.80163          4.3511          4.3511 
       0.730186         4.72737         4.26822         4.26822 
       0.736317         4.66638         4.18706         4.18706 
       0.742472         4.58089         4.10771         4.10771 
       0.748622         4.48995         4.03049         4.03049 
        0.75476         4.38627         3.95542         3.95542 
       0.760888         4.31993         3.88239         3.88239 
       0.767043         4.26319         3.81091         3.81091 
       0.773185         4.16632         3.74139         3.74139 
       0.779291         4.11515           3.674           3.674 
       0.785407         4.04071         3.60818         3.60818 
       0.791564         3.97503         3.54357         3.54357 
       0.797719          3.9044         3.48057         3.48057 
       0.803834         3.85835         3.41952         3.41952 
       0.809972         3.79764         3.35971         3.35971 
       0.816124         3.71348         3.30121         3.30121 
       0.822261         3.64424         3.24427         3.24427 
       0.828378         3.59834         3.18884         3.18884 
       0.834502          3.5565         3.13466         3.13466 
       0.840667         3.47745          3.0814          3.0814 
       0.846816         3.41688         3.02953         3.02953 
       0.852925         3.38249         2.97919         2.97919 
       0.859047         3.32579         2.92988         2.92988 
       0.865192          3.2802         2.88154         2.88154 
       0.871341         3.23411         2.83426         2.83426 
       0.877463         3.18333         2.78825         2.78825 
       0.883569         3.12195         2.74339         2.74339 
       0.889708         3.07054         2.69929         2.69929 
       0.895864         3.02779         2.65604         2.65604 
       0.902008         2.98402         2.61384         2.61384 
       0.908149         2.94618         2.57258         2.57258 
       0.914301         2.88913         2.53215         2.53215 
       0.920448         2.84685         2.49263         2.49263 
       0.926574           2.803         2.45409         2.45409 
       0.932687         2.76775         2.41645         2.41645 
       0.938823         2.73155         2.37946         2.37946 
       0.944975          2.6917         2.34317         2.34317 
       0.951105         2.65608         2.30776         2.30776 
       0.957225         2.63562         2.27315         2.27315 
       0.963368         2.59067         2.23913         2.23913 
       0.969511         2.54923         2.20581         2.20581 
       0.975621         2.51015         2.17334         2.17334 
       0.981748         2.48309         2.14144         2.14144 
       0.987916         2.44617         2.10999         2.10999 
        0.99406         2.40305         2.07928         2.07928 
        1.00019         2.37431         2.04925         2.04925 
        1.00632         2.34358         2.01984         2.01984 
        1.01246          2.3138         1.99096         1.99096 
        1.01859         2.28373          1.9627          1.9627 
        1.02471         2.25261         1.93502         1.93502 
        1.03085         2.22246         1.90778         1.90778 
        1.03698         2.18999         1.88112         1.88112 
        1.04314         2.16584         1.85486         1.85486 
        1.04929         2.13631         1.82916         1.82916 
        1.05541         2.10869         1.80405         1.80405 
        1.06154         2.08236         1.77935         1.77935 
        1.06769         2.06213         1.75507         1.75507 
        1.07382          2.0296         1.73133         1.73133 
        1.07993         1.99832         1.70808         1.70808 
        1.08607         1.98507         1.68517         1.68517 
        1.09222         1.95516         1.66265         1.66265 
        1.09836         1.93585         1.64057         1.64057 
        1.10449         1.91213         1.61892         1.61892 
        1.11063         1.88246         1.59763         1.59763 
        1.11677         1.86123         1.57674         1.57674 
         1.1229         1.83804         1.55625         1.55625 
        1.12903         1.81395         1.53611         1.53611 
        1.13518         1.79636         1.51631         1.51631 
        1.14131         1.76755         1.49688         1.49688 
        1.14745         1.73874         1.47779         1.47779 
        1.15359          1.7282         1.45903         1.45903 
        1.15973         1.69987         1.44059         1.44059 
        1.16584         1.68932         1.42256         1.42256 
        1.17197         1.66696          1.4048          1.4048 
        1.17811         1.65071          1.3873          1.3873 
        1.18424         1.63316         1.37014         1.37014 
        1.19038         1.61198         1.35322         1.35322 
        1.19652         1.59376          1.3366          1.3366 
        1.20267         1.57797         1.32026         1.32026 
        1.20881         1.55609         1.30419         1.30419 
        1.21495         1.54242         1.28842         1.28842 
        1.22108         1.52443          1.2729          1.2729 
         1.2272         1.51053         1.25768         1.25768 
        1.23334         1.48819         1.24268         1.24268 
        1.23949         1.47108         1.22788         1.22788 
        1.24562         1.45942         1.21337         1.21337 
        1.25174         1.44029         1.19911         1.19911 
        1.25789         1.42654         1.18503         1.18503 
        1.26402         1.40692         1.17121         1.17121 
        1.27014         1.39209         1.15764         1.15764 
        1.27628         1.38328         1.14424         1.14424 
        1.28244         1.36179         1.13103         1.13103 
        1.28858         1.35071         1.11805         1.11805 
        1.29471         1.33415          1.1053          1.1053 
        1.30084         1.31826         1.09276         1.09276 
        1.30697         1.30905         1.08039         1.08039 
        1.31312         1.28649          1.0682          1.0682 
        1.31925         1.27876         1.05624         1.05624 
        1.32537         1.26481         1.04447         1.04447 
        1.33151         1.25551         1.03283         1.03283 
        1.33765         1.23799         1.02138         1.02138 
        1.34378         1.22546         1.01013         1.01013 
        1.34992         1.21708         0.99904         0.99904 
        1.35606         1.19785        0.988092        0.988092 
         1.3622          1.1907        0.977326        0.977326 
        1.36833         1.17728        0.966747        0.966747 
        1.37445         1.16292         0.95633         0.95633 
        1.38059         1.15472        0.946033        0.946033 
        1.38675         1.14757        0.935864        0.935864 
        1.39288         1.13141        0.925884        0.925884 
        1.39901         1.11841        0.916055        0.916055 
        1.40515         1.10831        0.906346        0.906346 
         1.4113         1.09802        0.896781        0.896781 
        1.41742         1.08791         0.88739         0.88739 
        1.42355         1.08058        0.878117        0.878117 
         1.4297         1.06564        0.868948        0.868948 
        1.43585         1.05779        0.859913        0.859913 
        1.44198         1.04977        0.851041        0.851041 
        1.44809         1.03552        0.842311        0.842311 
        1.45423         1.02636        0.833671        0.833671 
        1.46036         1.01631        0.825168        0.825168 
        1.46649          1.0069         0.81678         0.81678 
        1.47263        0.995921        0.808502        0.808502 
        1.47877        0.985645        0.800342        0.800342 
        1.48491        0.977529        0.792282        0.792282 
        1.49104          0.9691        0.784349        0.784349 
        1.49718        0.961055        0.776519        0.776519 
        1.50333        0.950057        0.768783        0.768783 
        1.50947        0.943256        0.761168        0.761168 
         1.5156        0.933577        0.753667        0.753667 
        1.52172        0.924735        0.746267        0.746267 
        1.52787        0.915787        0.738951        0.738951 
          1.534        0.908499        0.731741        0.731741 
        1.54013        0.898708        0.724636        0.724636 
        1.54627        0.889454        0.717611        0.717611 
        1.55241        0.881896        0.710678        0.710678 
        1.55855        0.875343        0.703847        0.703847 
        1.56467        0.867976        0.697124        0.697124 
         1.5708        0.857353        0.690469        0.690469 
        1.57695         0.85283        0.683892        0.683892 
        1.58308        0.844347        0.677415        0.677415 
        1.58922         0.83703        0.671017        0.671017 
        1.59535        0.829494        0.664704        0.664704 
         1.6015        0.822276        0.658464        0.658464 
        1.60764         0.81653        0.652306        0.652306 
        1.61376        0.808642        0.646244        0.646244 
        1.61989        0.801112        0.640254        0.640254 
        1.62604        0.793384        0.634326        0.634326 
        1.63218        0.789064        0.628477        0.628477 
        1.63831        0.780482        0.622715        0.622715 
        1.64444        0.773394        0.617022        0.617022 
        1.65059         0.76796        0.611388        0.611388 
        1.65673        0.760352        0.605829        0.605829 
        1.66285        0.753606        0.600355        0.600355 
        1.66898         0.74954        0.594946        0.594946 
        1.67512        0.740021        0.589594        0.589594 
        1.68127        0.734899        0.584302        0.584302 
         1.6874        0.731019        0.579087        0.579087 
        1.69353        0.721939        0.573939        0.573939 
        1.69967        0.715664         0.56884         0.56884 
        1.70581          0.7124        0.563806        0.563806 
        1.71193        0.705148        0.558852        0.558852 
        1.71806        0.700737        0.553946        0.553946 
        1.72421        0.694309         0.54909         0.54909 
        1.73035        0.687135        0.544297        0.544297 
        1.73649        0.683433        0.539562        0.539562 
        1.74262        0.677467        0.534887        0.534887 
        1.74876        0.671373        0.530265        0.530265 
        1.75489        0.664563        0.525706        0.525706 
        1.76101        0.660136        0.521203        0.521203 
        1.76715        0.655248        0.516746        0.516746 
        1.77329        0.650461        0.512335        0.512335 
        1.77943        0.643615        0.507974        0.507974 
        1.78557        0.638831         0.50367         0.50367 
        1.79171        0.635551        0.499414        0.499414 
        1.79785        0.628967        0.495207        0.495207 
        1.80399        0.624673         0.49105         0.49105 
        1.81012        0.620114        0.486945        0.486945 
        1.81625        0.614378        0.482889        0.482889 
        1.82239        0.610351        0.478873        0.478873 
        1.82853        0.603238        0.474904        0.474904 
        1.83466        0.600049        0.470984        0.470984 
        1.84078        0.594933        0.467112        0.467112 
        1.84692        0.591955        0.463278        0.463278 
        1.85306        0.586733        0.459481        0.459481 
         1.8592         0.58234        0.455733        0.455733 
        1.86533         0.57736        0.452029        0.452029 
        1.87147        0.573354        0.448362        0.448362 
        1.87761        0.568793        0.444733        0.444733 
