# k  (h/Mpc)    P(k)  (Mpc/h)^3    P_linear(k)  (Mpc/h)^3     P_NL(k)  ShotnoiseSubtracted = false
     0.00783031         1646.65         1664.16         1664.16 
       0.013688         1937.64         1938.17         1938.17 
       0.019231         1871.06         1869.41         1869.41 
      0.0249154         1641.43         1650.45         1650.45 
      0.0312784         1367.62         1367.28         1367.28 
      0.0375637         1134.14         1129.49         1129.49 
      0.0433917         969.585         970.121         970.121 
      0.0492413         864.731         863.281         863.281 
      0.0555754         783.076          786.71          786.71 
      0.0619321         729.966         726.323         726.323 
       0.067871         666.092          668.35          668.35 
      0.0738098         600.441         602.711         602.711 
      0.0800417          525.61         528.629         528.629 
      0.0862327         457.697         458.127         458.127 
      0.0921407         402.551         401.163         401.163 
      0.0982031         357.001         356.968         356.968 
       0.104506          328.87         325.772         325.772 
       0.110769         307.724         305.609         305.609 
       0.116806         291.338         291.124         291.124 
       0.122832         278.141         276.794         276.794 
       0.129052           258.8          259.15          259.15 
       0.135211         238.302         238.413         238.413 
       0.141259         218.117         216.591         216.591 
       0.147318         198.374         195.792         195.792 
       0.153489         179.792         177.843         177.843 
       0.159709         166.357         164.063         164.063 
       0.165845         157.831         154.421         154.421 
       0.171974         149.374         147.523         147.523 
       0.178125         143.782         141.788         141.788 
       0.184229         138.119         135.909         135.909 
        0.19034         129.716         129.065         129.065 
       0.196428         123.132         121.253         121.253 
       0.202534         116.064         112.958         112.958 
       0.208729          107.46         104.866         104.866 
       0.214876         99.9338         97.8272         97.8272 
       0.220989         95.1946         92.1321         92.1321 
       0.227147         89.8103         87.6605         87.6605 
        0.23329         86.2187         84.1236         84.1236 
       0.239377          83.373         81.0657         81.0657 
       0.245482         79.4698         78.0271         78.0271 
       0.251667         76.9405         74.7205         74.7205 
       0.257832         73.3781         71.1496         71.1496 
       0.263955         69.7244         67.4751         67.4751 
       0.270079         66.2902         63.8976         63.8976 
        0.27624         63.5872         60.6056         60.6056 
       0.282372         60.7455         57.7595         57.7595 
        0.28843         58.0192         55.3705         55.3705 
       0.294538         55.7694         53.3055         53.3055 
       0.300721         54.2902         51.4265         51.4265 
        0.30691         52.0113         49.6217         49.6217 
       0.313033         50.1851         47.8163         47.8163 
       0.319153         47.7264         45.9652         45.9652 
       0.325316          46.651           44.08           44.08 
        0.33145          44.591         42.2453         42.2453 
       0.337538         43.0531         40.5261         40.5261 
       0.343633         41.3065         38.9536         38.9536 
       0.349808         39.9702         37.5183         37.5183 
       0.355968         38.7426         36.2301         36.2301 
       0.362074         37.4462          35.053          35.053 
       0.368217         36.2424         33.9275         33.9275 
       0.374374         35.0316         32.8265         32.8265 
       0.380519          34.055         31.7349         31.7349 
       0.386598         33.0024         30.6678         30.6678 
       0.392688         32.1263         29.6228         29.6228 
        0.39888         31.0071         28.6029         28.6029 
       0.405048         30.1183          27.647          27.647 
       0.411186         29.2586         26.7593         26.7593 
       0.417313         28.2615         25.9332         25.9332 
       0.423458         27.4745         25.1568         25.1568 
       0.429607          26.659         24.4173         24.4173 
       0.435692         25.8487         23.7104         23.7104 
       0.441815          25.254         23.0183         23.0183 
       0.447964         24.7172         22.3399         22.3399 
       0.454126         23.7302         21.6774         21.6774 
       0.460267         23.2094         21.0401         21.0401 
       0.466387         22.4481         20.4327         20.4327 
        0.47254         21.9992         19.8509         19.8509 
       0.478662         21.5324         19.3001         19.3001 
       0.484765         20.8526         18.7778         18.7778 
       0.490885         20.3435         18.2771         18.2771 
       0.497035         20.0055         17.7925         17.7925 
       0.503198         19.4374          17.322          17.322 
       0.509342         18.9312         16.8667         16.8667 
       0.515458         18.4344         16.4274         16.4274 
       0.521598         18.0529         16.0007         16.0007 
       0.527764         17.5971         15.5869         15.5869 
       0.533884         17.2667         15.1912         15.1912 
           0.54         16.8344          14.811          14.811 
       0.546137         16.5017         14.4447         14.4447 
       0.552299         16.1659         14.0909         14.0909 
       0.558452         15.6534         13.7501         13.7501 
       0.564573         15.4039         13.4218         13.4218 
       0.570708         15.0818         13.1025         13.1025 
       0.576825         14.6738         12.7938         12.7938 
       0.582926          14.382         12.4956         12.4956 
       0.589034         13.9571         12.2064         12.2064 
       0.595184         13.7396         11.9247         11.9247 
       0.601379           13.42         11.6503         11.6503 
       0.607522         13.1853         11.3869         11.3869 
       0.613639          12.991         11.1329         11.1329 
       0.619772         12.6285         10.8863         10.8863 
       0.625918         12.5053         10.6469         10.6469 
       0.632068         12.2843         10.4146         10.4146 
       0.638161         11.9593         10.1914         10.1914 
         0.6443         11.7041         9.97308         9.97308 
       0.650464         11.4485          9.7603          9.7603 
       0.656582         11.3455         9.55516         9.55516 
       0.662703         11.1105         9.35581         9.35581 
       0.668861         10.8838           9.161           9.161 
       0.675024         10.6514          8.9716          8.9716 
       0.681124         10.4568         8.78953         8.78953 
       0.687237         10.2664         8.61223         8.61223 
       0.693381         10.1137         8.43908         8.43908 
       0.699536          9.8362         8.27045         8.27045 
       0.705665          9.7233          8.1072          8.1072 
       0.711789         9.52852         7.94855         7.94855 
       0.717957         9.35569         7.79307         7.79307 
        0.72409         9.18701         7.64263         7.64263 
       0.730186         9.05692         7.49706         7.49706 
       0.736317         8.93426          7.3545          7.3545 
       0.742472         8.77458         7.21512         7.21512 
       0.748622         8.62861         7.07948         7.07948 
        0.75476         8.43426         6.94763         6.94763 
       0.760888         8.31142         6.81934         6.81934 
       0.767043         8.19759          6.6938          6.6938 
       0.773185         8.01979         6.57168         6.57168 
       0.779291         7.94338         6.45332         6.45332 
       0.785407          7.8161         6.33771         6.33771 
       0.791564         7.67625         6.22422         6.22422 
       0.797719         7.51466         6.11357         6.11357 
       0.803834           7.465         6.00632         6.00632 
       0.809972         7.36931         5.90128         5.90128 
       0.816124         7.19129         5.79852         5.79852 
       0.822261         7.07722          5.6985          5.6985 
       0.828378         6.99084         5.60114         5.60114 
       0.834502         6.91529         5.50598         5.50598 
       0.840667         6.77796         5.41243         5.41243 
       0.846816         6.64923         5.32132         5.32132 
       0.852925         6.58249         5.23289         5.23289 
       0.859047         6.48321         5.14629         5.14629 
       0.865192         6.41361         5.06138         5.06138 
       0.871341         6.32931         4.97833         4.97833 
       0.877463         6.21794         4.89752         4.89752 
       0.883569         6.10909         4.81872         4.81872 
       0.889708         5.99999         4.74125         4.74125 
       0.895864         5.93447          4.6653          4.6653 
       0.902008         5.86886         4.59117         4.59117 
       0.908149         5.79635          4.5187          4.5187 
       0.914301         5.70504         4.44768         4.44768 
       0.920448         5.60809         4.37826         4.37826 
       0.926574         5.53311         4.31057         4.31057 
       0.932687         5.46607         4.24445         4.24445 
       0.938823         5.38675         4.17949         4.17949 
       0.944975         5.30934         4.11574         4.11574 
       0.951105         5.24805         4.05355         4.05355 
       0.957225         5.21238         3.99275         3.99275 
       0.963368         5.12983         3.93299         3.93299 
       0.969511         5.06169         3.87446         3.87446 
       0.975621         4.99297         3.81743         3.81743 
       0.981748         4.92999         3.76141         3.76141 
       0.987916         4.87346         3.70616         3.70616 
        0.99406         4.78896         3.65223         3.65223 
        1.00019         4.71399         3.59948         3.59948 
        1.00632         4.68314         3.54782         3.54782 
        1.01246         4.62208          3.4971          3.4971 
        1.01859           4.552         3.44745         3.44745 
        1.02471         4.50662         3.39883         3.39883 
        1.03085         4.44749         3.35098         3.35098 
        1.03698         4.37903         3.30415         3.30415 
        1.04314            4.34         3.25802         3.25802 
        1.04929         4.28139         3.21288         3.21288 
        1.05541         4.22222         3.16878         3.16878 
        1.06154         4.18219         3.12539         3.12539 
        1.06769         4.15328         3.08276         3.08276 
        1.07382          4.0821         3.04106         3.04106 
        1.07993         4.02814         3.00022         3.00022 
        1.08607         3.99925         2.95997         2.95997 
        1.09222         3.94751         2.92041         2.92041 
        1.09836         3.89892         2.88163         2.88163 
        1.10449         3.85764          2.8436          2.8436 
        1.11063         3.80725         2.80621         2.80621 
        1.11677         3.77486         2.76951         2.76951 
         1.1229         3.73316         2.73353         2.73353 
        1.12903          3.6826         2.69816         2.69816 
        1.13518          3.6395         2.66338         2.66338 
        1.14131         3.59093         2.62924         2.62924 
        1.14745         3.54439         2.59571         2.59571 
        1.15359         3.52124         2.56277         2.56277 
        1.15973         3.47367         2.53038         2.53038 
        1.16584         3.43115          2.4987          2.4987 
        1.17197         3.39728         2.46751         2.46751 
        1.17811         3.37284         2.43676         2.43676 
        1.18424         3.33359         2.40663         2.40663 
        1.19038         3.30674         2.37692         2.37692 
        1.19652         3.26563         2.34772         2.34772 
        1.20267         3.22752         2.31901         2.31901 
        1.20881         3.20178         2.29079         2.29079 
        1.21495         3.16877         2.26308         2.26308 
        1.22108         3.12907         2.23583         2.23583 
         1.2272         3.10294          2.2091          2.2091 
        1.23334         3.05881         2.18274         2.18274 
        1.23949         3.02739         2.15675         2.15675 
        1.24562         3.00556         2.13126         2.13126 
        1.25174         2.96924         2.10621         2.10621 
        1.25789         2.94444         2.08149         2.08149 
        1.26402         2.91646         2.05721         2.05721 
        1.27014         2.88443         2.03337         2.03337 
        1.27628         2.85654         2.00984         2.00984 
        1.28244          2.8176         1.98664         1.98664 
        1.28858         2.80543         1.96384         1.96384 
        1.29471         2.76712         1.94144         1.94144 
        1.30084         2.73632         1.91941         1.91941 
        1.30697          2.7293         1.89769         1.89769 
        1.31312         2.67518         1.87628         1.87628 
        1.31925         2.65696         1.85526         1.85526 
        1.32537         2.62953         1.83459         1.83459 
        1.33151         2.61882         1.81415         1.81415 
        1.33765         2.57977         1.79404         1.79404 
        1.34378         2.56026         1.77428         1.77428 
        1.34992         2.54257          1.7548          1.7548 
        1.35606          2.5037         1.73557         1.73557 
         1.3622         2.49118         1.71666         1.71666 
        1.36833         2.46393         1.69807         1.69807 
        1.37445         2.44046         1.67978         1.67978 
        1.38059         2.42959         1.66169         1.66169 
        1.38675          2.4063         1.64383         1.64383 
        1.39288         2.38263          1.6263          1.6263 
        1.39901         2.35129         1.60903         1.60903 
        1.40515         2.33278         1.59198         1.59198 
         1.4113         2.31343         1.57518         1.57518 
        1.41742         2.29478         1.55869         1.55869 
        1.42355         2.27119          1.5424          1.5424 
         1.4297         2.25094         1.52629         1.52629 
        1.43585          2.2378         1.51042         1.51042 
        1.44198         2.21913         1.49484         1.49484 
        1.44809         2.19356         1.47951         1.47951 
        1.45423         2.17312         1.46433         1.46433 
        1.46036         2.15144         1.44939         1.44939 
        1.46649         2.13526         1.43466         1.43466 
        1.47263         2.11369         1.42012         1.42012 
        1.47877         2.09415         1.40579         1.40579 
        1.48491         2.07899         1.39163         1.39163 
        1.49104         2.06296          1.3777          1.3777 
        1.49718         2.04336         1.36394         1.36394 
        1.50333          2.0286         1.35035         1.35035 
        1.50947         2.00827         1.33698         1.33698 
         1.5156         1.99237          1.3238          1.3238 
        1.52172         1.97677          1.3108          1.3108 
        1.52787         1.96146         1.29795         1.29795 
          1.534         1.94141         1.28529         1.28529 
        1.54013         1.92846         1.27281         1.27281 
        1.54627         1.90794         1.26047         1.26047 
        1.55241         1.89094         1.24829         1.24829 
        1.55855         1.88064         1.23629         1.23629 
        1.56467          1.8652         1.22449         1.22449 
         1.5708         1.84747          1.2128          1.2128 
        1.57695         1.83211         1.20124         1.20124 
        1.58308         1.81435         1.18987         1.18987 
        1.58922         1.80584         1.17863         1.17863 
        1.59535         1.79043         1.16754         1.16754 
         1.6015         1.77458         1.15658         1.15658 
        1.60764         1.76195         1.14576         1.14576 
        1.61376         1.74915         1.13512         1.13512 
        1.61989         1.73208         1.12459         1.12459 
        1.62604         1.71818         1.11418         1.11418 
        1.63218         1.71081         1.10391         1.10391 
        1.63831         1.69268         1.09379         1.09379 
        1.64444         1.67997         1.08379         1.08379 
        1.65059         1.66478         1.07389         1.07389 
        1.65673         1.65603         1.06413         1.06413 
        1.66285         1.63817         1.05451         1.05451 
        1.66898         1.62855         1.04501         1.04501 
        1.67512         1.61267         1.03561         1.03561 
        1.68127         1.60224         1.02632         1.02632 
         1.6874         1.59538         1.01716         1.01716 
        1.69353         1.57427         1.00811         1.00811 
        1.69967         1.56542        0.999158        0.999158 
        1.70581         1.55736        0.990316        0.990316 
        1.71193         1.54273        0.981613        0.981613 
        1.71806          1.5339        0.972997        0.972997 
        1.72421         1.52187        0.964467        0.964467 
        1.73035         1.50994        0.956048        0.956048 
        1.73649         1.49797        0.947732        0.947732 
        1.74262         1.48628        0.939521        0.939521 
        1.74876         1.47819        0.931401        0.931401 
        1.75489         1.46496        0.923394        0.923394 
        1.76101         1.45233        0.915484        0.915484 
        1.76715         1.44534        0.907655        0.907655 
        1.77329         1.43623        0.899907        0.899907 
        1.77943         1.41955        0.892247        0.892247 
        1.78557          1.4121        0.884687        0.884687 
        1.79171         1.40534        0.877213        0.877213 
        1.79785         1.39125        0.869823        0.869823 
        1.80399         1.38201         0.86252         0.86252 
        1.81012         1.37296         0.85531         0.85531 
        1.81625         1.36377        0.848186        0.848186 
        1.82239         1.35294        0.841132        0.841132 
        1.82853         1.34032        0.834161        0.834161 
        1.83466         1.33544        0.827275        0.827275 
        1.84078         1.32663        0.820475        0.820475 
        1.84692         1.31758        0.813739        0.813739 
        1.85306         1.30517        0.807071        0.807071 
         1.8592         1.29567        0.800488        0.800488 
        1.86533         1.28671        0.793981        0.793981 
        1.87147          1.2807        0.787539        0.787539 
        1.87761         1.27011        0.781166        0.781166 
