#  k  (h/Mpc)          P(k)  (Mpc/h)^3     P_linear(k)   P_NL(k) (Mpc/h)^3
     0.00783031         2267.74         2279.77         2278.65 
       0.013688         3008.02          3048.2         3037.39 
       0.019231          3271.6         3292.86          3275.3 
      0.0249154         3233.87         3234.42         3219.62 
      0.0312784         2963.89          2975.6         2964.35 
      0.0375637         2643.38         2661.67         2651.24 
      0.0433917         2394.14         2395.77         2386.06 
      0.0492413         2171.31         2183.02         2173.61 
      0.0555754         2012.66         2013.65         2003.67 
      0.0619321         1857.67         1887.42         1876.88 
       0.067871         1771.37         1785.32         1774.11 
      0.0738098         1669.99         1679.94         1665.46 
      0.0800417         1550.68         1556.12         1542.17 
      0.0862327         1411.93         1421.39         1411.07 
      0.0921407         1282.54         1291.17         1281.86 
      0.0982031         1166.98         1167.49         1162.59 
       0.104506         1050.57         1059.23         1057.93 
       0.110769         970.149         976.204         973.054 
       0.116806         921.999         917.456         914.241 
       0.122832         870.111         873.834         871.705 
       0.129052         836.092          836.65         834.494 
       0.135211         804.942         800.283         798.345 
       0.141259         759.331         760.357         759.874 
       0.147318         707.997          715.01         717.004 
       0.153489         664.156         665.317          664.97 
       0.159709         621.566         615.624         618.361 
       0.165845         568.939         571.004         578.813 
       0.171974         544.484          533.52         541.333 
       0.178125         516.449          503.83         515.195 
       0.184229         487.074         481.249           492.8 
        0.19034         474.591         463.327         474.699 
       0.196428         458.773         447.506         456.497 
       0.202534         434.866         431.365         441.165 
       0.208729          423.28         413.263         422.489 
       0.214876         407.026         393.335         406.159 
       0.220989         379.067         372.354         386.584 
       0.227147         367.273         351.407         366.004 
        0.23329         350.494         332.067         349.797 
       0.239377         337.222         315.387         334.684 
       0.245482         320.627         301.455          319.32 
       0.251667         307.483         289.893         309.518 
       0.257832          302.78         280.178         299.583 
       0.263955         288.721         271.406         290.214 
       0.270079         279.793         262.674         281.026 
        0.27624         268.163         253.425         271.083 
       0.282372         260.122         243.621          262.08 
        0.28843         256.169         233.568         252.298 
       0.294538         244.275         223.498         243.536 
       0.300721         233.404         213.843         235.446 
        0.30691         228.554         205.093         227.351 
       0.313033         219.421         197.481         219.333 
       0.319153         215.549         190.865         213.781 
       0.325316          207.36          184.96         208.719 
        0.33145         201.695         179.541         202.041 
       0.337538         196.092         174.312         196.404 
       0.343633         190.514         169.034         191.767 
       0.349808         184.932         163.558         186.821 
       0.355968         179.752         158.009         182.521 
       0.362074         176.088         152.556         176.851 
       0.368217         171.633         147.269         170.587 
       0.374374         167.964         142.312         166.668 
       0.380519         160.777         137.769         161.917 
       0.386598         157.038          133.68         158.056 
       0.392688         152.976         129.925         154.743 
        0.39888         150.205          126.35         150.512 
       0.405048         147.011         122.937         147.409 
       0.411186         144.019         119.598         144.771 
       0.417313         140.358         116.273         140.372 
       0.423458         136.834         112.958         137.423 
       0.429607         134.557         109.683         134.078 
       0.435692           132.1         106.531         131.324 
       0.441815          127.84         103.502         129.309 
       0.447964          124.25         100.629         125.932 
       0.454126         122.011         97.9262         122.825 
       0.460267         121.147         95.4005         120.965 
       0.466387         118.177         93.0183         118.191 
        0.47254         116.791         90.7174          116.15 
       0.478662         113.031         88.4932         113.741 
       0.484765         111.188         86.3238         111.143 
       0.490885         108.519         84.1837         109.667 
       0.497035         107.575           82.07         107.864 
       0.503198         104.876         80.0074         105.341 
       0.509342         102.365         78.0221         103.674 
       0.515458         101.286         76.1247         102.505 
       0.521598         98.8813         74.3011         99.7802 
       0.527764         97.8097         72.5527         97.4754 
       0.533884         96.4802         70.8944         96.0133 
           0.54         94.2323         69.3001          94.497 
       0.546137         91.7693          67.749         93.3417 
       0.552299         90.5177         66.2302         91.2814 
       0.558452         88.8531         64.7506          89.624 
       0.564573         88.4197         63.3149         88.6342 
       0.570708         85.8129         61.9127         87.1407 
       0.576825         84.9607         60.5528         85.7088 
       0.582926         83.8766         59.2373         84.3726 
       0.589034         82.4372          57.964         83.3318 
       0.595184         81.3502          56.728         81.8655 
       0.601379         79.2407         55.5285         80.8874 
       0.607522         78.2856         54.3784         79.1839 
       0.613639         77.3928         53.2671         78.1904 
       0.619772         76.1122         52.1826         76.9758 
       0.625918         74.9013         51.1228         76.2802 
       0.632068         74.1921         50.0893         74.7964 
       0.638161         72.7278         49.0923         73.9095 
         0.6443         72.0391         48.1148         72.6263 
       0.650464         70.4875         47.1607         71.6447 
       0.656582         70.1265         46.2402         70.9113 
       0.662703          69.338         45.3449         69.6591 
       0.668861         67.7557         44.4692         68.9478 
       0.675024         67.3392         43.6172         67.8619 
       0.681124         66.5331         42.7974         66.9369 
       0.687237         65.2365          41.998         65.9893 
       0.693381         64.4882         41.2161         65.1361 
       0.699536         64.0574         40.4531         64.6215 
       0.705665         62.9376         39.7128         63.8867 
       0.711789         61.9891         38.9914         62.6616 
       0.717957         61.0466         38.2826         62.1587 
        0.72409         60.5306         37.5951         61.5924 
       0.730186         60.1901         36.9286         60.6822 
       0.736317         59.1138         36.2746         59.8825 
       0.742472         58.4815         35.6343         59.3278 
       0.748622         57.5865         35.0105         58.4535 
        0.75476         56.5256         34.4034         57.8513 
       0.760888         56.4103         33.8122         57.2403 
       0.767043         55.4582         33.2329         56.7601 
       0.773185         55.0512         32.6688         56.1023 
       0.779291         54.3819         32.1212         55.5455 
       0.785407         53.5301         31.5857         54.8086 
       0.791564         53.4618         31.0591         54.1823 
       0.797719         52.5858         30.5449         53.6643 
       0.803834         52.1635         30.0457         53.0085 
       0.809972         51.4347          29.556          52.559 
       0.816124         50.9393         29.0762         51.9564 
       0.822261         50.3683         28.6085         51.2672 
       0.828378         50.0178         28.1526         50.6872 
       0.834502         49.4909         27.7063         50.5369 
       0.840667          49.053          27.267         49.8185 
       0.846816         48.1347         26.8385         49.3878 
       0.852925         48.0789         26.4221         49.1785 
       0.859047         47.5849         26.0138         48.3715 
       0.865192         46.9082         25.6129         47.9467 
       0.871341         46.4325         25.2203         47.5886 
       0.877463         46.0752         24.8379         47.0903 
       0.883569         45.8616         24.4644         46.7828 
       0.889708         45.2876         24.0969         46.1713 
       0.895864         44.7731          23.736         45.7486 
       0.902008         44.2477         23.3834         45.3846 
       0.908149         43.9535         23.0382         45.0385 
       0.914301          43.684         22.6996         44.7478 
       0.920448         43.1613         22.3682          44.188 
       0.926574         42.5849         22.0446         43.7253 
       0.932687         42.2988         21.7282         43.3864 
       0.938823         41.8393          21.417         43.0006 
       0.944975         41.5029         21.1112          42.554 
       0.951105         41.1216         20.8125         42.2199 
       0.957225         40.9506         20.5203         41.9265 
       0.963368         40.3886         20.2327          41.504 
       0.969511         40.0964         19.9507         41.1933 
       0.975621         39.7281         19.6756         40.8766 
       0.981748         39.3094         19.4051         40.6016 
       0.987916         39.0879          19.138         40.1561 
        0.99406         38.6787          18.877         39.8841 
        1.00019         38.4117         18.6215         39.5539 
        1.00632          38.089         18.3709         39.3121 
        1.01246         37.8436         18.1247         39.0528 
        1.01859         37.4051         17.8834         38.6754 
        1.02471         37.0792         17.6469         38.3625 
        1.03085         36.9757         17.4139         38.0809 
        1.03698         36.6296         17.1856         37.7633 
        1.04314         36.2947         16.9605         37.3865 
        1.04929         35.9238           16.74         37.2082 
        1.05541         35.7957         16.5244          37.024 
        1.06154         35.5864         16.3121         36.5863 
        1.06769          35.129         16.1032         36.3285 
        1.07382         34.8528         15.8987         36.1525 
        1.07993         34.5482         15.6983         35.8194 
        1.08607         34.3767         15.5005         35.5573 
        1.09222         34.0803          15.306         35.3674 
        1.09836         33.8391          15.115         35.0808 
        1.10449         33.6202         14.9276         34.7862 
        1.11063         33.3699         14.7432         34.6358 
        1.11677         33.2753         14.5621         34.3296 
         1.1229          32.933         14.3843         34.0867 
        1.12903         32.7412         14.2093         33.8988 
        1.13518         32.4879         14.0372         33.5669 
        1.14131         32.2649          13.868         33.3726 
        1.14745         31.8683         13.7018         33.1798 
        1.15359         31.6415         13.5382         32.9725 
        1.15973         31.4055         13.3773         32.7543 
        1.16584         31.2134         13.2198         32.5926 
        1.17197          30.916         13.0646         32.3515 
        1.17811         30.7518         12.9115         32.0283 
        1.18424         30.5139         12.7612         31.8982 
        1.19038         30.3695          12.613          31.727 
        1.19652         30.1262         12.4672         31.4479 
        1.20267         29.9478         12.3237         31.2728 
        1.20881         29.7282         12.1825         31.1532 
        1.21495         29.5066         12.0438         30.9659 
        1.22108         29.4779         11.9073         30.7126 
         1.2272         29.2525         11.7733         30.5166 
        1.23334         29.0309          11.641         30.3936 
        1.23949         28.8169         11.5105         30.1404 
        1.24562         28.5455         11.3823          29.954 
        1.25174         28.4265         11.2564         29.8112 
        1.25789          28.273         11.1319         29.6078 
        1.26402         28.1319         11.0096         29.3997 
        1.27014         27.9394         10.8894         29.2563 
        1.27628         27.6552         10.7707         29.0601 
        1.28244         27.6544         10.6535         28.9919 
        1.28858         27.3499         10.5383         28.7275 
        1.29471         27.1192          10.425         28.5536 
        1.30084         26.9668         10.3135         28.4823 
        1.30697         26.9012         10.2035          28.255 
        1.31312          26.637         10.0949         28.0718 
        1.31925         26.5122         9.98834         27.9845 
        1.32537         26.3341         9.88338         27.8583 
        1.33151         26.1737         9.77958          27.653 
        1.33765         26.0863         9.67734         27.5027 
        1.34378         25.9172         9.57678          27.374 
        1.34992         25.7569         9.47759         27.2188 
        1.35606          25.553         9.37961         27.0339 
         1.3622         25.3462          9.2832         26.9094 
        1.36833         25.2922         9.18839         26.8071 
        1.37445         25.1806         9.09496          26.599 
        1.38059         25.0056         9.00256         26.4254 
        1.38675         24.7971         8.91123         26.3335 
        1.39288         24.6562         8.82155         26.1793 
        1.39901         24.5568         8.73315         26.0659 
        1.40515         24.3977         8.64577         25.9447 
         1.4113         24.2805         8.55963         25.8191 
        1.41742         24.1606         8.47501         25.6794 
        1.42355         23.9595         8.39138         25.4761 
         1.4297         23.8385         8.30864         25.4044 
        1.43585         23.7233         8.22706         25.3119 
        1.44198         23.6179         8.14689          25.155 
        1.44809         23.4748         8.06796         25.0543 
        1.45423         23.3297         7.98979         24.9109 
        1.46036          23.213          7.9128          24.755 
        1.46649         23.0561         7.83681         24.6293 
        1.47263         22.9756         7.76177         24.5501 
        1.47877         22.8798         7.68775          24.478 
        1.48491         22.7188         7.61459         24.2583 
        1.49104         22.5818         7.54254          24.181 
        1.49718         22.4831         7.47138         24.0871 
        1.50333         22.3756         7.40103         23.9695 
        1.50947         22.2591         7.33174         23.8687 
         1.5156         22.1329         7.26345         23.7464 
        1.52172         22.0017         7.19603          23.597 
        1.52787         21.8688         7.12933         23.4798 
          1.534         21.8255         7.06357         23.3819 
        1.54013         21.7091         6.99872         23.2201 
        1.54627         21.5536         6.93456         23.1108 
        1.55241         21.4192         6.87121          23.068 
        1.55855         21.3491         6.80874          22.962 
        1.56467         21.2628         6.74723         22.8302 
         1.5708         21.1712         6.68631          22.763 
        1.57695         21.0192         6.62606         22.6698 
        1.58308         20.8704          6.5667         22.5473 
        1.58922         20.8008         6.50802         22.4794 
        1.59535         20.6591         6.45009         22.3697 
         1.6015         20.5364          6.3928         22.2566 
        1.60764         20.4779         6.33623         22.1462 
        1.61376         20.4147         6.28051         22.0318 
        1.61989          20.254         6.22541         21.9635 
        1.62604            20.2         6.17087         21.9092 
        1.63218         20.0945         6.11701          21.795 
        1.63831         19.9684         6.06393         21.6672 
        1.64444         19.8738         6.01146         21.6093 
        1.65059         19.7617         5.95949         21.4895 
        1.65673         19.6986         5.90819         21.4139 
        1.66285         19.5691         5.85765         21.3452 
        1.66898         19.5203         5.80769          21.222 
        1.67512          19.439         5.75822         21.1251 
        1.68127         19.2782         5.70928         21.0232 
         1.6874         19.2367         5.66102         20.9258 
        1.69353         19.1097         5.61336         20.8637 
        1.69967         19.0118         5.56613         20.7982 
        1.70581         18.9654         5.51947         20.7274 
        1.71193         18.8409         5.47353         20.6374 
        1.71806          18.794         5.42802         20.5207 
        1.72421         18.6748         5.38294         20.4622 
        1.73035         18.5742         5.33842         20.3688 
        1.73649         18.5222         5.29442         20.2424 
        1.74262         18.3702         5.25096         20.2232 
        1.74876         18.3417         5.20796         20.1407 
        1.75489         18.2553         5.16554         20.0144 
        1.76101         18.1604          5.1236         19.9313 
        1.76715         18.0777         5.08208         19.8777 
        1.77329         17.9961         5.04096         19.7873 
        1.77943         17.8795         5.00029         19.7074 
        1.78557         17.8543         4.96013         19.6788 
        1.79171         17.7398         4.92041         19.5883 
        1.79785         17.7086         4.88112         19.4798 
        1.80399         17.5703         4.84227         19.4325 
        1.81012         17.5304          4.8039         19.3499 
        1.81625         17.3951         4.76596         19.2812 
        1.82239         17.3289         4.72838         19.2344 
        1.82853         17.2746         4.69122         19.1291 
        1.83466         17.1551          4.6545         19.0468 
        1.84078         17.1366         4.61822         18.9946 
        1.84692         17.0785         4.58227         18.9059 
        1.85306         16.9868         4.54665         18.8376 
         1.8592         16.9133         4.51148         18.7855 
        1.86533         16.7974          4.4767         18.7076 
        1.87147         16.7337         4.44225         18.6423 
        1.87761         16.6486         4.40814         18.5811 
