#  k  (h/Mpc)          P(k)  (Mpc/h)^3     P_linear(k)   P_NL(k) (Mpc/h)^3
     0.00783031         1472.12         1482.23         1482.23 
       0.013688         1853.17         1874.89         1874.89 
       0.019231         1923.07         1932.89         1932.89 
      0.0249154         1821.87         1820.63         1820.63 
      0.0312784         1610.85         1613.12         1613.12 
      0.0375637         1402.75         1407.61         1407.61 
      0.0433917         1254.05         1252.27         1252.27 
      0.0492413         1134.23         1136.49         1136.49 
      0.0555754         1047.68         1045.73         1045.73 
      0.0619321         963.185         972.625         972.625 
       0.067871         903.101         905.986         905.986 
      0.0738098         832.586         833.703         833.703 
      0.0800417         753.381         752.227         752.227 
      0.0862327         671.497         671.816         671.816 
      0.0921407         602.378         602.664         602.664 
      0.0982031         546.831         544.366         544.366 
       0.104506         497.291          498.69          498.69 
       0.110769         465.152         465.961         465.961 
       0.116806         444.406         441.901         441.901 
       0.122832         419.909         420.483         420.483 
       0.129052          398.35          397.34          397.34 
       0.135211         374.731         371.763         371.763 
       0.141259         346.076         344.685         344.685 
       0.147318         317.302         317.607         317.607 
       0.153489          293.96         292.378         292.378 
       0.159709         274.333         271.007         271.007 
       0.165845         254.511          254.37          254.37 
       0.171974         245.475         241.527         241.527 
       0.178125         234.803         231.097         231.097 
       0.184229         223.328         221.699         221.699 
        0.19034         215.603         212.075         212.075 
       0.196428         205.269         201.721         201.721 
       0.202534          191.92         190.666         190.666 
       0.208729         183.082         179.342         179.342 
       0.214876          173.88          168.72          168.72 
       0.220989         161.977         159.328         159.328 
       0.227147         156.605         151.299         151.299 
        0.23329         150.201          144.62          144.62 
       0.239377         145.051         138.969         138.969 
       0.245482         138.952         133.826         133.826 
       0.251667         133.059         128.753         128.753 
       0.257832         129.617         123.588         123.588 
       0.263955         122.946         118.312         118.312 
       0.270079         117.732         113.008         113.008 
        0.27624         111.991         107.842         107.842 
       0.282372         107.673         103.062         103.062 
        0.28843         105.134         98.7976         98.7976 
       0.294538         100.718          94.977          94.977 
       0.300721         96.4368         91.5224         91.5224 
        0.30691         94.2986         88.3531         88.3531 
       0.313033         90.7465          85.372          85.372 
       0.319153         88.8964         82.4523         82.4523 
       0.325316         84.7686         79.5287         79.5287 
        0.33145         81.8483          76.647          76.647 
       0.337538         79.2462         73.8568         73.8568 
       0.343633         76.7787         71.1893         71.1893 
       0.349808         74.1116         68.6546         68.6546 
       0.355968         71.6927         66.3149         66.3149 
       0.362074         70.1493         64.1684         64.1684 
       0.368217         68.0756         62.1542         62.1542 
       0.374374         66.6136         60.2419         60.2419 
       0.380519         63.8544         58.4032         58.4032 
       0.386598         61.9849         56.6335         56.6335 
       0.392688         60.1032         54.9006         54.9006 
        0.39888         58.8343         53.1855         53.1855 
       0.405048         57.3127         51.5381         51.5381 
       0.411186         55.6897         49.9696         49.9696 
       0.417313         54.1087         48.4833         48.4833 
       0.423458         52.5111         47.0736         47.0736 
       0.429607          51.577         45.7356         45.7356 
       0.435692          50.591         44.4741         44.4741 
       0.441815         48.7294         43.2561         43.2561 
       0.447964         47.2248         42.0745         42.0745 
       0.454126         46.4006          40.926          40.926 
       0.460267         45.8316         39.8168         39.8168 
       0.466387         44.4885         38.7468         38.7468 
        0.47254         43.7451         37.7084         37.7084 
       0.478662         42.3732         36.7152         36.7152 
       0.484765         41.4578         35.7662         35.7662 
       0.490885         40.2792         34.8536         34.8536 
       0.497035         39.5469         33.9725         33.9725 
       0.503198         38.6675         33.1229         33.1229 
       0.509342         37.6162         32.3058         32.3058 
       0.515458         37.0953         31.5189         31.5189 
       0.521598         36.2221         30.7531         30.7531 
       0.527764         35.7089         30.0076         30.0076 
       0.533884         34.7905         29.2913         29.2913 
           0.54         34.0908         28.5996         28.5996 
       0.546137         33.0668         27.9288         27.9288 
       0.552299         32.5126         27.2782         27.2782 
       0.558452         31.8206         26.6506         26.6506 
       0.564573         31.4449         26.0471         26.0471 
       0.570708         30.6373         25.4619         25.4619 
       0.576825         30.1826         24.8968         24.8968 
       0.582926         29.6157         24.3503         24.3503 
       0.589034         29.0348          23.819          23.819 
       0.595184         28.6374         23.2998         23.2998 
       0.601379         27.8553         22.7924         22.7924 
       0.607522         27.4086         22.3045         22.3045 
       0.613639         26.9021         21.8334         21.8334 
       0.619772         26.4579         21.3754         21.3754 
       0.625918         25.9016           20.93           20.93 
       0.632068         25.6584         20.4975         20.4975 
       0.638161         25.1085         20.0812         20.0812 
         0.6443         24.6912         19.6735         19.6735 
       0.650464         24.0736         19.2758         19.2758 
       0.656582         23.9056         18.8921         18.8921 
       0.662703         23.5925         18.5188         18.5188 
       0.668861          22.957         18.1536         18.1536 
       0.675024         22.6399         17.7982         17.7982 
       0.681124         22.5132          17.456          17.456 
       0.687237         22.0403         17.1223         17.1223 
       0.693381         21.5372         16.7959         16.7959 
       0.699536         21.4223         16.4776         16.4776 
       0.705665         21.0076         16.1691         16.1691 
       0.711789         20.6069         15.8688         15.8688 
       0.717957         20.1786         15.5742         15.5742 
        0.72409         20.0048         15.2889         15.2889 
       0.730186         19.8725         15.0125         15.0125 
       0.736317         19.4409         14.7415         14.7415 
       0.742472         19.1947         14.4764         14.4764 
       0.748622         18.8768         14.2181         14.2181 
        0.75476         18.3951         13.9667         13.9667 
       0.760888         18.3046         13.7219         13.7219 
       0.767043         17.9696         13.4821         13.4821 
       0.773185         17.7572         13.2486         13.2486 
       0.779291         17.6139          13.022          13.022 
       0.785407         17.2844         12.8005         12.8005 
       0.791564         17.1158         12.5828         12.5828 
       0.797719         16.7506         12.3703         12.3703 
       0.803834         16.6569         12.1642         12.1642 
       0.809972         16.3333          11.962          11.962 
       0.816124         16.1401         11.7641         11.7641 
       0.822261         15.9494         11.5713         11.5713 
       0.828378         15.7454         11.3834         11.3834 
       0.834502         15.5699         11.1996         11.1996 
       0.840667         15.4055         11.0187         11.0187 
       0.846816         15.0699         10.8423         10.8423 
       0.852925         14.9777          10.671          10.671 
       0.859047         14.7822         10.5031         10.5031 
       0.865192         14.5679         10.3383         10.3383 
       0.871341         14.3649         10.1769         10.1769 
       0.877463         14.2031         10.0198         10.0198 
       0.883569          14.095         9.86642         9.86642 
       0.889708         13.8546         9.71551         9.71551 
       0.895864         13.6812         9.56741         9.56741 
       0.902008         13.5024         9.42276         9.42276 
       0.908149         13.3208         9.28121         9.28121 
       0.914301         13.2383         9.14239         9.14239 
       0.920448         13.0373         9.00656         9.00656 
       0.926574          12.948         8.87401         8.87401 
       0.932687         12.7423         8.74444         8.74444 
       0.938823         12.5696         8.61702         8.61702 
       0.944975          12.469         8.49188         8.49188 
       0.951105         12.2983          8.3697          8.3697 
       0.957225         12.2206         8.25017         8.25017 
       0.963368         12.0396          8.1326          8.1326 
       0.969511         11.9057         8.01734         8.01734 
       0.975621         11.7751         7.90496         7.90496 
       0.981748         11.6045         7.79447         7.79447 
       0.987916         11.5132         7.68542         7.68542 
        0.99406         11.4097          7.5789          7.5789 
        1.00019         11.2981         7.47462         7.47462 
        1.00632         11.1885         7.37242         7.37242 
        1.01246         11.0584           7.272           7.272 
        1.01859         10.9196         7.17363         7.17363 
        1.02471         10.7748         7.07722         7.07722 
        1.03085         10.7349         6.98227         6.98227 
        1.03698         10.6156         6.88929         6.88929 
        1.04314         10.4873         6.79762         6.79762 
        1.04929          10.335         6.70786         6.70786 
        1.05541         10.2757         6.62009         6.62009 
        1.06154         10.1787          6.5337          6.5337 
        1.06769         10.1138         6.44873         6.44873 
        1.07382         9.93664         6.36557         6.36557 
        1.07993         9.84374         6.28408         6.28408 
        1.08607         9.79201         6.20369         6.20369 
        1.09222         9.65337         6.12464         6.12464 
        1.09836         9.63066         6.04708         6.04708 
        1.10449          9.4478         5.97096         5.97096 
        1.11063         9.41974         5.89608         5.89608 
        1.11677         9.33427         5.82253         5.82253 
         1.1229         9.24654         5.75037         5.75037 
        1.12903         9.17027         5.67939         5.67939 
        1.13518         9.02943         5.60955         5.60955 
        1.14131         8.96188         5.54094         5.54094 
        1.14745         8.84108         5.47353         5.47353 
        1.15359         8.77343         5.40724         5.40724 
        1.15973         8.69108         5.34204         5.34204 
        1.16584         8.62274         5.27821         5.27821 
        1.17197         8.53672         5.21534         5.21534 
        1.17811         8.45531         5.15332         5.15332 
        1.18424         8.38864         5.09249         5.09249 
        1.19038         8.32837         5.03248         5.03248 
        1.19652         8.25899         4.97347         4.97347 
        1.20267         8.18574         4.91542         4.91542 
        1.20881          8.0925         4.85831         4.85831 
        1.21495         8.02779         4.80221         4.80221 
        1.22108         7.97054         4.74701         4.74701 
         1.2272         7.88723         4.69282         4.69282 
        1.23334         7.86436         4.63936         4.63936 
        1.23949         7.76381         4.58661         4.58661 
        1.24562         7.70156         4.53484         4.53484 
        1.25174         7.65267         4.48396         4.48396 
        1.25789         7.53778          4.4337          4.4337 
        1.26402         7.51119         4.38432         4.38432 
        1.27014          7.4611         4.33581         4.33581 
        1.27628         7.36372          4.2879          4.2879 
        1.28244         7.34137         4.24063         4.24063 
        1.28858         7.28758         4.19414         4.19414 
        1.29471         7.18147         4.14846         4.14846 
        1.30084          7.1243          4.1035          4.1035 
        1.30697         7.10307         4.05915         4.05915 
        1.31312         7.02853         4.01539         4.01539 
        1.31925         6.97286         3.97242         3.97242 
        1.32537         6.92617         3.93013         3.93013 
        1.33151         6.86326          3.8883          3.8883 
        1.33765         6.80425         3.84712         3.84712 
        1.34378         6.78923         3.80662         3.80662 
        1.34992          6.7135         3.76668         3.76668 
        1.35606         6.66442         3.72723         3.72723 
         1.3622         6.60697         3.68842         3.68842 
        1.36833         6.55638         3.65026         3.65026 
        1.37445         6.49966         3.61267         3.61267 
        1.38059         6.45429         3.57549         3.57549 
        1.38675         6.40342         3.53875         3.53875 
        1.39288         6.35666         3.50268         3.50268 
        1.39901         6.29631         3.46714         3.46714 
        1.40515         6.25773         3.43201         3.43201 
         1.4113         6.20805         3.39738         3.39738 
        1.41742         6.17019         3.36337         3.36337 
        1.42355         6.11485         3.32977         3.32977 
         1.4297         6.08232         3.29652         3.29652 
        1.43585         6.04224         3.26375         3.26375 
        1.44198         5.98872         3.23155         3.23155 
        1.44809         5.95795         3.19985         3.19985 
        1.45423         5.90344         3.16847         3.16847 
        1.46036         5.87115         3.13756         3.13756 
        1.46649         5.82173         3.10706         3.10706 
        1.47263         5.79249         3.07694         3.07694 
        1.47877         5.74645         3.04724         3.04724 
        1.48491         5.71435         3.01789         3.01789 
        1.49104         5.66118         2.98899         2.98899 
        1.49718         5.63687         2.96045         2.96045 
        1.50333         5.59061         2.93224         2.93224 
        1.50947         5.53503         2.90446         2.90446 
         1.5156         5.52213         2.87708         2.87708 
        1.52172         5.48343         2.85006         2.85006 
        1.52787         5.44545         2.82334         2.82334 
          1.534          5.4041         2.79699         2.79699 
        1.54013         5.37478         2.77101         2.77101 
        1.54627         5.33527         2.74531         2.74531 
        1.55241         5.28905         2.71994         2.71994 
        1.55855         5.27243         2.69492         2.69492 
        1.56467         5.23286          2.6703          2.6703 
         1.5708         5.19673         2.64591         2.64591 
        1.57695         5.14753         2.62179         2.62179 
        1.58308         5.11179         2.59803         2.59803 
        1.58922         5.09655         2.57455         2.57455 
        1.59535         5.06073         2.55137         2.55137 
         1.6015          5.0159         2.52845         2.52845 
        1.60764         4.99728         2.50582         2.50582 
        1.61376         4.96529         2.48353         2.48353 
        1.61989         4.91553          2.4615          2.4615 
        1.62604         4.89442         2.43969         2.43969 
        1.63218         4.86872         2.41815         2.41815 
        1.63831         4.84612         2.39693         2.39693 
        1.64444         4.80362         2.37596         2.37596 
        1.65059         4.78023         2.35519         2.35519 
        1.65673         4.75146         2.33469         2.33469 
        1.66285         4.72151          2.3145          2.3145 
        1.66898         4.68752         2.29454         2.29454 
        1.67512         4.65625         2.27478         2.27478 
        1.68127         4.62563         2.25524         2.25524 
         1.6874         4.60869         2.23597         2.23597 
        1.69353         4.56508         2.21693         2.21693 
        1.69967         4.54829         2.19808         2.19808 
        1.70581         4.51489         2.17945         2.17945 
        1.71193          4.4922         2.16112         2.16112 
        1.71806         4.46669         2.14295         2.14295 
        1.72421         4.43721         2.12496         2.12496 
        1.73035         4.40908          2.1072          2.1072 
        1.73649         4.38372         2.08965         2.08965 
        1.74262         4.35856         2.07231         2.07231 
        1.74876         4.34223         2.05516         2.05516 
        1.75489         4.31054         2.03824         2.03824 
        1.76101         4.27954         2.02151         2.02151 
        1.76715         4.26965         2.00495         2.00495 
        1.77329         4.24091         1.98856         1.98856 
        1.77943          4.2061         1.97235         1.97235 
        1.78557         4.19096         1.95634         1.95634 
        1.79171         4.17049         1.94051         1.94051 
        1.79785          4.1458         1.92485         1.92485 
        1.80399         4.10936         1.90937         1.90937 
        1.81012         4.09517         1.89408         1.89408 
        1.81625         4.07004         1.87897         1.87897 
        1.82239           4.051           1.864           1.864 
        1.82853         4.02441          1.8492          1.8492 
        1.83466         3.99164         1.83458         1.83458 
        1.84078         3.97325         1.82013         1.82013 
        1.84692         3.95369         1.80582         1.80582 
        1.85306         3.93086         1.79164         1.79164 
         1.8592         3.91789         1.77764         1.77764 
        1.86533         3.89251          1.7638          1.7638 
        1.87147         3.87236         1.75009         1.75009 
        1.87761         3.85719         1.73652         1.73652 
