# k  (h/Mpc)    P(k)  (Mpc/h)^3    P_linear(k)  (Mpc/h)^3     P_NL(k)  ShotnoiseSubtracted = false
     0.00783031           15429         15507.3         15507.3 
       0.013688         19185.7         19724.7         19724.7 
       0.019231         20017.4         20359.1         20359.1 
      0.0249154         19179.3         19185.3         19185.3 
      0.0312784           16759         17002.4         17002.4 
      0.0375637         14492.9         14837.8         14837.8 
      0.0433917         13042.8         13201.1         13201.1 
      0.0492413         11723.6           11981           11981 
      0.0555754         10845.9         11024.4         11024.4 
      0.0619321         9762.13         10253.9         10253.9 
       0.067871         9222.79         9551.43         9551.43 
      0.0738098         8577.85         8789.45         8789.45 
      0.0800417          7766.2         7930.53         7930.53 
      0.0862327            6930          7082.8          7082.8 
      0.0921407            6272         6353.76         6353.76 
      0.0982031         5761.74         5739.15         5739.15 
       0.104506         5208.29         5257.61         5257.61 
       0.110769         4887.02         4912.57         4912.57 
       0.116806          4706.4          4658.9          4658.9 
       0.122832          4434.1          4433.1          4433.1 
       0.129052         4179.96         4189.12         4189.12 
       0.135211         4024.57         3919.45         3919.45 
       0.141259         3703.39         3633.98         3633.98 
       0.147318         3417.12         3348.51         3348.51 
       0.153489         3218.01         3082.52         3082.52 
       0.159709          3097.5         2857.21         2857.21 
       0.165845         2848.11         2681.81         2681.81 
       0.171974          2785.1          2546.4          2546.4 
       0.178125          2709.4         2436.44         2436.44 
       0.184229         2503.37         2337.36         2337.36 
        0.19034         2466.62          2235.9          2235.9 
       0.196428         2393.23         2126.73         2126.73 
       0.202534         2248.33         2010.18         2010.18 
       0.208729         2196.97         1890.79         1890.79 
       0.214876         2097.96         1778.81         1778.81 
       0.220989          2000.2          1679.8          1679.8 
       0.227147         1948.13         1595.13         1595.13 
        0.23329          1875.4         1524.72         1524.72 
       0.239377          1867.6         1465.15         1465.15 
       0.245482         1784.91         1410.92         1410.92 
       0.251667         1720.14         1357.43         1357.43 
       0.257832         1692.68         1302.99         1302.99 
       0.263955         1619.12         1247.35         1247.35 
       0.270079         1579.88         1191.44         1191.44 
        0.27624         1514.16         1136.98         1136.98 
       0.282372         1499.08         1086.57         1086.57 
        0.28843         1470.13         1041.63         1041.63 
       0.294538         1407.25         1001.33         1001.33 
       0.300721         1383.36          964.92          964.92 
        0.30691         1348.83         931.497         931.497 
       0.313033         1300.83         900.079         900.079 
       0.319153          1288.3         869.283         869.283 
       0.325316         1272.46         838.473         838.473 
        0.33145         1244.92         808.079         808.079 
       0.337538         1206.51         778.672         778.672 
       0.343633         1179.51         750.542         750.542 
       0.349808         1160.12         723.824         723.824 
       0.355968         1136.04         699.155         699.155 
       0.362074         1104.46         676.521         676.521 
       0.368217         1101.09         655.292         655.292 
       0.374374         1084.35         635.123         635.123 
       0.380519         1048.37         615.743         615.743 
       0.386598         1044.05         597.087         597.087 
       0.392688         1017.62          578.81          578.81 
        0.39888         998.611         560.736         560.736 
       0.405048         979.255         543.363         543.363 
       0.411186         975.864         526.823         526.823 
       0.417313         971.712          511.16          511.16 
       0.423458          942.71         496.294         496.294 
       0.429607         918.402         482.185         482.185 
       0.435692         911.296          468.89          468.89 
       0.441815         894.181         456.049         456.049 
       0.447964         884.476         443.585         443.585 
       0.454126         873.149         431.481         431.481 
       0.460267         862.842         419.789         419.789 
       0.466387         848.502         408.504         408.504 
        0.47254         834.732         397.555         397.555 
       0.478662         824.438         387.088         387.088 
       0.484765         815.481         377.084         377.084 
       0.490885         807.113         367.458         367.458 
       0.497035         792.347         358.168         358.168 
       0.503198         791.238         349.214         349.214 
       0.509342         776.755         340.601         340.601 
       0.515458         761.568         332.303         332.303 
       0.521598         760.766         324.225         324.225 
       0.527764          742.95         316.367         316.367 
       0.533884         735.525         308.819         308.819 
           0.54         730.407         301.526         301.526 
       0.546137         720.837         294.452         294.452 
       0.552299         715.615          287.59          287.59 
       0.558452         707.748         280.974         280.974 
       0.564573         703.348         274.613         274.613 
       0.570708         695.803         268.445         268.445 
       0.576825         681.747         262.488         262.488 
       0.582926         680.217         256.724         256.724 
       0.589034         671.597         251.121         251.121 
       0.595184         664.317         245.646         245.646 
       0.601379         654.231         240.298         240.298 
       0.607522         645.175         235.156         235.156 
       0.613639         644.326         230.191         230.191 
       0.619772         638.809         225.361         225.361 
       0.625918         629.228         220.665         220.665 
       0.632068          626.36         216.103         216.103 
       0.638161          617.78         211.713         211.713 
         0.6443         611.674         207.415         207.415 
       0.650464         606.971         203.223         203.223 
       0.656582         602.253         199.178         199.178 
       0.662703           594.9         195.243         195.243 
       0.668861         588.647         191.394         191.394 
       0.675024         585.359         187.647         187.647 
       0.681124         574.492         184.039         184.039 
       0.687237         574.919          180.52          180.52 
       0.693381          564.99         177.079         177.079 
       0.699536         566.287         173.722         173.722 
       0.705665         557.729         170.469         170.469 
       0.711789         556.496         167.303         167.303 
       0.717957         549.296         164.197         164.197 
        0.72409         544.705         161.189         161.189 
       0.730186         543.151         158.275         158.275 
       0.736317         535.768         155.419         155.419 
       0.742472         529.674         152.624         152.624 
       0.748622         528.274         149.901         149.901 
        0.75476         521.281         147.251         147.251 
       0.760888         519.002          144.67          144.67 
       0.767043          516.41         142.142         142.142 
       0.773185         512.137          139.68          139.68 
       0.779291         506.614         137.291         137.291 
       0.785407         502.508         134.955         134.955 
       0.791564         500.054          132.66          132.66 
       0.797719         492.392          130.42          130.42 
       0.803834         493.333         128.246         128.246 
       0.809972         485.756         126.115         126.115 
       0.816124         482.307         124.028         124.028 
       0.822261          479.66         121.995         121.995 
       0.828378         477.321         120.014         120.014 
       0.834502         469.877         118.076         118.076 
       0.840667          469.02         116.169         116.169 
       0.846816         464.039          114.31          114.31 
       0.852925         463.519         112.504         112.504 
       0.859047         458.372         110.733         110.733 
       0.865192          455.86         108.996         108.996 
       0.871341         450.235         107.295         107.295 
       0.877463         449.418         105.638         105.638 
       0.883569         444.877         104.021         104.021 
       0.889708         440.158          102.43          102.43 
       0.895864         435.636         100.869         100.869 
       0.902008         435.129         99.3436         99.3436 
       0.908149         430.858         97.8513         97.8513 
       0.914301          429.42         96.3877         96.3877 
       0.920448         424.034         94.9557         94.9557 
       0.926574         421.946         93.5582         93.5582 
       0.932687         420.788         92.1921         92.1921 
       0.938823         415.538         90.8487         90.8487 
       0.944975         414.106         89.5294         89.5294 
       0.951105         410.687         88.2413         88.2413 
       0.957225         405.293         86.9811         86.9811 
       0.963368          405.89         85.7415         85.7415 
       0.969511         399.914         84.5263         84.5263 
       0.975621         398.133         83.3415         83.3415 
       0.981748          396.27         82.1766         82.1766 
       0.987916         393.751         81.0269         81.0269 
        0.99406         389.604         79.9038         79.9038 
        1.00019         386.022         78.8043         78.8043 
        1.00632         384.914         77.7269         77.7269 
        1.01246         381.791         76.6682         76.6682 
        1.01859         378.347         75.6311         75.6311 
        1.02471         376.542         74.6147         74.6147 
        1.03085         374.301         73.6137         73.6137 
        1.03698         372.275         72.6334         72.6334 
        1.04314         369.421          71.667          71.667 
        1.04929         367.835         70.7207         70.7207 
        1.05541         363.147         69.7954         69.7954 
        1.06154         361.522         68.8845         68.8845 
        1.06769         358.326         67.9887         67.9887 
        1.07382         355.529         67.1119         67.1119 
        1.07993         354.934         66.2527         66.2527 
        1.08607         352.398         65.4052         65.4052 
        1.09222         349.107         64.5717         64.5717 
        1.09836         347.306          63.754          63.754 
        1.10449         344.486         62.9514         62.9514 
        1.11063          343.15          62.162          62.162 
        1.11677         338.999         61.3865         61.3865 
         1.1229         338.109         60.6257         60.6257 
        1.12903         335.022         59.8773         59.8773 
        1.13518         333.231         59.1411         59.1411 
        1.14131         331.449         58.4177         58.4177 
        1.14745         327.967          57.707          57.707 
        1.15359         325.462         57.0082         57.0082 
        1.15973         323.965         56.3207         56.3207 
        1.16584         322.436         55.6478         55.6478 
        1.17197         319.937          54.985          54.985 
        1.17811         316.372          54.331          54.331 
        1.18424         315.546         53.6898         53.6898 
        1.19038         313.676         53.0571         53.0571 
        1.19652         310.262          52.435          52.435 
        1.20267         309.373         51.8229         51.8229 
        1.20881         307.628         51.2209         51.2209 
        1.21495         304.574         50.6294         50.6294 
        1.22108         303.572         50.0475         50.0475 
         1.2272         299.212         49.4762         49.4762 
        1.23334         298.356         48.9126         48.9126 
        1.23949         296.321         48.3565         48.3565 
        1.24562         295.458         47.8107         47.8107 
        1.25174         293.073         47.2742         47.2742 
        1.25789         290.549         46.7444         46.7444 
        1.26402         289.227         46.2237         46.2237 
        1.27014         287.686         45.7123         45.7123 
        1.27628         285.345         45.2072         45.2072 
        1.28244         282.874         44.7088         44.7088 
        1.28858         281.941         44.2186         44.2186 
        1.29471         280.183         43.7369         43.7369 
        1.30084         279.198         43.2629         43.2629 
        1.30697          275.88         42.7953         42.7953 
        1.31312         274.304         42.3339         42.3339 
        1.31925          272.96         41.8809         41.8809 
        1.32537         271.767          41.435          41.435 
        1.33151         268.875         40.9941         40.9941 
        1.33765         266.768         40.5598         40.5598 
        1.34378         265.784         40.1328         40.1328 
        1.34992         263.059         39.7117         39.7117 
        1.35606         261.704         39.2958         39.2958 
         1.3622         259.902         38.8867         38.8867 
        1.36833         259.257         38.4844         38.4844 
        1.37445         257.996          38.088          38.088 
        1.38059         254.666         37.6961         37.6961 
        1.38675         253.437         37.3088         37.3088 
        1.39288         252.559         36.9285         36.9285 
        1.39901         250.167         36.5537         36.5537 
        1.40515         249.012         36.1834         36.1834 
         1.4113         247.082         35.8183         35.8183 
        1.41742         245.088         35.4598         35.4598 
        1.42355         244.444         35.1055         35.1055 
         1.4297         242.416          34.755          34.755 
        1.43585         240.431         34.4095         34.4095 
        1.44198         239.161           34.07           34.07 
        1.44809         237.935         33.7358         33.7358 
        1.45423          236.38         33.4049         33.4049 
        1.46036         235.421         33.0791         33.0791 
        1.46649         233.556         32.7576         32.7576 
        1.47263         231.562         32.4401         32.4401 
        1.47877         230.322         32.1269         32.1269 
        1.48491         228.514         31.8175         31.8175 
        1.49104         226.583         31.5128         31.5128 
        1.49718         225.858         31.2119         31.2119 
        1.50333         223.895         30.9145         30.9145 
        1.50947         222.753         30.6216         30.6216 
         1.5156         221.315          30.333          30.333 
        1.52172         219.825         30.0481         30.0481 
        1.52787         218.114         29.7664         29.7664 
          1.534          217.85         29.4886         29.4886 
        1.54013         215.713         29.2146         29.2146 
        1.54627         214.421         28.9437         28.9437 
        1.55241           213.4         28.6762         28.6762 
        1.55855         211.894         28.4125         28.4125 
        1.56467         210.615         28.1528         28.1528 
         1.5708         209.037         27.8957         27.8957 
        1.57695         208.146         27.6414         27.6414 
        1.58308         206.998         27.3909         27.3909 
        1.58922         205.096         27.1433         27.1433 
        1.59535         203.621         26.8989         26.8989 
         1.6015         202.819         26.6572         26.6572 
        1.60764         201.168         26.4187         26.4187 
        1.61376         199.734         26.1837         26.1837 
        1.61989         198.391         25.9514         25.9514 
        1.62604         197.339         25.7214         25.7214 
        1.63218         195.885         25.4944         25.4944 
        1.63831         195.196         25.2707         25.2707 
        1.64444         193.393         25.0496         25.0496 
        1.65059         192.509         24.8306         24.8306 
        1.65673         191.212         24.6145         24.6145 
        1.66285         190.014         24.4016         24.4016 
        1.66898          188.84         24.1912         24.1912 
        1.67512         187.578         23.9828         23.9828 
        1.68127         186.602         23.7767         23.7767 
         1.6874         185.197         23.5736         23.5736 
        1.69353         184.562         23.3729         23.3729 
        1.69967         183.004         23.1741         23.1741 
        1.70581         182.146         22.9778         22.9778 
        1.71193         180.831         22.7844         22.7844 
        1.71806         179.234         22.5929         22.5929 
        1.72421         178.509         22.4033         22.4033 
        1.73035         177.212          22.216          22.216 
        1.73649         175.782         22.0309         22.0309 
        1.74262         175.064         21.8481         21.8481 
        1.74876          173.99         21.6673         21.6673 
        1.75489         173.204         21.4889         21.4889 
        1.76101         172.096         21.3126         21.3126 
        1.76715         170.819          21.138          21.138 
        1.77329         169.425         20.9652         20.9652 
        1.77943         168.389         20.7943         20.7943 
        1.78557         167.392         20.6255         20.6255 
        1.79171         166.794         20.4586         20.4586 
        1.79785         165.373         20.2936         20.2936 
        1.80399         164.426         20.1304         20.1304 
        1.81012         163.837         19.9692         19.9692 
        1.81625         162.072         19.8098         19.8098 
        1.82239         161.612          19.652          19.652 
        1.82853         160.597          19.496          19.496 
        1.83466         159.088         19.3419         19.3419 
        1.84078         158.452         19.1895         19.1895 
        1.84692         157.733         19.0386         19.0386 
        1.85306          156.39         18.8892         18.8892 
         1.8592         155.757         18.7415         18.7415 
        1.86533          154.19         18.5956         18.5956 
        1.87147         153.364          18.451          18.451 
        1.87761         152.688          18.308          18.308 
