# k  (h/Mpc)    P(k)  (Mpc/h)^3    P_linear(k)  (Mpc/h)^3     P_NL(k)  ShotnoiseSubtracted = false
     0.00783031         531.688         535.638         535.638 
       0.013688         671.467          677.69          677.69 
       0.019231         696.163         698.715         698.715 
      0.0249154         658.056         658.167         658.167 
      0.0312784         582.826         583.169         583.169 
      0.0375637          508.14          508.88          508.88 
      0.0433917         453.502         452.729         452.729 
      0.0492413         410.668         410.874         410.874 
      0.0555754         378.791         378.064         378.064 
      0.0619321          349.71         351.635         351.635 
       0.067871         327.067         327.544         327.544 
      0.0738098          301.25         301.412         301.412 
      0.0800417         272.338         271.956         271.956 
      0.0862327         242.918         242.885         242.885 
      0.0921407         217.837         217.884         217.884 
      0.0982031         197.364         196.808         196.808 
       0.104506         179.924         180.295         180.295 
       0.110769         168.186         168.462         168.462 
       0.116806         160.178         159.764         159.764 
       0.122832         151.732          152.02          152.02 
       0.129052         143.758         143.654         143.654 
       0.135211         134.857         134.406         134.406 
       0.141259         124.706         124.617         124.617 
       0.147318         114.545         114.827         114.827 
       0.153489         105.831         105.706         105.706 
       0.159709          98.379         97.9796         97.9796 
       0.165845         91.6756         91.9646         91.9646 
       0.171974         87.8382         87.3213         87.3213 
       0.178125         83.9705         83.5504         83.5504 
       0.184229         80.1901         80.1528         80.1528 
        0.19034         77.1462         76.6735         76.6735 
       0.196428         73.3155         72.9299         72.9299 
       0.202534         68.8173         68.9331         68.9331 
       0.208729         65.2162          64.839          64.839 
       0.214876         61.7073          60.999          60.999 
       0.220989         57.7316         57.6037         57.6037 
       0.227147         55.4253         54.7002         54.7002 
        0.23329         53.0493         52.2857         52.2857 
       0.239377          51.061          50.243          50.243 
       0.245482         49.0633         48.3833         48.3833 
       0.251667         47.0116          46.549          46.549 
       0.257832         45.4725         44.6821         44.6821 
       0.263955         43.3193         42.7743         42.7743 
       0.270079         41.4082         40.8568         40.8568 
        0.27624         39.3832         38.9893         38.9893 
       0.282372          37.731         37.2607         37.2607 
        0.28843         36.5225         35.7195         35.7195 
       0.294538         35.0551         34.3377         34.3377 
       0.300721         33.6109         33.0891         33.0891 
        0.30691         32.6925          31.943          31.943 
       0.313033         31.5209         30.8656         30.8656 
       0.319153         30.7436         29.8095         29.8095 
       0.325316           29.31          28.753          28.753 
        0.33145         28.2712         27.7107         27.7107 
       0.337538         27.3355         26.7023         26.7023 
       0.343633         26.4474         25.7376         25.7376 
       0.349808         25.4797         24.8214         24.8214 
       0.355968         24.5923         23.9755         23.9755 
       0.362074         23.9499         23.1993         23.1993 
       0.368217         23.1944         22.4713         22.4713 
       0.374374         22.6511         21.7797         21.7797 
       0.380519         21.7867         21.1151         21.1151 
       0.386598         21.0976         20.4754         20.4754 
       0.392688         20.4331         19.8486         19.8486 
        0.39888           19.91         19.2288         19.2288 
       0.405048          19.344          18.633          18.633 
       0.411186         18.7453         18.0659         18.0659 
       0.417313         18.2096         17.5287         17.5287 
       0.423458         17.6198         17.0189         17.0189 
       0.429607         17.2538         16.5351         16.5351 
       0.435692          16.846         16.0792         16.0792 
       0.441815         16.2891         15.6389         15.6389 
       0.447964         15.7759         15.2114         15.2114 
       0.454126         15.4643         14.7964         14.7964 
       0.460267         15.1719         14.3954         14.3954 
       0.466387         14.7189         14.0085         14.0085 
        0.47254         14.3972          13.633          13.633 
       0.478662         13.9865         13.2741         13.2741 
       0.484765         13.6487          12.931          12.931 
       0.490885          13.262         12.6009         12.6009 
       0.497035         12.9153         12.2823         12.2823 
       0.503198         12.6528         11.9753         11.9753 
       0.509342         12.2921         11.6799         11.6799 
       0.515458         12.0733         11.3954         11.3954 
       0.521598         11.7915         11.1184         11.1184 
       0.527764         11.5831         10.8489         10.8489 
       0.533884          11.221           10.59           10.59 
           0.54         10.9978           10.34           10.34 
       0.546137         10.6876         10.0974         10.0974 
       0.552299         10.4845         9.86206         9.86206 
       0.558452         10.2506         9.63517         9.63517 
       0.564573         10.0598         9.41706         9.41706 
       0.570708         9.83414         9.20555         9.20555 
       0.576825         9.63464         9.00125         9.00125 
       0.582926         9.41392         8.80359         8.80359 
       0.589034         9.24534         8.61145         8.61145 
       0.595184         9.09099         8.42371         8.42371 
       0.601379         8.84891         8.24033         8.24033 
       0.607522         8.67345         8.06399         8.06399 
       0.613639         8.46918         7.89372         7.89372 
       0.619772         8.33862         7.72811         7.72811 
       0.625918         8.15991         7.56706         7.56706 
       0.632068         8.03094         7.41062         7.41062 
       0.638161         7.85898         7.26008         7.26008 
         0.6443         7.70222          7.1127          7.1127 
       0.650464         7.53312         6.96893         6.96893 
       0.656582         7.44419         6.83023         6.83023 
       0.662703         7.30861          6.6953          6.6953 
       0.668861         7.11563          6.5633          6.5633 
       0.675024         6.99882          6.4348          6.4348 
       0.681124          6.9568         6.31109         6.31109 
       0.687237         6.78935         6.19042         6.19042 
       0.693381         6.61652          6.0724          6.0724 
       0.699536         6.55415         5.95729         5.95729 
       0.705665         6.42961         5.84572         5.84572 
       0.711789         6.28591         5.73716         5.73716 
       0.717957         6.16689         5.63066         5.63066 
        0.72409         6.08359          5.5275          5.5275 
       0.730186         6.01629         5.42759         5.42759 
       0.736317         5.88041         5.32965         5.32965 
       0.742472         5.80101         5.23379         5.23379 
       0.748622         5.70683         5.14041         5.14041 
        0.75476         5.57041         5.04954         5.04954 
       0.760888         5.51243         4.96104         4.96104 
       0.767043         5.37281         4.87433         4.87433 
       0.773185         5.30516         4.78991         4.78991 
       0.779291         5.26714         4.70799         4.70799 
       0.785407         5.15633         4.62789         4.62789 
       0.791564         5.07799         4.54918         4.54918 
       0.797719          4.9879         4.47236         4.47236 
       0.803834         4.91917         4.39783         4.39783 
       0.809972         4.83348         4.32475         4.32475 
       0.816124         4.76197         4.25319         4.25319 
       0.822261          4.6964         4.18347         4.18347 
       0.828378         4.61601         4.11555         4.11555 
       0.834502         4.55148         4.04909         4.04909 
       0.840667         4.49821         3.98369         3.98369 
       0.846816         4.41504         3.91993         3.91993 
       0.852925         4.34742         3.85799         3.85799 
       0.859047         4.28611         3.79728         3.79728 
       0.865192         4.22171         3.73769         3.73769 
       0.871341         4.16212         3.67936         3.67936 
       0.877463          4.0961         3.62255         3.62255 
       0.883569         4.04229          3.5671          3.5671 
       0.889708         3.98994         3.51254         3.51254 
       0.895864         3.93336           3.459           3.459 
       0.902008         3.86429          3.4067          3.4067 
       0.908149         3.81815         3.35553         3.35553 
       0.914301         3.77396         3.30533         3.30533 
       0.920448         3.72241         3.25623         3.25623 
       0.926574         3.68813         3.20831         3.20831 
       0.932687         3.62529         3.16146         3.16146 
       0.938823          3.5601         3.11539         3.11539 
       0.944975         3.52916         3.07015         3.07015 
       0.951105          3.4612         3.02598         3.02598 
       0.957225          3.4286         2.98276         2.98276 
       0.963368         3.39179         2.94026         2.94026 
       0.969511         3.34923         2.89859         2.89859 
       0.975621         3.29515         2.85796         2.85796 
       0.981748         3.23483         2.81801         2.81801 
       0.987916         3.20291         2.77858         2.77858 
        0.99406         3.17651         2.74007         2.74007 
        1.00019         3.13416         2.70237         2.70237 
        1.00632         3.10281         2.66542         2.66542 
        1.01246           3.055         2.62911         2.62911 
        1.01859         3.01703         2.59355         2.59355 
        1.02471         2.96708          2.5587          2.5587 
        1.03085         2.93973         2.52437         2.52437 
        1.03698         2.90592         2.49075         2.49075 
        1.04314         2.87271         2.45761         2.45761 
        1.04929         2.83675         2.42516         2.42516 
        1.05541         2.79381         2.39343         2.39343 
        1.06154         2.77055          2.3622          2.3622 
        1.06769         2.74603         2.33148         2.33148 
        1.07382         2.70156         2.30141         2.30141 
        1.07993         2.66661         2.27195         2.27195 
        1.08607         2.64456         2.24288         2.24288 
        1.09222         2.60356          2.2143          2.2143 
        1.09836         2.59105         2.18626         2.18626 
        1.10449         2.53875         2.15874         2.15874 
        1.11063         2.51603         2.13167         2.13167 
        1.11677         2.49146         2.10507         2.10507 
         1.1229         2.45548         2.07898         2.07898 
        1.12903         2.43866         2.05332         2.05332 
        1.13518         2.40123         2.02807         2.02807 
        1.14131         2.37696         2.00327         2.00327 
        1.14745         2.35023          1.9789          1.9789 
        1.15359         2.32496         1.95493         1.95493 
        1.15973         2.29877         1.93136         1.93136 
        1.16584         2.27312         1.90828         1.90828 
        1.17197         2.24482         1.88555         1.88555 
        1.17811         2.22049         1.86313         1.86313 
        1.18424         2.19627         1.84114         1.84114 
        1.19038         2.17166         1.81944         1.81944 
        1.19652         2.15482         1.79811         1.79811 
        1.20267         2.13531         1.77712         1.77712 
        1.20881         2.10493         1.75647         1.75647 
        1.21495         2.08604         1.73619         1.73619 
        1.22108         2.06523         1.71623         1.71623 
         1.2272         2.03429         1.69664         1.69664 
        1.23334         2.02246         1.67732         1.67732 
        1.23949         2.00063         1.65825         1.65825 
        1.24562         1.97975         1.63953         1.63953 
        1.25174          1.9618         1.62113         1.62113 
        1.25789          1.9347         1.60296         1.60296 
        1.26402         1.91492         1.58511         1.58511 
        1.27014          1.8932         1.56757         1.56757 
        1.27628         1.87786         1.55025         1.55025 
        1.28244         1.86079         1.53316         1.53316 
        1.28858         1.83989         1.51635         1.51635 
        1.29471         1.81694         1.49983         1.49983 
        1.30084         1.80273         1.48358         1.48358 
        1.30697         1.78929         1.46754         1.46754 
        1.31312          1.7701         1.45172         1.45172 
        1.31925         1.75286         1.43618         1.43618 
        1.32537         1.73685         1.42089         1.42089 
        1.33151         1.71679         1.40577         1.40577 
        1.33765         1.70183         1.39088         1.39088 
        1.34378         1.68444         1.37624         1.37624 
        1.34992          1.6723          1.3618          1.3618 
        1.35606         1.65384         1.34754         1.34754 
         1.3622         1.63973         1.33351         1.33351 
        1.36833         1.62166         1.31971         1.31971 
        1.37445          1.6058         1.30612         1.30612 
        1.38059         1.59135         1.29268         1.29268 
        1.38675         1.57746          1.2794          1.2794 
        1.39288         1.56475         1.26636         1.26636 
        1.39901         1.54763         1.25351         1.25351 
        1.40515          1.5318         1.24081         1.24081 
         1.4113         1.52441         1.22829         1.22829 
        1.41742         1.50456         1.21599         1.21599 
        1.42355         1.48872         1.20384         1.20384 
         1.4297         1.48111         1.19182         1.19182 
        1.43585         1.46463         1.17997         1.17997 
        1.44198         1.45261         1.16833         1.16833 
        1.44809         1.43975         1.15687         1.15687 
        1.45423         1.42783         1.14553         1.14553 
        1.46036         1.41543         1.13435         1.13435 
        1.46649         1.39749         1.12333         1.12333 
        1.47263         1.38966         1.11244         1.11244 
        1.47877         1.38237          1.1017          1.1017 
        1.48491         1.36138         1.09109         1.09109 
        1.49104         1.35509         1.08064         1.08064 
        1.49718         1.33954         1.07032         1.07032 
        1.50333         1.32998         1.06013         1.06013 
        1.50947         1.31946         1.05008         1.05008 
         1.5156         1.30722         1.04018         1.04018 
        1.52172         1.29773         1.03041         1.03041 
        1.52787         1.28495         1.02075         1.02075 
          1.534         1.27661         1.01123         1.01123 
        1.54013         1.26406         1.00183         1.00183 
        1.54627         1.25314        0.992542        0.992542 
        1.55241         1.24091        0.983368        0.983368 
        1.55855         1.23229        0.974324        0.974324 
        1.56467         1.22251         0.96542         0.96542 
         1.5708         1.21145        0.956602        0.956602 
        1.57695         1.19969        0.947882        0.947882 
        1.58308         1.18855        0.939291        0.939291 
        1.58922         1.18369        0.930802        0.930802 
        1.59535         1.16943        0.922422        0.922422 
         1.6015         1.15984        0.914134        0.914134 
        1.60764         1.15247        0.905953        0.905953 
        1.61376         1.14151        0.897895        0.897895 
        1.61989         1.13407        0.889929        0.889929 
        1.62604         1.12167        0.882043        0.882043 
        1.63218         1.11719        0.874258        0.874258 
        1.63831         1.10613        0.866586        0.866586 
        1.64444         1.09732        0.859003        0.859003 
        1.65059         1.09013        0.851494        0.851494 
        1.65673         1.07909        0.844084        0.844084 
        1.66285         1.07127        0.836783        0.836783 
        1.66898         1.06448        0.829567        0.829567 
        1.67512         1.05226        0.822422        0.822422 
        1.68127         1.04384        0.815356        0.815356 
         1.6874         1.03997        0.808389        0.808389 
        1.69353         1.02932        0.801508        0.801508 
        1.69967         1.02249        0.794691        0.794691 
        1.70581         1.01646        0.787957        0.787957 
        1.71193         1.00571        0.781327        0.781327 
        1.71806        0.998948         0.77476         0.77476 
        1.72421        0.991784        0.768256        0.768256 
        1.73035        0.980227        0.761834        0.761834 
        1.73649        0.979217        0.755488        0.755488 
        1.74262        0.968141         0.74922         0.74922 
        1.74876        0.962068        0.743019        0.743019 
        1.75489        0.955178        0.736902        0.736902 
        1.76101        0.945501        0.730855        0.730855 
        1.76715        0.939929        0.724869        0.724869 
        1.77329        0.933495        0.718943        0.718943 
        1.77943        0.926502        0.713082        0.713082 
        1.78557         0.92183        0.707295        0.707295 
        1.79171        0.914703        0.701571        0.701571 
        1.79785        0.906688         0.69591         0.69591 
        1.80399        0.898755        0.690314        0.690314 
        1.81012        0.892863        0.684787        0.684787 
        1.81625        0.886302        0.679323        0.679323 
        1.82239        0.880372        0.673911        0.673911 
        1.82853        0.873923        0.668561        0.668561 
        1.83466        0.866723        0.663274        0.663274 
        1.84078        0.860079        0.658051        0.658051 
        1.84692        0.855183        0.652876        0.652876 
        1.85306        0.850554         0.64775         0.64775 
         1.8592        0.842298        0.642688        0.642688 
        1.86533        0.837928        0.637684        0.637684 
        1.87147         0.82888        0.632726        0.632726 
        1.87761        0.824693         0.62782         0.62782 
