# k  (h/Mpc)    Pcb(k)  (Mpc/h)^3    Pcb_linear(k) (Mpc/h)^3    Pcb_NL(k) (Mpc/h)^3   ShotnoiseSubtracted = false
     0.00783031         2918.54         2937.06         2937.06 
       0.013688         3661.73         3714.37         3714.37 
       0.019231         3803.15         3828.97         3828.97 
      0.0249154         3610.89         3606.45         3606.45 
      0.0312784         3186.63         3195.31         3195.31 
      0.0375637          2771.5         2788.17         2788.17 
      0.0433917         2481.58         2480.46         2480.46 
      0.0492413         2241.75         2251.11         2251.11 
      0.0555754         2073.01         2071.33         2071.33 
      0.0619321         1897.79         1926.51         1926.51 
       0.067871         1783.41         1794.51         1794.51 
      0.0738098         1646.02         1651.34         1651.34 
      0.0800417         1490.52         1489.95         1489.95 
      0.0862327          1327.9         1330.68         1330.68 
      0.0921407         1192.21          1193.7          1193.7 
      0.0982031         1084.52         1078.23         1078.23 
       0.104506         984.248          987.76          987.76 
       0.110769         921.262         922.933         922.933 
       0.116806         882.762         875.276         875.276 
       0.122832         832.223         832.852         832.852 
       0.129052         789.991         787.015         787.015 
       0.135211         745.805         736.351         736.351 
       0.141259         688.027         682.719         682.719 
       0.147318         630.042         629.086         629.086 
       0.153489         585.459         579.115         579.115 
       0.159709         549.199         536.785         536.785 
       0.165845         507.466         503.831         503.831 
       0.171974         492.482         478.392         478.392 
       0.178125         471.786         457.734         457.734 
       0.184229         446.379          439.12          439.12 
        0.19034         432.472         420.058         420.058 
       0.196428         413.017         399.548         399.548 
       0.202534         384.987         377.652         377.652 
       0.208729         369.956         355.222         355.222 
       0.214876          352.41         334.184         334.184 
       0.220989         327.653         315.583         315.583 
       0.227147         318.607         299.676         299.676 
        0.23329         306.251         286.448         286.448 
       0.239377         297.152         275.257         275.257 
       0.245482          283.75         265.069         265.069 
       0.251667         271.901          255.02          255.02 
       0.257832         266.627         244.791         244.791 
       0.263955          251.99          234.34          234.34 
       0.270079         241.837         223.835         223.835 
        0.27624          230.39         213.603         213.603 
       0.282372          222.56         204.133         204.133 
        0.28843         219.107          195.69          195.69 
       0.294538         209.296          188.12          188.12 
       0.300721         200.679         181.279         181.279 
        0.30691         197.051             175             175 
       0.313033         189.232         169.097         169.097 
       0.319153         185.739         163.312         163.312 
       0.325316         178.293         157.523         157.523 
        0.33145         172.624         151.813         151.813 
       0.337538         167.045         146.289         146.289 
       0.343633         161.792         141.004         141.004 
       0.349808         156.672         135.984         135.984 
       0.355968         152.237          131.35          131.35 
       0.362074         149.135         127.098         127.098 
       0.368217         145.454         123.109         123.109 
       0.374374          142.24          119.32          119.32 
       0.380519         136.238         115.679         115.679 
       0.386598         132.937         112.174         112.174 
       0.392688         129.137         108.741         108.741 
        0.39888         126.669         105.345         105.345 
       0.405048         123.682         102.081         102.081 
       0.411186          120.95         98.9738         98.9738 
       0.417313         117.722         96.0313         96.0313 
       0.423458          114.66         93.2382         93.2382 
       0.429607         112.586         90.5878         90.5878 
       0.435692         110.621           88.09           88.09 
       0.441815         106.972         85.6775         85.6775 
       0.447964         103.765         83.3359         83.3359 
       0.454126         101.893          81.062          81.062 
       0.460267         101.022         78.8654         78.8654 
       0.466387         98.4398         76.7453         76.7453 
        0.47254         97.1607         74.6883         74.6883 
       0.478662         93.8659          72.722          72.722 
       0.484765          92.272         70.8424         70.8424 
       0.490885         89.9532         69.0341         69.0341 
       0.497035         89.0652         67.2887         67.2887 
       0.503198         86.8903         65.6065         65.6065 
       0.509342         84.6922         63.9884         63.9884 
       0.515458          83.653         62.4294         62.4294 
       0.521598         81.6324         60.9119         60.9119 
       0.527764         80.6747         59.4355         59.4355 
       0.533884         79.5394         58.0175         58.0175 
           0.54         77.5905         56.6474         56.6474 
       0.546137         75.4975         55.3185         55.3185 
       0.552299         74.3571         54.0293         54.0293 
       0.558452         72.9005         52.7863         52.7863 
       0.564573         72.4821         51.5914         51.5914 
       0.570708         70.3345         50.4326         50.4326 
       0.576825         69.6151         49.3133         49.3133 
       0.582926         68.6746         48.2304         48.2304 
       0.589034         67.3892         47.1778         47.1778 
       0.595184         66.4644         46.1493         46.1493 
       0.601379         64.7344         45.1446         45.1446 
       0.607522         63.8139         44.1786         44.1786 
       0.613639         63.0844         43.2457         43.2457 
       0.619772         61.9348         42.3384         42.3384 
       0.625918         60.9482         41.4561         41.4561 
       0.632068         60.3207         40.5991         40.5991 
       0.638161          59.103         39.7743         39.7743 
         0.6443         58.4953         38.9669         38.9669 
       0.650464         57.1519         38.1793         38.1793 
       0.656582         56.8499         37.4194         37.4194 
       0.662703         56.1362         36.6802         36.6802 
       0.668861         54.7974         35.9571         35.9571 
       0.675024         54.4103         35.2531         35.2531 
       0.681124         53.7832         34.5753         34.5753 
       0.687237         52.7021         33.9142         33.9142 
       0.693381         52.0432         33.2676         33.2676 
       0.699536          51.635          32.637          32.637 
       0.705665         50.7231         32.0258         32.0258 
       0.711789         49.9165          31.431          31.431 
       0.717957         49.1078         30.8476         30.8476 
        0.72409         48.6499         30.2824         30.2824 
       0.730186         48.3751         29.7351         29.7351 
       0.736317         47.4683         29.1985         29.1985 
       0.742472         46.9315         28.6733         28.6733 
       0.748622         46.1827         28.1617         28.1617 
        0.75476         45.2864         27.6639         27.6639 
       0.760888         45.2194          27.179          27.179 
       0.767043         44.3922          26.704          26.704 
       0.773185         43.9865         26.2415         26.2415 
       0.779291         43.4297         25.7927         25.7927 
       0.785407         42.7692         25.3539         25.3539 
       0.791564         42.6876         24.9227         24.9227 
       0.797719         41.8819         24.5018         24.5018 
       0.803834         41.5881         24.0935         24.0935 
       0.809972          40.958         23.6931         23.6931 
       0.816124         40.5371         23.3011         23.3011 
       0.822261         40.0635         22.9191         22.9191 
       0.828378         39.7756          22.547          22.547 
       0.834502         39.3183         22.1829         22.1829 
       0.840667         38.9572         21.8246         21.8246 
       0.846816         38.2112         21.4753         21.4753 
       0.852925          38.102          21.136          21.136 
       0.859047         37.7541         20.8034         20.8034 
       0.865192         37.1713         20.4769         20.4769 
       0.871341         36.7658         20.1573         20.1573 
       0.877463         36.4331         19.8461         19.8461 
       0.883569         36.2557         19.5423         19.5423 
       0.889708         35.7691         19.2434         19.2434 
       0.895864         35.3496         18.9501         18.9501 
       0.902008         34.9386         18.6636         18.6636 
       0.908149         34.6472         18.3832         18.3832 
       0.914301         34.4194         18.1083         18.1083 
       0.920448         34.0016         17.8392         17.8392 
       0.926574         33.5567         17.5767         17.5767 
       0.932687          33.281           17.32           17.32 
       0.938823         32.8822         17.0677         17.0677 
       0.944975          32.614         16.8198         16.8198 
       0.951105         32.3253         16.5778         16.5778 
       0.957225         32.1446         16.3411         16.3411 
       0.963368         31.6837         16.1082         16.1082 
       0.969511         31.4389         15.8799         15.8799 
       0.975621         31.1655         15.6573         15.6573 
       0.981748         30.8054         15.4385         15.4385 
       0.987916         30.6225         15.2225         15.2225 
        0.99406         30.2583         15.0114         15.0114 
        1.00019         30.0654         14.8049         14.8049 
        1.00632         29.7978         14.6025         14.6025 
        1.01246         29.5711         14.4036         14.4036 
        1.01859         29.2265         14.2087         14.2087 
        1.02471         28.9602         14.0178         14.0178 
        1.03085         28.8522         13.8298         13.8298 
        1.03698         28.5953         13.6456         13.6456 
        1.04314         28.3005          13.464          13.464 
        1.04929         27.9816         13.2862         13.2862 
        1.05541         27.8772         13.1124         13.1124 
        1.06154         27.6994         12.9413         12.9413 
        1.06769         27.3136          12.773          12.773 
        1.07382         27.1061         12.6083         12.6083 
        1.07993         26.8674         12.4468         12.4468 
        1.08607         26.7148         12.2876         12.2876 
        1.09222         26.4721          12.131          12.131 
        1.09836         26.2514         11.9774         11.9774 
        1.10449         26.0954         11.8266         11.8266 
        1.11063         25.8864         11.6783         11.6783 
        1.11677         25.7949         11.5326         11.5326 
         1.1229         25.5182         11.3897         11.3897 
        1.12903         25.3223         11.2491         11.2491 
        1.13518          25.155         11.1108         11.1108 
        1.14131         24.9682         10.9749         10.9749 
        1.14745         24.6509         10.8414         10.8414 
        1.15359         24.4458         10.7101         10.7101 
        1.15973         24.2891         10.5809         10.5809 
        1.16584         24.1127         10.4545         10.4545 
        1.17197         23.8619           10.33           10.33 
        1.17811         23.7452         10.2071         10.2071 
        1.18424         23.5346         10.0867         10.0867 
        1.19038         23.4315         9.96779         9.96779 
        1.19652         23.2035         9.85091         9.85091 
        1.20267         23.0883         9.73593         9.73593 
        1.20881         22.8786         9.62282         9.62282 
        1.21495         22.7334         9.51171         9.51171 
        1.22108         22.6789         9.40238         9.40238 
         1.2272         22.4901         9.29505         9.29505 
        1.23334         22.3256         9.18917         9.18917 
        1.23949         22.1433          9.0847          9.0847 
        1.24562         21.9213         8.98216         8.98216 
        1.25174         21.8424         8.88137         8.88137 
        1.25789         21.7074         8.78184         8.78184 
        1.26402         21.5863         8.68402         8.68402 
        1.27014         21.4457         8.58794         8.58794 
        1.27628         21.2147         8.49304         8.49304 
        1.28244         21.2057          8.3994          8.3994 
        1.28858         20.9681         8.30731         8.30731 
        1.29471         20.7673         8.21682         8.21682 
        1.30084         20.6439         8.12777         8.12777 
        1.30697         20.5856         8.03991         8.03991 
        1.31312         20.3901         7.95324         7.95324 
        1.31925         20.2814         7.86813         7.86813 
        1.32537         20.1254         7.78436         7.78436 
        1.33151         20.0006         7.70152         7.70152 
        1.33765         19.9312         7.61995         7.61995 
        1.34378         19.8081         7.53972         7.53972 
        1.34992         19.6582         7.46061         7.46061 
        1.35606         19.4927         7.38248         7.38248 
         1.3622         19.3463         7.30561         7.30561 
        1.36833         19.3081         7.23003         7.23003 
        1.37445          19.194         7.15557         7.15557 
        1.38059          19.062         7.08193         7.08193 
        1.38675         18.9159         7.00917         7.00917 
        1.39288          18.779         6.93773         6.93773 
        1.39901         18.6937         6.86732         6.86732 
        1.40515         18.5765         6.79774         6.79774 
         1.4113         18.4722         6.72916         6.72916 
        1.41742         18.3886          6.6618          6.6618 
        1.42355         18.2213         6.59524         6.59524 
         1.4297          18.124          6.5294          6.5294 
        1.43585         18.0308         6.46449         6.46449 
        1.44198         17.9573         6.40071         6.40071 
        1.44809         17.8316         6.33793         6.33793 
        1.45423         17.7161         6.27576         6.27576 
        1.46036         17.6173         6.21455         6.21455 
        1.46649          17.507         6.15414         6.15414 
        1.47263         17.4297         6.09449         6.09449 
        1.47877         17.3389         6.03566         6.03566 
        1.48491         17.2253         5.97753         5.97753 
        1.49104         17.1157         5.92029         5.92029 
        1.49718         17.0425         5.86376         5.86376 
        1.50333         16.9576         5.80789         5.80789 
        1.50947          16.864         5.75286         5.75286 
         1.5156         16.7736         5.69864         5.69864 
        1.52172         16.6552         5.64512         5.64512 
        1.52787         16.5773         5.59218         5.59218 
          1.534         16.5138            5.54            5.54 
        1.54013         16.4271         5.48853         5.48853 
        1.54627         16.2941         5.43763         5.43763 
        1.55241         16.1862         5.38737         5.38737 
        1.55855         16.1362         5.33783         5.33783 
        1.56467         16.0712         5.28904         5.28904 
         1.5708         15.9948         5.24074         5.24074 
        1.57695         15.8854         5.19296         5.19296 
        1.58308         15.7624          5.1459          5.1459 
        1.58922         15.7107         5.09939         5.09939 
        1.59535         15.6165         5.05348         5.05348 
         1.6015         15.4922         5.00808         5.00808 
        1.60764         15.4428         4.96325         4.96325 
        1.61376          15.391         4.91911         4.91911 
        1.61989         15.2689         4.87547         4.87547 
        1.62604         15.2305         4.83227         4.83227 
        1.63218         15.1573         4.78962         4.78962 
        1.63831         15.0387         4.74758         4.74758 
        1.64444          14.961         4.70604         4.70604 
        1.65059         14.8777         4.66491         4.66491 
        1.65673         14.8412         4.62431         4.62431 
        1.66285         14.7241         4.58431         4.58431 
        1.66898         14.6991         4.54477         4.54477 
        1.67512         14.6361         4.50563         4.50563 
        1.68127         14.5045         4.46692         4.46692 
         1.6874         14.4804         4.42875         4.42875 
        1.69353         14.3504         4.39105         4.39105 
        1.69967         14.2963         4.35371         4.35371 
        1.70581         14.2489         4.31682         4.31682 
        1.71193         14.1647         4.28049         4.28049 
        1.71806         14.1162         4.24452         4.24452 
        1.72421          14.025         4.20888         4.20888 
        1.73035         13.9562          4.1737          4.1737 
        1.73649         13.9185         4.13893         4.13893 
        1.74262         13.7882         4.10459         4.10459 
        1.74876         13.7727         4.07062         4.07062 
        1.75489         13.7086         4.03711         4.03711 
        1.76101         13.6127         4.00398         4.00398 
        1.76715         13.5702         3.97119         3.97119 
        1.77329         13.4991         3.93873         3.93873 
        1.77943         13.4071         3.90661         3.90661 
        1.78557         13.3936         3.87491         3.87491 
        1.79171         13.3002         3.84355         3.84355 
        1.79785         13.2685         3.81254         3.81254 
        1.80399         13.1669         3.78188         3.78188 
        1.81012         13.1363          3.7516          3.7516 
        1.81625         13.0402         3.72166         3.72166 
        1.82239         12.9863         3.69201         3.69201 
        1.82853         12.9251          3.6627          3.6627 
        1.83466         12.8419         3.63374         3.63374 
        1.84078         12.8201         3.60513         3.60513 
        1.84692         12.7856         3.57677         3.57677 
        1.85306         12.7134         3.54869         3.54869 
         1.8592         12.6622         3.52096         3.52096 
        1.86533         12.5663         3.49354         3.49354 
        1.87147         12.5144         3.46639         3.46639 
