# k  (h/Mpc)    P(k)  (Mpc/h)^3    P_linear(k)  (Mpc/h)^3     P_NL(k)  ShotnoiseSubtracted = false
     0.00783031         2328.28         2343.47         2343.47 
       0.013688         2924.62         2963.86         2963.86 
       0.019231         3036.65         3055.37         3055.37 
      0.0249154         2880.94         2877.85         2877.85 
      0.0312784         2544.19         2549.79         2549.79 
      0.0375637         2213.74         2224.92         2224.92 
      0.0433917         1981.11         1979.38         1979.38 
      0.0492413         1790.41         1796.36         1796.36 
      0.0555754         1655.06          1652.9          1652.9 
      0.0619321         1517.43         1537.34         1537.34 
       0.067871          1424.9         1432.01         1432.01 
      0.0738098         1314.57         1317.75         1317.75 
      0.0800417         1190.11         1188.97         1188.97 
      0.0862327         1060.41         1061.87         1061.87 
      0.0921407         951.721         952.568         952.568 
      0.0982031         865.118         860.422         860.422 
       0.104506         785.662         788.227         788.227 
       0.110769          735.21         736.496         736.496 
       0.116806         703.789         698.465         698.465 
       0.122832         663.993         664.612         664.612 
       0.129052         630.213         628.034         628.034 
       0.135211         594.171         587.604         587.604 
       0.141259         548.342         544.806         544.806 
       0.147318         502.306         502.007         502.007 
       0.153489         466.254         462.131         462.131 
       0.159709         436.534         428.352         428.352 
       0.165845         403.909         402.055         402.055 
       0.171974         391.171         381.755         381.755 
       0.178125         374.491         365.269         365.269 
       0.184229         355.028         350.415         350.415 
        0.19034         343.531         335.204         335.204 
       0.196428         327.687         318.838         318.838 
       0.202534         305.734         301.364         301.364 
       0.208729         293.034         283.466         283.466 
       0.214876         278.881         266.678         266.678 
       0.220989         259.381         251.834         251.834 
       0.227147         251.765          239.14          239.14 
        0.23329         241.822         228.584         228.584 
       0.239377         234.214         219.654         219.654 
       0.245482         223.891         211.524         211.524 
       0.251667         214.463         203.504         203.504 
       0.257832         209.849         195.343         195.343 
       0.263955         198.545         187.002         187.002 
       0.270079         190.393         178.619         178.619 
        0.27624         181.267         170.454         170.454 
       0.282372         174.793         162.897         162.897 
        0.28843         171.622          156.16          156.16 
       0.294538         164.121         150.118         150.118 
       0.300721          157.23          144.66          144.66 
        0.30691          154.19         139.649         139.649 
       0.313033         148.182         134.939         134.939 
       0.319153         145.382         130.322         130.322 
       0.325316         139.147         125.703         125.703 
        0.33145         134.561         121.146         121.146 
       0.337538         130.263         116.738         116.738 
       0.343633           126.2          112.52          112.52 
       0.349808         122.059         108.515         108.515 
       0.355968         118.399         104.817         104.817 
       0.362074         116.002         101.423         101.423 
       0.368217           112.9         98.2406         98.2406 
       0.374374         110.446         95.2169         95.2169 
       0.380519         105.783         92.3115         92.3115 
       0.386598         103.011         89.5146         89.5146 
       0.392688         99.9944         86.7746         86.7746 
        0.39888         98.0595         84.0649         84.0649 
       0.405048         95.6666         81.4603         81.4603 
       0.411186         93.3077         78.9807         78.9807 
       0.417313         90.7403         76.6326         76.6326 
       0.423458         88.2903         74.4038         74.4038 
       0.429607         86.7327         72.2887         72.2887 
       0.435692         85.2065         70.2955         70.2955 
       0.441815         82.1948         68.3703         68.3703 
       0.447964          79.711         66.5017         66.5017 
       0.454126         78.2994         64.6871         64.6871 
       0.460267         77.5653         62.9343         62.9343 
       0.466387         75.4654         61.2425         61.2425 
        0.47254         74.4071          59.601          59.601 
       0.478662         71.9312         58.0318         58.0318 
       0.484765         70.5859          56.532          56.532 
       0.490885         68.6949         55.0889         55.0889 
       0.497035         67.8547         53.6961         53.6961 
       0.503198          66.216         52.3538         52.3538 
       0.509342         64.5092         51.0625         51.0625 
       0.515458         63.6966         49.8184         49.8184 
       0.521598         62.1696         48.6075         48.6075 
       0.527764         61.3908         47.4293         47.4293 
       0.533884          60.274         46.2977         46.2977 
           0.54         58.9029         45.2044         45.2044 
       0.546137         57.2181         44.1439         44.1439 
       0.552299         56.3173         43.1152         43.1152 
       0.558452         55.1797         42.1233         42.1233 
       0.564573         54.7701         41.1697         41.1697 
       0.570708         53.1942          40.245          40.245 
       0.576825         52.5968         39.3519         39.3519 
       0.582926         51.7923         38.4877         38.4877 
       0.589034           50.79         37.6477         37.6477 
       0.595184         50.0904          36.827          36.827 
       0.601379         48.7585         36.0252         36.0252 
       0.607522         48.0497         35.2543         35.2543 
       0.613639         47.3969         34.5099         34.5099 
       0.619772         46.5486         33.7859         33.7859 
       0.625918         45.6979         33.0818         33.0818 
       0.632068         45.2976         32.3979         32.3979 
       0.638161         44.3489         31.7397         31.7397 
         0.6443         43.7838         31.0954         31.0954 
       0.650464         42.7264         30.4669         30.4669 
       0.656582         42.4761         29.8605         29.8605 
       0.662703          41.958         29.2707         29.2707 
       0.668861         40.9051         28.6936         28.6936 
       0.675024         40.5064         28.1318         28.1318 
       0.681124         40.1336         27.5909         27.5909 
       0.687237         39.3309         27.0634         27.0634 
       0.693381         38.6754         26.5474         26.5474 
       0.699536         38.4395         26.0442         26.0442 
       0.705665          37.731         25.5565         25.5565 
       0.711789           37.09         25.0818         25.0818 
       0.717957         36.4085         24.6162         24.6162 
        0.72409         36.0778         24.1652         24.1652 
       0.730186         35.8886         23.7285         23.7285 
       0.736317         35.1837         23.3003         23.3003 
       0.742472         34.7661         22.8812         22.8812 
       0.748622         34.1978          22.473          22.473 
        0.75476         33.4231         22.0757         22.0757 
       0.760888         33.3522         21.6888         21.6888 
       0.767043         32.7697         21.3097         21.3097 
       0.773185         32.4574         20.9406         20.9406 
       0.779291         32.0733         20.5825         20.5825 
       0.785407         31.5618         20.2323         20.2323 
       0.791564         31.4196         19.8882         19.8882 
       0.797719         30.7651         19.5524         19.5524 
       0.803834         30.6029         19.2265         19.2265 
       0.809972         30.0654          18.907          18.907 
       0.816124         29.7467         18.5942         18.5942 
       0.822261          29.418         18.2894         18.2894 
       0.828378         29.1455         17.9924         17.9924 
       0.834502         28.8335         17.7019         17.7019 
       0.840667         28.5412          17.416          17.416 
       0.846816         27.9391         17.1372         17.1372 
       0.852925         27.8695         16.8665         16.8665 
       0.859047          27.558          16.601          16.601 
       0.865192         27.1572         16.3405         16.3405 
       0.871341         26.8362         16.0855         16.0855 
       0.877463         26.5668         15.8371         15.8371 
       0.883569         26.4235         15.5947         15.5947 
       0.889708         26.0187         15.3562         15.3562 
       0.895864         25.7012         15.1221         15.1221 
       0.902008         25.3928         14.8935         14.8935 
       0.908149         25.1302         14.6698         14.6698 
       0.914301         24.9953         14.4503         14.4503 
       0.920448         24.6324         14.2356         14.2356 
       0.926574         24.3862         14.0261         14.0261 
       0.932687          24.119         13.8213         13.8213 
       0.938823         23.8212         13.6199         13.6199 
       0.944975         23.6287         13.4221         13.4221 
       0.951105         23.3952          13.229          13.229 
       0.957225         23.2577         13.0401         13.0401 
       0.963368         22.8911         12.8543         12.8543 
       0.969511         22.6944         12.6721         12.6721 
       0.975621         22.4893         12.4945         12.4945 
       0.981748          22.215         12.3198         12.3198 
       0.987916         22.0801         12.1475         12.1475 
        0.99406         21.8167         11.9791         11.9791 
        1.00019          21.659         11.8143         11.8143 
        1.00632         21.4634         11.6527         11.6527 
        1.01246         21.2883          11.494          11.494 
        1.01859         21.0179         11.3385         11.3385 
        1.02471         20.8148         11.1862         11.1862 
        1.03085         20.7317         11.0361         11.0361 
        1.03698          20.536         10.8891         10.8891 
        1.04314         20.2885         10.7442         10.7442 
        1.04929          20.053         10.6024         10.6024 
        1.05541         19.9735         10.4636         10.4636 
        1.06154         19.8229         10.3271         10.3271 
        1.06769         19.5996         10.1928         10.1928 
        1.07382          19.362         10.0613         10.0613 
        1.07993         19.2055         9.93253         9.93253 
        1.08607         19.1094         9.80547         9.80547 
        1.09222         18.8895         9.68052         9.68052 
        1.09836         18.7746         9.55792         9.55792 
        1.10449         18.5887         9.43761         9.43761 
        1.11063         18.4821         9.31926         9.31926 
        1.11677          18.375           9.203           9.203 
         1.1229         18.1836         9.08894         9.08894 
        1.12903         18.0418         8.97674         8.97674 
        1.13518         17.8521         8.86636         8.86636 
        1.14131         17.7522         8.75792         8.75792 
        1.14745         17.5034         8.65138         8.65138 
        1.15359         17.3634          8.5466          8.5466 
        1.15973         17.2337         8.44354         8.44354 
        1.16584         17.0996         8.34265         8.34265 
        1.17197         16.9375         8.24328         8.24328 
        1.17811         16.8257         8.14525         8.14525 
        1.18424         16.7038         8.04911         8.04911 
        1.19038         16.6133         7.95426         7.95426 
        1.19652         16.4435         7.86099         7.86099 
        1.20267         16.3476         7.76923         7.76923 
        1.20881         16.1688         7.67897         7.67897 
        1.21495         16.0628         7.59031         7.59031 
        1.22108         16.0142         7.50307         7.50307 
         1.2272         15.8707         7.41742         7.41742 
        1.23334         15.7662         7.33292         7.33292 
        1.23949         15.6277         7.24956         7.24956 
        1.24562         15.4781         7.16773         7.16773 
        1.25174         15.4099          7.0873          7.0873 
        1.25789         15.2635         7.00787         7.00787 
        1.26402         15.1989         6.92981         6.92981 
        1.27014         15.1111         6.85314         6.85314 
        1.27628          14.921         6.77741         6.77741 
        1.28244         14.9138         6.70269         6.70269 
        1.28858         14.7526         6.62921         6.62921 
        1.29471         14.5728         6.55699         6.55699 
        1.30084         14.4923         6.48593         6.48593 
        1.30697         14.4715         6.41582         6.41582 
        1.31312          14.317         6.34666         6.34666 
        1.31925         14.2424         6.27874         6.27874 
        1.32537         14.1316         6.21189         6.21189 
        1.33151         14.0361         6.14578         6.14578 
        1.33765         13.9483         6.08069         6.08069 
        1.34378         13.8977         6.01667         6.01667 
        1.34992         13.7611         5.95354         5.95354 
        1.35606         13.6418         5.89119         5.89119 
         1.3622         13.5408         5.82985         5.82985 
        1.36833         13.5069         5.76954         5.76954 
        1.37445         13.4251         5.71012         5.71012 
        1.38059         13.3333         5.65136         5.65136 
        1.38675         13.2358         5.59329         5.59329 
        1.39288         13.1084         5.53628         5.53628 
        1.39901         13.0547          5.4801          5.4801 
        1.40515         12.9571         5.42457         5.42457 
         1.4113         12.8695         5.36985         5.36985 
        1.41742         12.8184         5.31609         5.31609 
        1.42355         12.6914         5.26298         5.26298 
         1.4297         12.6392         5.21043         5.21043 
        1.43585         12.5699         5.15864         5.15864 
        1.44198         12.5027         5.10774         5.10774 
        1.44809         12.4132         5.05764         5.05764 
        1.45423         12.3189         5.00803         5.00803 
        1.46036         12.2553         4.95919         4.95919 
        1.46649         12.1745         4.91098         4.91098 
        1.47263         12.1196         4.86338         4.86338 
        1.47877         12.0369         4.81644         4.81644 
        1.48491         11.9708         4.77004         4.77004 
        1.49104         11.8775         4.72437         4.72437 
        1.49718         11.8347         4.67926         4.67926 
        1.50333          11.758         4.63467         4.63467 
        1.50947         11.6821         4.59076         4.59076 
         1.5156         11.6397         4.54749         4.54749 
        1.52172         11.5512         4.50478         4.50478 
        1.52787         11.4926         4.46254         4.46254 
          1.534         11.4322          4.4209          4.4209 
        1.54013         11.3728         4.37983         4.37983 
        1.54627         11.2896         4.33921         4.33921 
        1.55241         11.1999         4.29911         4.29911 
        1.55855         11.1789         4.25957         4.25957 
        1.56467         11.1065         4.22064         4.22064 
         1.5708         11.0573         4.18209         4.18209 
        1.57695         10.9726         4.14397         4.14397 
        1.58308         10.8925         4.10641         4.10641 
        1.58922         10.8606          4.0693          4.0693 
        1.59535         10.7888         4.03266         4.03266 
         1.6015         10.6905         3.99643         3.99643 
        1.60764         10.6586         3.96066         3.96066 
        1.61376         10.6219         3.92543         3.92543 
        1.61989         10.5286         3.89061         3.89061 
        1.62604         10.5061         3.85613         3.85613 
        1.63218         10.4549          3.8221          3.8221 
        1.63831         10.3737         3.78855         3.78855 
        1.64444         10.3014          3.7554          3.7554 
        1.65059         10.2438         3.72258         3.72258 
        1.65673         10.2216         3.69018         3.69018 
        1.66285         10.1532         3.65826         3.65826 
        1.66898         10.1151         3.62671         3.62671 
        1.67512          10.055         3.59548         3.59548 
        1.68127         9.96796         3.56459         3.56459 
         1.6874         9.94993         3.53413         3.53413 
        1.69353         9.87504         3.50404         3.50404 
        1.69967         9.83564         3.47424         3.47424 
        1.70581         9.77783          3.4448          3.4448 
        1.71193         9.75081         3.41582         3.41582 
        1.71806         9.69523         3.38711         3.38711 
        1.72421         9.62485         3.35867         3.35867 
        1.73035         9.58534          3.3306          3.3306 
        1.73649           9.553         3.30285         3.30285 
        1.74262          9.4527         3.27545         3.27545 
        1.74876          9.4613         3.24834         3.24834 
        1.75489         9.39999          3.2216          3.2216 
        1.76101         9.32981         3.19517         3.19517 
        1.76715         9.31155           3.169           3.169 
        1.77329         9.26218         3.14309         3.14309 
        1.77943         9.18644         3.11746         3.11746 
        1.78557         9.18581         3.09216         3.09216 
        1.79171         9.12696         3.06714         3.06714 
        1.79785         9.09672         3.04239         3.04239 
        1.80399         9.01299         3.01792         3.01792 
        1.81012         8.99277         2.99376         2.99376 
        1.81625         8.92596         2.96987         2.96987 
        1.82239         8.88947         2.94621         2.94621 
        1.82853         8.83811         2.92282         2.92282 
        1.83466         8.77931         2.89971         2.89971 
        1.84078         8.76584         2.87688         2.87688 
        1.84692         8.72726         2.85425         2.85425 
        1.85306         8.68526         2.83185         2.83185 
         1.8592          8.6563         2.80971         2.80971 
        1.86533         8.60661         2.78783         2.78783 
        1.87147          8.5556         2.76616         2.76616 
        1.87761         8.53005         2.74471         2.74471 
