# k  (h/Mpc)    Pcb(k)  (Mpc/h)^3    Pcb_linear(k) (Mpc/h)^3    Pcb_NL(k) (Mpc/h)^3   ShotnoiseSubtracted = false
     0.00783031         15249.5         15325.3         15325.3 
       0.013688         18937.7         19463.9         19463.9 
       0.019231         19750.3         20082.7         20082.7 
      0.0249154         18917.9           18922           18922 
      0.0312784         16532.8         16767.7         16767.7 
      0.0375637         14298.3         14632.4         14632.4 
      0.0433917         12866.5           13018           13018 
      0.0492413           11566         11814.6         11814.6 
      0.0555754         10700.6         10871.3         10871.3 
      0.0619321         9633.92         10111.3         10111.3 
       0.067871         9101.41         9418.58         9418.58 
      0.0738098         8463.18         8667.16         8667.16 
      0.0800417         7662.77         7820.16         7820.16 
      0.0862327         6836.97          6984.2          6984.2 
      0.0921407         6186.58          6265.3          6265.3 
      0.0982031         5682.09         5659.24         5659.24 
       0.104506         5136.32          5184.4          5184.4 
       0.110769         4819.24         4844.15         4844.15 
       0.116806         4641.23         4594.02         4594.02 
       0.122832         4372.05         4371.35         4371.35 
       0.129052         4122.48         4130.77         4130.77 
       0.135211         3967.78         3864.85         3864.85 
       0.141259         3651.06         3583.36         3583.36 
       0.147318         3367.56         3301.86         3301.86 
       0.153489         3170.55         3039.58         3039.58 
       0.159709         3050.47          2817.4          2817.4 
       0.165845         2804.45         2644.44         2644.44 
       0.171974         2742.94         2510.92         2510.92 
       0.178125         2667.46         2402.49         2402.49 
       0.184229         2465.19         2304.79         2304.79 
        0.19034         2428.25         2204.74         2204.74 
       0.196428         2355.38          2097.1          2097.1 
       0.202534         2211.61         1982.17         1982.17 
       0.208729         2161.27         1864.44         1864.44 
       0.214876          2063.7         1754.02         1754.02 
       0.220989         1966.03         1656.39         1656.39 
       0.227147         1915.11          1572.9          1572.9 
        0.23329          1843.7         1503.47         1503.47 
       0.239377         1835.48         1444.73         1444.73 
       0.245482         1753.69         1391.26         1391.26 
       0.251667         1689.95         1338.51         1338.51 
       0.257832         1663.27         1284.83         1284.83 
       0.263955         1590.22         1229.97         1229.97 
       0.270079         1550.99         1174.83         1174.83 
        0.27624          1486.4         1121.13         1121.13 
       0.282372         1470.96         1071.43         1071.43 
        0.28843         1443.36         1027.11         1027.11 
       0.294538         1380.86         987.378         987.378 
       0.300721         1356.86         951.474         951.474 
        0.30691         1323.56         918.516         918.516 
       0.313033         1275.84         887.535         887.535 
       0.319153          1263.2          857.17          857.17 
       0.325316         1247.67         826.788         826.788 
        0.33145         1220.69         796.818         796.818 
       0.337538          1182.6         767.821         767.821 
       0.343633         1155.84         740.082         740.082 
       0.349808          1136.4         713.736         713.736 
       0.355968         1113.11         689.411         689.411 
       0.362074         1081.53         667.094         667.094 
       0.368217         1078.29          646.16          646.16 
       0.374374         1062.03         626.272         626.272 
       0.380519         1026.37         607.162         607.162 
       0.386598         1021.79         588.765         588.765 
       0.392688         996.173         570.744         570.744 
        0.39888         976.943         552.921         552.921 
       0.405048         958.152          535.79          535.79 
       0.411186         955.013         519.481         519.481 
       0.417313         950.815         504.037         504.037 
       0.423458         922.255         489.377         489.377 
       0.429607         898.186         475.465         475.465 
       0.435692         891.155         462.355         462.355 
       0.441815         874.486         449.693         449.693 
       0.447964         864.549         437.403         437.403 
       0.454126         853.547         425.468         425.468 
       0.460267         843.234         413.939         413.939 
       0.466387         829.263         402.811         402.811 
        0.47254         815.747         392.014         392.014 
       0.478662          805.49         381.694         381.694 
       0.484765         796.746         371.828         371.828 
       0.490885         788.549         362.337         362.337 
       0.497035         774.042         353.176         353.176 
       0.503198         772.904         344.347         344.347 
       0.509342         758.759         335.854         335.854 
       0.515458         743.896         327.672         327.672 
       0.521598          742.58         319.707         319.707 
       0.527764         725.387         311.958         311.958 
       0.533884         718.364         304.515         304.515 
           0.54         713.104         297.324         297.324 
       0.546137         703.511         290.349         290.349 
       0.552299         698.718         283.582         283.582 
       0.558452           690.8         277.058         277.058 
       0.564573         686.199         270.786         270.786 
       0.570708         679.038         264.704         264.704 
       0.576825         665.271         258.829         258.829 
       0.582926         663.733         253.146         253.146 
       0.589034         655.083         247.621         247.621 
       0.595184         648.212         242.223         242.223 
       0.601379         638.331         236.949         236.949 
       0.607522         629.241         231.879         231.879 
       0.613639         628.366         226.983         226.983 
       0.619772         623.315         222.221         222.221 
       0.625918         613.493          217.59          217.59 
       0.632068         610.799         213.091         213.091 
       0.638161         602.609         208.762         208.762 
         0.6443         596.523         204.524         204.524 
       0.650464         591.791         200.391         200.391 
       0.656582         587.178         196.402         196.402 
       0.662703         580.175         192.522         192.522 
       0.668861         573.943         188.727         188.727 
       0.675024         570.713         185.032         185.032 
       0.681124         560.212         181.474         181.474 
       0.687237         560.504         178.005         178.005 
       0.693381         550.909         174.611         174.611 
       0.699536          551.87         171.301         171.301 
       0.705665         543.708         168.093         168.093 
       0.711789         542.518         164.971         164.971 
       0.717957         535.332         161.909         161.909 
        0.72409         530.807         158.942         158.942 
       0.730186         529.568          156.07          156.07 
       0.736317         522.146         153.253         153.253 
       0.742472         516.352         150.497         150.497 
       0.748622         514.726         147.812         147.812 
        0.75476         508.252         145.199         145.199 
       0.760888         505.829         142.654         142.654 
       0.767043         503.155         140.161         140.161 
       0.773185         499.078         137.733         137.733 
       0.779291         493.626         135.377         135.377 
       0.785407         489.679         133.074         133.074 
       0.791564         487.228         130.811         130.811 
       0.797719         479.782         128.602         128.602 
       0.803834          480.88         126.459         126.459 
       0.809972         473.383         124.357         124.357 
       0.816124           469.9           122.3           122.3 
       0.822261         467.309         120.295         120.295 
       0.828378         464.933         118.342         118.342 
       0.834502         457.701         116.431         116.431 
       0.840667         457.062          114.55          114.55 
       0.846816         451.802         112.717         112.717 
       0.852925         451.536         110.936         110.936 
       0.859047         446.617          109.19          109.19 
       0.865192          444.13         107.477         107.477 
       0.871341         438.493         105.799         105.799 
       0.877463         437.587         104.166         104.166 
       0.883569         433.216         102.571         102.571 
       0.889708         428.713         101.002         101.002 
       0.895864         424.334         99.4629         99.4629 
       0.902008         423.726          97.959          97.959 
       0.908149         419.605         96.4876         96.4876 
       0.914301         418.193         95.0443         95.0443 
       0.920448         413.071         93.6323         93.6323 
       0.926574         410.958         92.2542         92.2542 
       0.932687         409.801         90.9072         90.9072 
       0.938823         404.665         89.5826         89.5826 
       0.944975         403.369         88.2816         88.2816 
       0.951105         399.951         87.0115         87.0115 
       0.957225         394.668         85.7688         85.7688 
       0.963368         395.346         84.5465         84.5465 
       0.969511         389.252         83.3483         83.3483 
       0.975621         387.716           82.18           82.18 
       0.981748         385.903         81.0313         81.0313 
       0.987916          383.45         79.8976         79.8976 
        0.99406         379.413         78.7901         78.7901 
        1.00019         375.883         77.7061         77.7061 
        1.00632         374.989         76.6436         76.6436 
        1.01246         371.878         75.5996         75.5996 
        1.01859         368.359          74.577          74.577 
        1.02471         366.505         73.5748         73.5748 
        1.03085         364.545         72.5878         72.5878 
        1.03698         362.491         71.6212         71.6212 
        1.04314         359.934         70.6682         70.6682 
        1.04929         358.207          69.735          69.735 
        1.05541         353.666         68.8226         68.8226 
        1.06154         352.065         67.9245         67.9245 
        1.06769         348.916         67.0411         67.0411 
        1.07382         346.352         66.1766         66.1766 
        1.07993         345.523         65.3294         65.3294 
        1.08607         343.134         64.4936         64.4936 
        1.09222         339.962         63.6718         63.6718 
        1.09836         338.292         62.8654         62.8654 
        1.10449         335.639         62.0741         62.0741 
        1.11063         334.116         61.2956         61.2956 
        1.11677         330.083          60.531          60.531 
         1.1229         329.382         59.7808         59.7808 
        1.12903         326.361         59.0428         59.0428 
        1.13518         324.439         58.3168         58.3168 
        1.14131         322.834         57.6036         57.6036 
        1.14745         319.351         56.9028         56.9028 
        1.15359         316.943         56.2136         56.2136 
        1.15973         315.504         55.5357         55.5357 
        1.16584         313.942         54.8722         54.8722 
        1.17197         311.572         54.2186         54.2186 
        1.17811         308.181         53.5738         53.5738 
        1.18424         307.256         52.9415         52.9415 
        1.19038         305.477         52.3176         52.3176 
        1.19652         302.119         51.7042         51.7042 
        1.20267         301.344         51.1007         51.1007 
        1.20881         299.492          50.507          50.507 
        1.21495         296.821         49.9238         49.9238 
        1.22108         295.584           49.35           49.35 
         1.2272         291.424         48.7866         48.7866 
        1.23334          290.62         48.2309         48.2309 
        1.23949         288.698         47.6826         47.6826 
        1.24562         287.694         47.1444         47.1444 
        1.25174         285.444         46.6154         46.6154 
        1.25789         282.968         46.0929         46.0929 
        1.26402         281.826         45.5795         45.5795 
        1.27014         280.304         45.0752         45.0752 
        1.27628         277.952         44.5771         44.5771 
        1.28244         275.648         44.0857         44.0857 
        1.28858         274.691         43.6023         43.6023 
        1.29471         272.947         43.1274         43.1274 
        1.30084         271.996           42.66           42.66 
        1.30697         268.778         42.1988         42.1988 
        1.31312         267.223         41.7439         41.7439 
        1.31925         265.901         41.2972         41.2972 
        1.32537         264.765         40.8575         40.8575 
        1.33151         262.037         40.4227         40.4227 
        1.33765         259.952         39.9946         39.9946 
        1.34378         258.985         39.5735         39.5735 
        1.34992         256.317         39.1583         39.1583 
        1.35606         255.103         38.7482         38.7482 
         1.3622         253.307         38.3447         38.3447 
        1.36833         252.562          37.948          37.948 
        1.37445         251.404         37.5572         37.5572 
        1.38059         248.204         37.1707         37.1707 
        1.38675         246.938         36.7888         36.7888 
        1.39288         246.055         36.4138         36.4138 
        1.39901         243.717         36.0443         36.0443 
        1.40515         242.633         35.6791         35.6791 
         1.4113         240.756         35.3191         35.3191 
        1.41742          238.78         34.9656         34.9656 
        1.42355         238.275         34.6162         34.6162 
         1.4297         236.255         34.2706         34.2706 
        1.43585         234.416         33.9299         33.9299 
        1.44198         233.067         33.5952         33.5952 
        1.44809         231.912         33.2657         33.2657 
        1.45423         230.406         32.9394         32.9394 
        1.46036         229.394         32.6181         32.6181 
        1.46649         227.669          32.301          32.301 
        1.47263         225.847         31.9879         31.9879 
        1.47877         224.506         31.6792         31.6792 
        1.48491         222.776          31.374          31.374 
        1.49104           220.9         31.0736         31.0736 
        1.49718         220.194         30.7769         30.7769 
        1.50333          218.22         30.4837         30.4837 
        1.50947         217.154         30.1949         30.1949 
         1.5156         215.791         29.9103         29.9103 
        1.52172         214.351         29.6293         29.6293 
        1.52787         212.704         29.3515         29.3515 
          1.534         212.405         29.0776         29.0776 
        1.54013         210.348         28.8075         28.8075 
        1.54627         209.153         28.5403         28.5403 
        1.55241         208.099         28.2765         28.2765 
        1.55855         206.673         28.0165         28.0165 
        1.56467         205.472         27.7604         27.7604 
         1.5708         203.851         27.5069         27.5069 
        1.57695         202.957         27.2561         27.2561 
        1.58308         201.799         27.0091         27.0091 
        1.58922         200.019          26.765          26.765 
        1.59535         198.567          26.524          26.524 
         1.6015         197.831         26.2857         26.2857 
        1.60764         196.172         26.0505         26.0505 
        1.61376         194.757         25.8188         25.8188 
        1.61989         193.475         25.5897         25.5897 
        1.62604         192.502         25.3629         25.3629 
        1.63218         191.097         25.1391         25.1391 
        1.63831         190.458         24.9185         24.9185 
        1.64444         188.642         24.7004         24.7004 
        1.65059          187.77         24.4845         24.4845 
        1.65673         186.505         24.2714         24.2714 
        1.66285         185.398         24.0615         24.0615 
        1.66898         184.269          23.854          23.854 
        1.67512         183.014         23.6486         23.6486 
        1.68127         182.088         23.4454         23.4454 
         1.6874         180.714          23.245          23.245 
        1.69353          180.07         23.0472         23.0472 
        1.69967         178.527         22.8512         22.8512 
        1.70581         177.784         22.6575         22.6575 
        1.71193          176.45         22.4669         22.4669 
        1.71806         174.939          22.278          22.278 
        1.72421         174.167          22.091          22.091 
        1.73035         172.944         21.9064         21.9064 
        1.73649         171.581         21.7239         21.7239 
        1.74262         170.857         21.5436         21.5436 
        1.74876         169.884         21.3653         21.3653 
        1.75489         169.086         21.1894         21.1894 
        1.76101         167.913         21.0156         21.0156 
        1.76715         166.701         20.8434         20.8434 
        1.77329         165.378          20.673          20.673 
        1.77943         164.381         20.5045         20.5045 
        1.78557         163.418         20.3381         20.3381 
        1.79171         162.792         20.1735         20.1735 
        1.79785         161.448         20.0107         20.0107 
        1.80399         160.527         19.8498         19.8498 
        1.81012         159.942         19.6909         19.6909 
        1.81625          158.24         19.5338         19.5338 
        1.82239         157.779         19.3781         19.3781 
        1.82853         156.781         19.2243         19.2243 
        1.83466         155.288         19.0723         19.0723 
        1.84078         154.736         18.9221         18.9221 
        1.84692         153.967         18.7733         18.7733 
        1.85306         152.674         18.6259         18.6259 
         1.8592         152.083         18.4803         18.4803 
        1.86533         150.535         18.3364         18.3364 
        1.87147         149.719         18.1939         18.1939 
