# k  (h/Mpc)    P(k)  (Mpc/h)^3    P_linear(k)  (Mpc/h)^3     P_NL(k)  ShotnoiseSubtracted = false
     0.00783031         1662.53          1673.8          1673.8 
       0.013688         2091.67         2117.09         2117.09 
       0.019231         2170.88         2182.53         2182.53 
      0.0249154          2057.4         2055.76         2055.76 
      0.0312784         1818.54         1821.44         1821.44 
      0.0375637         1583.29         1589.38         1589.38 
      0.0433917         1415.83         1413.98         1413.98 
      0.0492413         1280.29         1283.25         1283.25 
      0.0555754         1182.85         1180.77         1180.77 
      0.0619321         1086.69         1098.22         1098.22 
       0.067871          1019.3         1022.97         1022.97 
      0.0738098         939.879         941.358         941.358 
      0.0800417         850.585          849.36          849.36 
      0.0862327         758.063         758.565         758.565 
      0.0921407         680.106         680.483         680.483 
      0.0982031         617.602         614.657         614.657 
       0.104506         561.442         563.084         563.084 
       0.110769         525.217         526.129         526.129 
       0.116806         502.051         498.962         498.962 
       0.122832         474.186         474.778         474.778 
       0.129052          449.91         448.648         448.648 
       0.135211         423.465         419.766         419.766 
       0.141259         391.008         389.193         389.193 
       0.147318         358.408         358.618         358.618 
       0.153489         332.203         330.132         330.132 
       0.159709         310.267         306.001         306.001 
       0.165845         287.645         287.216         287.216 
       0.171974         277.733         272.714         272.714 
       0.178125         265.708         260.937         260.937 
       0.184229         252.523         250.326         250.326 
        0.19034         243.931          239.46          239.46 
       0.196428         232.342         227.768         227.768 
       0.202534         217.106         215.286         215.286 
       0.208729         207.357         202.499         202.499 
       0.214876         197.047         190.506         190.506 
       0.220989         183.464         179.902         179.902 
       0.227147         177.571         170.835         170.835 
        0.23329         170.373         163.294         163.294 
       0.239377         164.647         156.914         156.914 
       0.245482         157.637         151.106         151.106 
       0.251667         150.955         145.377         145.377 
       0.257832         147.227         139.547         139.547 
       0.263955         139.551         133.589         133.589 
       0.270079          133.68           127.6           127.6 
        0.27624         127.184         121.768         121.768 
       0.282372         122.368         116.369         116.369 
        0.28843          119.66         111.556         111.556 
       0.294538         114.585          107.24          107.24 
       0.300721         109.717         103.341         103.341 
        0.30691          107.37         99.7612         99.7612 
       0.313033         103.291         96.3963         96.3963 
       0.319153         101.234         93.0982         93.0982 
       0.325316         96.6025         89.7985         89.7985 
        0.33145         93.3036         86.5434         86.5434 
       0.337538         90.3414         83.3939         83.3939 
       0.343633         87.5329         80.3812         80.3812 
       0.349808         84.5323         77.5198         77.5198 
       0.355968         81.8248         74.8778         74.8778 
       0.362074         80.1043         72.4538         72.4538 
       0.368217         77.7849         70.1802         70.1802 
       0.374374         76.1157         68.0201         68.0201 
       0.380519         72.9391         65.9446         65.9446 
       0.386598         70.8547         63.9466         63.9466 
       0.392688         68.7213         61.9892         61.9892 
        0.39888         67.3113         60.0534         60.0534 
       0.405048         65.5961         58.1928         58.1928 
       0.411186         63.7906         56.4215         56.4215 
       0.417313         61.9895          54.744          54.744 
       0.423458         60.2015         53.1518         53.1518 
       0.429607         59.1408         51.6409         51.6409 
       0.435692         58.0426          50.217          50.217 
       0.441815         55.9072         48.8417         48.8417 
       0.447964         54.1915         47.5069         47.5069 
       0.454126         53.2476         46.2106         46.2106 
       0.460267         52.6422         44.9584         44.9584 
       0.466387         51.1238         43.7498         43.7498 
        0.47254          50.309         42.5772         42.5772 
       0.478662         48.7045         41.4562         41.4562 
       0.484765         47.6851         40.3848         40.3848 
       0.490885         46.3418         39.3539         39.3539 
       0.497035         45.5743         38.3589         38.3589 
       0.503198         44.5352            37.4            37.4 
       0.509342         43.3417         36.4775         36.4775 
       0.515458         42.7599         35.5888         35.5888 
       0.521598         41.7487         34.7237         34.7237 
       0.527764         41.1761         33.8821         33.8821 
       0.533884         40.1912         33.0737         33.0737 
           0.54          39.362         32.2927         32.2927 
       0.546137          38.185         31.5351         31.5351 
       0.552299         37.5555         30.8002         30.8002 
       0.558452         36.7656         30.0916         30.0916 
       0.564573         36.3767         29.4104         29.4104 
       0.570708         35.4112         28.7498         28.7498 
       0.576825         34.9233         28.1118         28.1118 
       0.582926          34.298         27.4945         27.4945 
       0.589034          33.623         26.8944         26.8944 
       0.595184         33.1648         26.3081         26.3081 
       0.601379         32.2634         25.7354         25.7354 
       0.607522         31.7619         25.1847         25.1847 
       0.613639         31.2152         24.6529         24.6529 
       0.619772         30.6882         24.1357         24.1357 
       0.625918         30.0577         23.6327         23.6327 
       0.632068         29.7921         23.1441         23.1441 
       0.638161         29.1553         22.6739         22.6739 
         0.6443         28.6961         22.2137         22.2137 
       0.650464         27.9784         21.7647         21.7647 
       0.656582         27.7932         21.3315         21.3315 
       0.662703         27.4428         20.9101         20.9101 
       0.668861         26.7131         20.4979         20.4979 
       0.675024         26.3676         20.0965         20.0965 
       0.681124            26.2         19.7102         19.7102 
       0.687237         25.6613         19.3333         19.3333 
       0.693381         25.1088         18.9647         18.9647 
       0.699536         24.9786         18.6052         18.6052 
       0.705665         24.4982         18.2568         18.2568 
       0.711789         24.0451         17.9177         17.9177 
       0.717957         23.5535         17.5851         17.5851 
        0.72409         23.3513         17.2629         17.2629 
       0.730186          23.211         16.9509         16.9509 
       0.736317         22.7187          16.645          16.645 
       0.742472         22.4344         16.3456         16.3456 
       0.748622          22.062          16.054          16.054 
        0.75476         21.5074         15.7702         15.7702 
       0.760888         21.4197         15.4938         15.4938 
       0.767043         21.0416          15.223          15.223 
       0.773185         20.8056         14.9594         14.9594 
       0.779291          20.616         14.7035         14.7035 
       0.785407         20.2471         14.4534         14.4534 
       0.791564         20.0755         14.2075         14.2075 
       0.797719         19.6418         13.9676         13.9676 
       0.803834         19.5446         13.7349         13.7349 
       0.809972         19.1676         13.5066         13.5066 
       0.816124          18.948         13.2832         13.2832 
       0.822261         18.7315         13.0654         13.0654 
       0.828378         18.5082         12.8533         12.8533 
       0.834502         18.3077         12.6457         12.6457 
       0.840667         18.1145         12.4415         12.4415 
       0.846816         17.7173         12.2423         12.2423 
       0.852925         17.6333         12.0489         12.0489 
       0.859047         17.4079         11.8593         11.8593 
       0.865192         17.1577         11.6732         11.6732 
       0.871341         16.9273          11.491          11.491 
       0.877463         16.7421         11.3136         11.3136 
       0.883569         16.6283         11.1404         11.1404 
       0.889708         16.3451           10.97           10.97 
       0.895864         16.1424         10.8028         10.8028 
       0.902008         15.9381         10.6395         10.6395 
       0.908149         15.7309         10.4796         10.4796 
       0.914301         15.6444         10.3229         10.3229 
       0.920448         15.4035         10.1695         10.1695 
       0.926574          15.292         10.0199         10.0199 
       0.932687         15.0652         9.87355         9.87355 
       0.938823         14.8692         9.72968         9.72968 
       0.944975         14.7486         9.58838         9.58838 
       0.951105         14.5644         9.45044         9.45044 
       0.957225          14.474         9.31547         9.31547 
       0.963368         14.2503         9.18271         9.18271 
       0.969511         14.1006         9.05257         9.05257 
       0.975621          13.956         8.92568         8.92568 
       0.981748          13.765         8.80092         8.80092 
       0.987916         13.6633         8.67779         8.67779 
        0.99406         13.5283          8.5575          8.5575 
        1.00019         13.4052         8.43976         8.43976 
        1.00632          13.279         8.32436         8.32436 
        1.01246         13.1392         8.21098         8.21098 
        1.01859         12.9722         8.09991         8.09991 
        1.02471         12.8122         7.99106         7.99106 
        1.03085         12.7649         7.88386         7.88386 
        1.03698         12.6292         7.77887         7.77887 
        1.04314         12.4725         7.67537         7.67537 
        1.04929         12.3013         7.57402         7.57402 
        1.05541         12.2404         7.47492         7.47492 
        1.06154          12.128         7.37737         7.37737 
        1.06769         12.0396         7.28143         7.28143 
        1.07382         11.8391         7.18753         7.18753 
        1.07993         11.7367         7.09551         7.09551 
        1.08607         11.6773         7.00474         7.00474 
        1.09222         11.5167         6.91548         6.91548 
        1.09836         11.4822          6.8279          6.8279 
        1.10449         11.2879         6.74195         6.74195 
        1.11063         11.2516          6.6574          6.6574 
        1.11677         11.1573         6.57435         6.57435 
         1.1229         11.0512         6.49287         6.49287 
        1.12903         10.9614         6.41272         6.41272 
        1.13518         10.8004         6.33387         6.33387 
        1.14131         10.7307          6.2564          6.2564 
        1.14745         10.5805         6.18029         6.18029 
        1.15359         10.5005         6.10544         6.10544 
        1.15973         10.4075         6.03181         6.03181 
        1.16584         10.3255         5.95974         5.95974 
        1.17197         10.2265         5.88876         5.88876 
        1.17811         10.1348         5.81873         5.81873 
        1.18424         10.0605         5.75005         5.75005 
        1.19038         9.99359         5.68229         5.68229 
        1.19652         9.90531         5.61566         5.61566 
        1.20267         9.82409         5.55011         5.55011 
        1.20881         9.71091         5.48563         5.48563 
        1.21495         9.63683         5.42229         5.42229 
        1.22108         9.57962         5.35997         5.35997 
         1.2272         9.48533         5.29879         5.29879 
        1.23334         9.44888         5.23842         5.23842 
        1.23949         9.33767         5.17887         5.17887 
        1.24562         9.26065         5.12042         5.12042 
        1.25174         9.20478         5.06296         5.06296 
        1.25789         9.07571         5.00622         5.00622 
        1.26402         9.04799         4.95046         4.95046 
        1.27014          8.9919         4.89569         4.89569 
        1.27628         8.87111         4.84159         4.84159 
        1.28244         8.85265         4.78821         4.78821 
        1.28858         8.78083         4.73571         4.73571 
        1.29471         8.65595         4.68412         4.68412 
        1.30084         8.59347         4.63336         4.63336 
        1.30697         8.57583         4.58327         4.58327 
        1.31312         8.48168         4.53387         4.53387 
        1.31925         8.42227         4.48535         4.48535 
        1.32537         8.36433         4.43759         4.43759 
        1.33151         8.29371         4.39037         4.39037 
        1.33765         8.22263         4.34387         4.34387 
        1.34378         8.20922         4.29813         4.29813 
        1.34992         8.11621         4.25304         4.25304 
        1.35606         8.05498         4.20849         4.20849 
         1.3622         7.98781         4.16467         4.16467 
        1.36833         7.93869         4.12159         4.12159 
        1.37445          7.8764         4.07914         4.07914 
        1.38059         7.82203         4.03716         4.03716 
        1.38675         7.76216         3.99568         3.99568 
        1.39288         7.69551         3.95496         3.95496 
        1.39901         7.63625         3.91482         3.91482 
        1.40515         7.58669         3.87516         3.87516 
         1.4113         7.52682         3.83606         3.83606 
        1.41742         7.48905         3.79766         3.79766 
        1.42355         7.41845         3.75972         3.75972 
         1.4297         7.38313         3.72218         3.72218 
        1.43585         7.33706         3.68518         3.68518 
        1.44198          7.2772         3.64882         3.64882 
        1.44809         7.23674         3.61303         3.61303 
        1.45423         7.17139         3.57759         3.57759 
        1.46036         7.13567          3.5427          3.5427 
        1.46649         7.08119         3.50826         3.50826 
        1.47263         7.04297         3.47426         3.47426 
        1.47877         6.98921         3.44072         3.44072 
        1.48491         6.95483         3.40758         3.40758 
        1.49104         6.88786         3.37495         3.37495 
        1.49718         6.86339         3.34273         3.34273 
        1.50333         6.80887         3.31088         3.31088 
        1.50947         6.74474         3.27951         3.27951 
         1.5156         6.73158          3.2486          3.2486 
        1.52172         6.68339         3.21809         3.21809 
        1.52787         6.63982         3.18791         3.18791 
          1.534         6.59199         3.15816         3.15816 
        1.54013         6.55997         3.12882         3.12882 
        1.54627         6.51255         3.09981         3.09981 
        1.55241         6.45548         3.07115         3.07115 
        1.55855         6.44044         3.04291         3.04291 
        1.56467          6.3911          3.0151          3.0151 
         1.5708         6.35116         2.98756         2.98756 
        1.57695         6.29449         2.96033         2.96033 
        1.58308         6.24979          2.9335          2.9335 
        1.58922         6.23112         2.90699         2.90699 
        1.59535         6.18986         2.88081         2.88081 
         1.6015         6.13481         2.85493         2.85493 
        1.60764         6.11345         2.82938         2.82938 
        1.61376          6.0819         2.80421         2.80421 
        1.61989          6.0194         2.77934         2.77934 
        1.62604         5.99851         2.75471         2.75471 
        1.63218         5.96631         2.73039         2.73039 
        1.63831         5.93491         2.70643         2.70643 
        1.64444          5.8839         2.68275         2.68275 
        1.65059         5.85495          2.6593          2.6593 
        1.65673         5.82988         2.63616         2.63616 
        1.66285         5.79319         2.61336         2.61336 
        1.66898         5.75313         2.59082         2.59082 
        1.67512         5.71537          2.5685          2.5685 
        1.68127          5.6773         2.54644         2.54644 
         1.6874         5.65641         2.52468         2.52468 
        1.69353         5.60973         2.50319         2.50319 
        1.69967         5.58945          2.4819          2.4819 
        1.70581         5.54469         2.46087         2.46087 
        1.71193         5.52758         2.44016         2.44016 
        1.71806          5.4932         2.41965         2.41965 
        1.72421         5.45518         2.39934         2.39934 
        1.73035         5.42481         2.37928         2.37928 
        1.73649          5.3955         2.35946         2.35946 
        1.74262         5.36004         2.33989         2.33989 
        1.74876         5.34867         2.32052         2.32052 
        1.75489          5.3091         2.30142         2.30142 
        1.76101         5.26978         2.28253         2.28253 
        1.76715         5.25954         2.26384         2.26384 
        1.77329         5.22911         2.24533         2.24533 
        1.77943         5.18214         2.22702         2.22702 
        1.78557         5.17219         2.20895         2.20895 
        1.79171         5.14476         2.19108         2.19108 
        1.79785         5.11551          2.1734          2.1734 
        1.80399         5.06737         2.15592         2.15592 
        1.81012         5.05533         2.13866         2.13866 
        1.81625           5.024         2.12159         2.12159 
        1.82239         5.00057         2.10469         2.10469 
        1.82853         4.96881         2.08798         2.08798 
        1.83466          4.9306         2.07147         2.07147 
        1.84078         4.91151         2.05516         2.05516 
        1.84692         4.88752           2.039           2.039 
        1.85306         4.86062         2.02299         2.02299 
         1.8592         4.84697         2.00718         2.00718 
        1.86533         4.81783         1.99155         1.99155 
        1.87147         4.78988         1.97607         1.97607 
        1.87761         4.77434         1.96074         1.96074 
