# k  (h/Mpc)    Pcb(k)  (Mpc/h)^3    Pcb_linear(k) (Mpc/h)^3    Pcb_NL(k) (Mpc/h)^3   ShotnoiseSubtracted = false
     0.00783031         166.395         167.698         167.698 
       0.013688         210.614         212.229         212.229 
       0.019231         218.225         218.834         218.834 
      0.0249154         205.961         206.145         206.145 
      0.0312784         182.615          182.66          182.66 
      0.0375637         159.344         159.394         159.394 
      0.0433917         142.038         141.807         141.807 
      0.0492413         128.732         128.698         128.698 
      0.0555754         118.605         118.421         118.421 
      0.0619321         109.819         110.143         110.143 
       0.067871         102.518         102.598         102.598 
      0.0738098         94.3787         94.4125         94.4125 
      0.0800417         85.2615         85.1862         85.1862 
      0.0862327         76.1026         76.0802         76.0802 
      0.0921407         68.2509         68.2492         68.2492 
      0.0982031          61.761         61.6473         61.6473 
       0.104506         56.4135         56.4749         56.4749 
       0.110769          52.713         52.7685         52.7685 
       0.116806         50.0952         50.0438         50.0438 
       0.122832         47.5408         47.6183         47.6183 
       0.129052          44.991         44.9976         44.9976 
       0.135211         42.1463         42.1009         42.1009 
       0.141259         39.0175         39.0346         39.0346 
       0.147318         35.8912         35.9681         35.9681 
       0.153489         33.1073         33.1111         33.1111 
       0.159709         30.7224         30.6909         30.6909 
       0.165845         28.7192         28.8068         28.8068 
       0.171974         27.3979         27.3523         27.3523 
       0.178125          26.194         26.1711         26.1711 
       0.184229          25.069         25.1069         25.1069 
        0.19034         24.0582          24.017          24.017 
       0.196428         22.8591         22.8444         22.8444 
       0.202534         21.5218         21.5925         21.5925 
       0.208729         20.3197           20.31           20.31 
       0.214876         19.1764         19.1072         19.1072 
       0.220989         18.0113         18.0437         18.0437 
       0.227147         17.2054         17.1342         17.1342 
        0.23329         16.4523         16.3778         16.3778 
       0.239377         15.8149          15.738          15.738 
       0.245482         15.2191         15.1555         15.1555 
       0.251667         14.6019         14.5809         14.5809 
       0.257832         14.0659         13.9961         13.9961 
       0.263955         13.4351         13.3986         13.3986 
       0.270079         12.8337         12.7979         12.7979 
        0.27624         12.2182         12.2129         12.2129 
       0.282372         11.6875         11.6714         11.6714 
        0.28843         11.2563         11.1887         11.1887 
       0.294538         10.8132         10.7559         10.7559 
       0.300721         10.3881         10.3648         10.3648 
        0.30691          10.068         10.0057         10.0057 
       0.313033         9.71795         9.66826         9.66826 
       0.319153         9.43966         9.33749         9.33749 
       0.325316         9.03358         9.00652         9.00652 
        0.33145          8.7112         8.68005         8.68005 
       0.337538         8.40922         8.36417         8.36417 
       0.343633         8.12275           8.062           8.062 
       0.349808         7.82448         7.77501         7.77501 
       0.355968         7.55148         7.51003         7.51003 
       0.362074         7.32873         7.26692         7.26692 
       0.368217         7.09622         7.03887         7.03887 
       0.374374         6.90893         6.82222         6.82222 
       0.380519         6.66786         6.61405         6.61405 
       0.386598         6.45778         6.41365         6.41365 
       0.392688         6.25377         6.21734         6.21734 
        0.39888         6.07509         6.02318         6.02318 
       0.405048          5.8925         5.83658         5.83658 
       0.411186         5.70932         5.65891         5.65891 
       0.417313         5.54573         5.49067         5.49067 
       0.423458         5.36891         5.33098         5.33098 
       0.429607           5.239         5.17943         5.17943 
       0.435692         5.10123         5.03662         5.03662 
       0.441815         4.95027         4.89869         4.89869 
       0.447964         4.79946          4.7648          4.7648 
       0.454126         4.68945         4.63479         4.63479 
       0.460267         4.57929          4.5092          4.5092 
       0.466387         4.44937         4.38798         4.38798 
        0.47254         4.33832         4.27037         4.27037 
       0.478662         4.21979         4.15794         4.15794 
       0.484765         4.11481         4.05048         4.05048 
       0.490885         4.00298         3.94708         3.94708 
       0.497035          3.8917         3.84729         3.84729 
       0.503198         3.80756         3.75111         3.75111 
       0.509342         3.70286         3.65859         3.65859 
       0.515458         3.62542         3.56946         3.56946 
       0.521598         3.53905         3.48269         3.48269 
       0.527764         3.46612         3.39828         3.39828 
       0.533884          3.3643          3.3172          3.3172 
           0.54         3.29194         3.23887         3.23887 
       0.546137         3.20678         3.16288         3.16288 
       0.552299          3.1394         3.08917         3.08917 
       0.558452         3.06887          3.0181          3.0181 
       0.564573         3.00268         2.94978         2.94978 
       0.570708         2.93569         2.88353         2.88353 
       0.576825         2.87196         2.81953         2.81953 
       0.582926         2.80392         2.75762         2.75762 
       0.589034         2.75405         2.69744         2.69744 
       0.595184         2.69875         2.63863         2.63863 
       0.601379         2.63276         2.58119         2.58119 
       0.607522         2.57549         2.52595         2.52595 
       0.613639         2.51475         2.47261         2.47261 
       0.619772         2.47288         2.42074         2.42074 
       0.625918         2.42082         2.37029         2.37029 
       0.632068         2.37312         2.32129         2.32129 
       0.638161         2.32373         2.27413         2.27413 
         0.6443         2.27588         2.22797         2.22797 
       0.650464         2.23144         2.18294         2.18294 
       0.656582         2.19379         2.13949         2.13949 
       0.662703          2.1495         2.09723         2.09723 
       0.668861           2.098         2.05588         2.05588 
       0.675024         2.06186         2.01563         2.01563 
       0.681124         2.03819         1.97687         1.97687 
       0.687237         1.99062         1.93908         1.93908 
       0.693381         1.94506         1.90211         1.90211 
       0.699536         1.91936         1.86605         1.86605 
       0.705665         1.88299          1.8311          1.8311 
       0.711789         1.84138          1.7971          1.7971 
       0.717957         1.80989         1.76374         1.76374 
        0.72409         1.77736         1.73143         1.73143 
       0.730186         1.75263         1.70013         1.70013 
       0.736317         1.71526         1.66945         1.66945 
       0.742472         1.68929         1.63942         1.63942 
       0.748622         1.66077         1.61017         1.61017 
        0.75476         1.62701         1.58171         1.58171 
       0.760888         1.60482         1.55399         1.55399 
       0.767043         1.56353         1.52683         1.52683 
       0.773185         1.54317         1.50038         1.50038 
       0.779291         1.52464         1.47472         1.47472 
       0.785407         1.49526         1.44963         1.44963 
       0.791564         1.47014         1.42498         1.42498 
       0.797719         1.44505         1.40091         1.40091 
       0.803834         1.42072         1.37757         1.37757 
       0.809972         1.39828         1.35468         1.35468 
       0.816124         1.37504         1.33226         1.33226 
       0.822261         1.35515         1.31042         1.31042 
       0.828378         1.33091         1.28915         1.28915 
       0.834502         1.31016         1.26833         1.26833 
       0.840667         1.29224         1.24784         1.24784 
       0.846816         1.27106         1.22787         1.22787 
       0.852925         1.24828         1.20847         1.20847 
       0.859047         1.22982         1.18945         1.18945 
       0.865192         1.21158         1.17079         1.17079 
       0.871341         1.19505         1.15252         1.15252 
       0.877463         1.17291         1.13472         1.13472 
       0.883569         1.15638         1.11735         1.11735 
       0.889708         1.14137         1.10026         1.10026 
       0.895864         1.12433         1.08349         1.08349 
       0.902008         1.10484         1.06711         1.06711 
       0.908149         1.09105         1.05108         1.05108 
       0.914301         1.07734         1.03536         1.03536 
       0.920448         1.06137         1.01998         1.01998 
       0.926574         1.04832         1.00496         1.00496 
       0.932687         1.03238         0.99029         0.99029 
       0.938823         1.01379         0.97586         0.97586 
       0.944975         1.00233        0.961689        0.961689 
       0.951105        0.984252        0.947853        0.947853 
       0.957225        0.970988        0.934316        0.934316 
       0.963368        0.960036        0.921001        0.921001 
       0.969511        0.948241        0.907948        0.907948 
       0.975621        0.932344        0.895221        0.895221 
       0.981748         0.91658        0.882708        0.882708 
       0.987916        0.905613        0.870359        0.870359 
        0.99406        0.895634        0.858294        0.858294 
        1.00019        0.882851        0.846485        0.846485 
        1.00632        0.874025        0.834911        0.834911 
        1.01246        0.861302        0.823538        0.823538 
        1.01859        0.849732        0.812399        0.812399 
        1.02471        0.836132        0.801481        0.801481 
        1.03085        0.824611        0.790729        0.790729 
        1.03698        0.816022        0.780199        0.780199 
        1.04314        0.805386        0.769819        0.769819 
        1.04929        0.796937        0.759653        0.759653 
        1.05541        0.783183        0.749714        0.749714 
        1.06154        0.775093         0.73993         0.73993 
        1.06769         0.76605        0.730308        0.730308 
        1.07382        0.755969        0.720889        0.720889 
        1.07993         0.74692         0.71166         0.71166 
        1.08607        0.737257        0.702556        0.702556 
        1.09222        0.727126        0.693604        0.693604 
        1.09836        0.719204         0.68482         0.68482 
        1.10449        0.708922        0.676199        0.676199 
        1.11063        0.700223        0.667719        0.667719 
        1.11677        0.693388        0.659389        0.659389 
         1.1229         0.68225        0.651217        0.651217 
        1.12903        0.676094        0.643178        0.643178 
        1.13518        0.667118         0.63527         0.63527 
        1.14131        0.660116          0.6275          0.6275 
        1.14745        0.654283        0.619866        0.619866 
        1.15359        0.644651        0.612359        0.612359 
        1.15973         0.63821        0.604974        0.604974 
        1.16584        0.629441        0.597746        0.597746 
        1.17197        0.621601        0.590627        0.590627 
        1.17811        0.614093        0.583602        0.583602 
        1.18424        0.607376        0.576714        0.576714 
        1.19038        0.599357        0.569918        0.569918 
        1.19652        0.595164        0.563236        0.563236 
        1.20267         0.58841        0.556661        0.556661 
        1.20881         0.57883        0.550194        0.550194 
        1.21495        0.573774        0.543841        0.543841 
        1.22108         0.56773         0.53759         0.53759 
         1.2272        0.560014        0.531454        0.531454 
        1.23334        0.554484          0.5254          0.5254 
        1.23949        0.549643        0.519427        0.519427 
        1.24562        0.543068        0.513564        0.513564 
        1.25174         0.53715        0.507801        0.507801 
        1.25789        0.529564         0.50211         0.50211 
        1.26402        0.525303        0.496517        0.496517 
        1.27014        0.517971        0.491024        0.491024 
        1.27628        0.514014        0.485598        0.485598 
        1.28244         0.50848        0.480244        0.480244 
        1.28858        0.501926        0.474979        0.474979 
        1.29471        0.496889        0.469805        0.469805 
        1.30084        0.491608        0.464713        0.464713 
        1.30697        0.487913         0.45969         0.45969 
        1.31312        0.482364        0.454734        0.454734 
        1.31925        0.476975        0.449868        0.449868 
        1.32537        0.472138        0.445078        0.445078 
        1.33151        0.467124        0.440342        0.440342 
        1.33765        0.462016        0.435678        0.435678 
        1.34378        0.456494        0.431091        0.431091 
        1.34992        0.453772        0.426568        0.426568 
        1.35606        0.448134          0.4221          0.4221 
         1.3622        0.443801        0.417705        0.417705 
        1.36833        0.440097        0.413384        0.413384 
        1.37445        0.435828        0.409127        0.409127 
        1.38059        0.430956        0.404917        0.404917 
        1.38675        0.426126        0.400756        0.400756 
        1.39288        0.421192        0.396671        0.396671 
        1.39901        0.418418        0.392646        0.392646 
        1.40515        0.413722        0.388668        0.388668 
         1.4113        0.410859        0.384747        0.384747 
        1.41742          0.4064        0.380895        0.380895 
        1.42355        0.400742        0.377089        0.377089 
         1.4297        0.398864        0.373325        0.373325 
        1.43585        0.393831        0.369613        0.369613 
        1.44198        0.390739        0.365967        0.365967 
        1.44809        0.386363        0.362377        0.362377 
        1.45423        0.383148        0.358823        0.358823 
        1.46036        0.379337        0.355323        0.355323 
        1.46649        0.375762        0.351869        0.351869 
        1.47263        0.371119        0.348458        0.348458 
        1.47877        0.369991        0.345095        0.345095 
        1.48491        0.364348        0.341771        0.341771 
        1.49104        0.363071        0.338498        0.338498 
        1.49718        0.358481        0.335266        0.335266 
        1.50333        0.355691        0.332072        0.332072 
        1.50947         0.35267        0.328926        0.328926 
         1.5156        0.348972        0.325825        0.325825 
        1.52172        0.346214        0.322765        0.322765 
        1.52787        0.341893        0.319739        0.319739 
          1.534        0.339942        0.316755        0.316755 
        1.54013        0.336597        0.313812        0.313812 
        1.54627        0.333834        0.310902        0.310902 
        1.55241        0.330435        0.308029        0.308029 
        1.55855        0.327619        0.305196        0.305196 
        1.56467        0.325013        0.302406        0.302406 
         1.5708        0.321676        0.299644        0.299644 
        1.57695        0.318846        0.296913        0.296913 
        1.58308        0.315024        0.294222        0.294222 
        1.58922        0.313494        0.291563        0.291563 
        1.59535        0.310198        0.288938        0.288938 
         1.6015        0.307843        0.286342        0.286342 
        1.60764        0.304935        0.283779        0.283779 
        1.61376        0.302428        0.281255        0.281255 
        1.61989         0.29954         0.27876         0.27876 
        1.62604          0.2971         0.27629         0.27629 
        1.63218        0.294994        0.273851        0.273851 
        1.63831        0.292032        0.271448        0.271448 
        1.64444        0.289766        0.269073        0.269073 
        1.65059        0.286678        0.266721        0.266721 
        1.65673        0.284703        0.264399        0.264399 
        1.66285        0.282699        0.262113        0.262113 
        1.66898        0.279718        0.259852        0.259852 
        1.67512        0.277378        0.257614        0.257614 
        1.68127        0.274887        0.255401        0.255401 
         1.6874        0.273133        0.253218        0.253218 
        1.69353        0.270688        0.251063        0.251063 
        1.69967        0.268142        0.248928        0.248928 
        1.70581        0.266581        0.246818        0.246818 
        1.71193        0.264632        0.244742        0.244742 
        1.71806        0.261997        0.242685        0.242685 
        1.72421        0.259725        0.240647        0.240647 
        1.73035        0.257574        0.238636        0.238636 
        1.73649         0.25596        0.236648        0.236648 
        1.74262        0.253356        0.234684        0.234684 
        1.74876        0.251885        0.232742        0.232742 
        1.75489        0.249663        0.230826        0.230826 
        1.76101        0.247553        0.228932        0.228932 
        1.76715        0.245839        0.227057        0.227057 
        1.77329        0.243476        0.225201        0.225201 
        1.77943        0.241563        0.223365        0.223365 
        1.78557        0.240391        0.221552        0.221552 
        1.79171        0.238319        0.219759        0.219759 
        1.79785        0.236014        0.217986        0.217986 
        1.80399        0.233762        0.216233        0.216233 
        1.81012        0.232597        0.214501        0.214501 
        1.81625        0.231005         0.21279         0.21279 
        1.82239        0.229501        0.211095        0.211095 
        1.82853        0.227141        0.209419        0.209419 
        1.83466        0.225382        0.207763        0.207763 
        1.84078        0.223649        0.206127        0.206127 
        1.84692         0.22208        0.204506        0.204506 
        1.85306        0.220452          0.2029          0.2029 
         1.8592        0.218862        0.201315        0.201315 
        1.86533        0.217362        0.199747        0.199747 
        1.87147        0.215429        0.198194        0.198194 
