# k  (h/Mpc)    Pcb(k)  (Mpc/h)^3    Pcb_linear(k) (Mpc/h)^3    Pcb_NL(k) (Mpc/h)^3   ShotnoiseSubtracted = false
     0.00783031         325.213         327.693         327.693 
       0.013688         411.165         414.645         414.645 
       0.019231         426.154         427.527         427.527 
      0.0249154         402.517         402.725         402.725 
      0.0312784         356.697         356.839         356.839 
      0.0375637         311.114         311.385         311.385 
      0.0433917         277.495         277.027         277.027 
      0.0492413          251.39         251.416         251.416 
      0.0555754         231.749          231.34          231.34 
      0.0619321         214.267         215.169         215.169 
       0.067871          200.21         200.427         200.427 
      0.0738098         184.358         184.437         184.437 
      0.0800417         166.608         166.413         166.413 
      0.0862327         148.657         148.624         148.624 
      0.0921407         133.309         133.326         133.326 
      0.0982031         120.705         120.429         120.429 
       0.104506         110.143         110.325         110.325 
       0.110769         102.937         103.084         103.084 
       0.116806          97.929         97.7614         97.7614 
       0.122832         92.8495         93.0231         93.0231 
       0.129052         87.9218         87.9035         87.9035 
       0.135211         82.4157         82.2448         82.2448 
       0.141259         76.2526         76.2546         76.2546 
       0.147318         70.0897         70.2642         70.2642 
       0.153489         64.7034          64.683          64.683 
       0.159709         60.0889          59.955          59.955 
       0.165845         56.0821         56.2744         56.2744 
       0.171974         53.6162         53.4331         53.4331 
       0.178125         51.2554         51.1256         51.1256 
       0.184229         49.0033         49.0466         49.0466 
        0.19034          47.086         46.9175         46.9175 
       0.196428         44.7382         44.6268         44.6268 
       0.202534         42.0557         42.1812         42.1812 
       0.208729         39.7771         39.6759         39.6759 
       0.214876         37.5875         37.3261         37.3261 
       0.220989         35.2319         35.2485         35.2485 
       0.227147         33.7396         33.4719         33.4719 
        0.23329         32.2761         31.9943         31.9943 
       0.239377         31.0428         30.7444         30.7444 
       0.245482         29.8532         29.6064         29.6064 
       0.251667         28.6209          28.484          28.484 
       0.257832         27.6238         27.3416         27.3416 
       0.263955          26.352         26.1742         26.1742 
       0.270079         25.1791         25.0008         25.0008 
        0.27624         23.9568         23.8581         23.8581 
       0.282372         22.9317         22.8003         22.8003 
        0.28843         22.1385         21.8572         21.8572 
       0.294538         21.2587         21.0117         21.0117 
       0.300721         20.4013         20.2477         20.2477 
        0.30691         19.8076         19.5463         19.5463 
       0.313033         19.1087          18.887          18.887 
       0.319153          18.601         18.2409         18.2409 
       0.325316         17.7607         17.5943         17.5943 
        0.33145         17.1289         16.9566         16.9566 
       0.337538         16.5489         16.3395         16.3395 
       0.343633         15.9988         15.7492         15.7492 
       0.349808         15.4102         15.1886         15.1886 
       0.355968         14.8711         14.6709         14.6709 
       0.362074         14.4566          14.196          14.196 
       0.368217          13.998         13.7505         13.7505 
       0.374374         13.6511         13.3273         13.3273 
       0.380519         13.1514         12.9206         12.9206 
       0.386598         12.7343         12.5291         12.5291 
       0.392688         12.3314         12.1456         12.1456 
        0.39888         11.9964         11.7664         11.7664 
       0.405048         11.6449         11.4018         11.4018 
       0.411186         11.2823         11.0547         11.0547 
       0.417313           10.96         10.7261         10.7261 
       0.423458         10.6046         10.4141         10.4141 
       0.429607          10.367         10.1181         10.1181 
       0.435692         10.1066          9.8391          9.8391 
       0.441815         9.79102         9.56964         9.56964 
       0.447964         9.48577          9.3081          9.3081 
       0.454126          9.2842         9.05411         9.05411 
       0.460267         9.08646         8.80877         8.80877 
       0.466387         8.82091         8.57197         8.57197 
        0.47254         8.61339         8.34221         8.34221 
       0.478662         8.37348         8.12259         8.12259 
       0.484765         8.16777         7.91265         7.91265 
       0.490885         7.94047         7.71067         7.71067 
       0.497035         7.72267         7.51572         7.51572 
       0.503198         7.56268         7.32784         7.32784 
       0.509342         7.34921          7.1471          7.1471 
       0.515458         7.20679         6.97298         6.97298 
       0.521598         7.03715         6.80348         6.80348 
       0.527764         6.90263         6.63858         6.63858 
       0.533884         6.68997         6.48019         6.48019 
           0.54         6.55195         6.32716         6.32716 
       0.546137         6.37475         6.17873         6.17873 
       0.552299         6.24735         6.03473         6.03473 
       0.558452          6.1072          5.8959          5.8959 
       0.564573         5.98318         5.76243         5.76243 
       0.570708         5.85003         5.63301         5.63301 
       0.576825         5.72583         5.50799         5.50799 
       0.582926         5.59094         5.38704         5.38704 
       0.589034         5.49283         5.26947         5.26947 
       0.595184          5.3915         5.15459         5.15459 
       0.601379         5.25305         5.04237         5.04237 
       0.607522         5.14284         4.93447         4.93447 
       0.613639         5.01996         4.83028         4.83028 
       0.619772         4.94074         4.72894         4.72894 
       0.625918         4.83592         4.63039         4.63039 
       0.632068         4.74878         4.53466         4.53466 
       0.638161         4.64814         4.44254         4.44254 
         0.6443         4.55321         4.35236         4.35236 
       0.650464         4.45977         4.26439         4.26439 
       0.656582         4.39564         4.17951         4.17951 
       0.662703         4.30971         4.09695         4.09695 
       0.668861          4.2005         4.01618         4.01618 
       0.675024         4.13002         3.93755         3.93755 
       0.681124          4.0955         3.86184         3.86184 
       0.687237         3.99668         3.78801         3.78801 
       0.693381         3.89885         3.71578         3.71578 
       0.699536         3.85491         3.64535         3.64535 
       0.705665         3.78196         3.57708         3.57708 
       0.711789         3.69641         3.51065         3.51065 
       0.717957          3.6307         3.44548         3.44548 
        0.72409         3.57234         3.38236         3.38236 
       0.730186          3.5279         3.32122         3.32122 
       0.736317         3.44998         3.26129         3.26129 
       0.742472         3.40104         3.20263         3.20263 
       0.748622         3.34497         3.14549         3.14549 
        0.75476         3.27058         3.08989         3.08989 
       0.760888         3.23114         3.03573         3.03573 
       0.767043         3.14565         2.98267         2.98267 
       0.773185         3.10637         2.93101         2.93101 
       0.779291          3.0774         2.88088         2.88088 
       0.785407         3.01476         2.83187         2.83187 
       0.791564         2.96591         2.78371         2.78371 
       0.797719         2.91503          2.7367          2.7367 
       0.803834         2.86875         2.69109         2.69109 
       0.809972         2.82159         2.64638         2.64638 
       0.816124         2.77675         2.60259         2.60259 
       0.822261         2.73771         2.55993         2.55993 
       0.828378           2.689         2.51836         2.51836 
       0.834502         2.64899         2.47769         2.47769 
       0.840667         2.61538         2.43767         2.43767 
       0.846816         2.57027         2.39866         2.39866 
       0.852925         2.52614         2.36076         2.36076 
       0.859047         2.48956         2.32361         2.32361 
       0.865192         2.45226         2.28715         2.28715 
       0.871341         2.41882         2.25145         2.25145 
       0.877463          2.3761         2.21669         2.21669 
       0.883569         2.34313         2.18276         2.18276 
       0.889708         2.31403         2.14937         2.14937 
       0.895864         2.28004         2.11661         2.11661 
       0.902008         2.23895         2.08461         2.08461 
       0.908149         2.21237         2.05329         2.05329 
       0.914301          2.1853         2.02258         2.02258 
       0.920448         2.15447         1.99253         1.99253 
       0.926574         2.13127         1.96321         1.96321 
       0.932687         2.09683         1.93454         1.93454 
       0.938823         2.05824         1.90635         1.90635 
       0.944975         2.03784         1.87867         1.87867 
       0.951105         1.99883         1.85164         1.85164 
       0.957225         1.97564          1.8252          1.8252 
       0.963368          1.9546         1.79918         1.79918 
       0.969511         1.93048         1.77369         1.77369 
       0.975621         1.89771         1.74882         1.74882 
       0.981748         1.86381         1.72438         1.72438 
       0.987916         1.84352         1.70025         1.70025 
        0.99406         1.82586         1.67669         1.67669 
        1.00019          1.8002         1.65362         1.65362 
        1.00632         1.78284         1.63101         1.63101 
        1.01246          1.7558         1.60879         1.60879 
        1.01859         1.73325         1.58703         1.58703 
        1.02471         1.70419          1.5657          1.5657 
        1.03085         1.68386          1.5447          1.5447 
        1.03698         1.66588         1.52413         1.52413 
        1.04314         1.64534         1.50385         1.50385 
        1.04929         1.62747         1.48399         1.48399 
        1.05541         1.59953         1.46457         1.46457 
        1.06154         1.58511         1.44546         1.44546 
        1.06769          1.5682         1.42666         1.42666 
        1.07382         1.54548         1.40826         1.40826 
        1.07993         1.52622         1.39024         1.39024 
        1.08607         1.51005         1.37245         1.37245 
        1.09222         1.48727         1.35496         1.35496 
        1.09836         1.47553          1.3378          1.3378 
        1.10449         1.45028         1.32096         1.32096 
        1.11063         1.43404          1.3044          1.3044 
        1.11677          1.4203         1.28812         1.28812 
         1.1229         1.39769         1.27216         1.27216 
        1.12903         1.38726         1.25646         1.25646 
        1.13518         1.36707         1.24101         1.24101 
        1.14131         1.35339         1.22583         1.22583 
        1.14745            1.34         1.21091         1.21091 
        1.15359          1.3224         1.19625         1.19625 
        1.15973         1.30851         1.18182         1.18182 
        1.16584         1.29134          1.1677          1.1677 
        1.17197         1.27543         1.15379         1.15379 
        1.17811         1.26082         1.14007         1.14007 
        1.18424         1.24697         1.12662         1.12662 
        1.19038         1.23128         1.11334         1.11334 
        1.19652         1.22247         1.10029         1.10029 
        1.20267         1.21037         1.08744         1.08744 
        1.20881         1.19092         1.07481         1.07481 
        1.21495         1.18084          1.0624          1.0624 
        1.22108         1.16843         1.05019         1.05019 
         1.2272          1.1514          1.0382          1.0382 
        1.23334         1.14196         1.02637         1.02637 
        1.23949         1.13138          1.0147          1.0147 
        1.24562         1.11826         1.00325         1.00325 
        1.25174         1.10685        0.991994        0.991994 
        1.25789         1.09146        0.980877        0.980877 
        1.26402         1.08111        0.969951        0.969951 
        1.27014           1.067         0.95922         0.95922 
        1.27628         1.05942         0.94862         0.94862 
        1.28244         1.04857        0.938162        0.938162 
        1.28858         1.03519        0.927876        0.927876 
        1.29471         1.02388        0.917768        0.917768 
        1.30084         1.01473        0.907822        0.907822 
        1.30697         1.00726        0.898009        0.898009 
        1.31312        0.995443        0.888328        0.888328 
        1.31925         0.98512        0.878822        0.878822 
        1.32537        0.975455        0.869465        0.869465 
        1.33151        0.964602        0.860213        0.860213 
        1.33765        0.955033        0.851101        0.851101 
        1.34378        0.943819        0.842141        0.842141 
        1.34992        0.938147        0.833305        0.833305 
        1.35606        0.926645        0.824577        0.824577 
         1.3622        0.918213        0.815992        0.815992 
        1.36833        0.909613         0.80755         0.80755 
        1.37445         0.90057        0.799233        0.799233 
        1.38059        0.891451        0.791009        0.791009 
        1.38675        0.882611        0.782881        0.782881 
        1.39288        0.873489        0.774902        0.774902 
        1.39901        0.865965        0.767038        0.767038 
        1.40515        0.856518        0.759266        0.759266 
         1.4113        0.851988        0.751606        0.751606 
        1.41742        0.841274        0.744082        0.744082 
        1.42355        0.830603        0.736648        0.736648 
         1.4297        0.826742        0.729293        0.729293 
        1.43585        0.816601        0.722043        0.722043 
        1.44198        0.810083         0.71492         0.71492 
        1.44809        0.801447        0.707908        0.707908 
        1.45423        0.795141        0.700964        0.700964 
        1.46036        0.787501        0.694127        0.694127 
        1.46649        0.779247        0.687379        0.687379 
        1.47263        0.771695        0.680717        0.680717 
        1.47877        0.768806        0.674146        0.674146 
        1.48491        0.756523        0.667653        0.667653 
        1.49104        0.753928         0.66126         0.66126 
        1.49718        0.743903        0.654946        0.654946 
        1.50333        0.739021        0.648706        0.648706 
        1.50947        0.732889         0.64256         0.64256 
         1.5156        0.725588        0.636503        0.636503 
        1.52172        0.720045        0.630525        0.630525 
        1.52787        0.711593        0.624613        0.624613 
          1.534        0.707593        0.618784        0.618784 
        1.54013         0.70068        0.613035        0.613035 
        1.54627         0.69423         0.60735         0.60735 
        1.55241        0.687383        0.601737        0.601737 
        1.55855        0.681924        0.596203        0.596203 
        1.56467        0.676396        0.590754        0.590754 
         1.5708        0.669791        0.585358        0.585358 
        1.57695        0.663435        0.580022        0.580022 
        1.58308        0.656474        0.574766        0.574766 
        1.58922        0.653348        0.569571        0.569571 
        1.59535        0.646072        0.564443        0.564443 
         1.6015        0.640643        0.559372        0.559372 
        1.60764         0.63569        0.554365        0.554365 
        1.61376         0.63006        0.549434        0.549434 
        1.61989        0.624979         0.54456         0.54456 
        1.62604        0.618764        0.539735        0.539735 
        1.63218        0.615317        0.534971        0.534971 
        1.63831        0.608808        0.530276        0.530276 
        1.64444        0.604408        0.525636        0.525636 
        1.65059        0.598883        0.521041        0.521041 
        1.65673        0.593913        0.516507        0.516507 
        1.66285        0.589597        0.512039        0.512039 
        1.66898        0.584733        0.507624        0.507624 
        1.67512        0.578517        0.503252        0.503252 
        1.68127        0.573449        0.498928        0.498928 
         1.6874        0.570549        0.494664        0.494664 
        1.69353        0.565176        0.490454        0.490454 
        1.69967        0.560829        0.486283        0.486283 
        1.70581        0.556999        0.482162        0.482162 
        1.71193        0.552636        0.478105        0.478105 
        1.71806         0.54794        0.474087        0.474087 
        1.72421        0.543059        0.470107        0.470107 
        1.73035        0.537468        0.466177        0.466177 
        1.73649        0.536014        0.462294        0.462294 
        1.74262        0.529596        0.458458        0.458458 
        1.74876        0.526754        0.454664        0.454664 
        1.75489        0.522577         0.45092         0.45092 
        1.76101         0.51748        0.447221        0.447221 
        1.76715        0.514011        0.443558        0.443558 
        1.77329        0.509999        0.439932        0.439932 
        1.77943        0.505804        0.436345        0.436345 
        1.78557        0.503493        0.432804        0.432804 
        1.79171          0.4992        0.429301        0.429301 
        1.79785        0.494556        0.425837        0.425837 
        1.80399        0.489658        0.422413        0.422413 
        1.81012        0.487114        0.419031        0.419031 
        1.81625        0.484069        0.415687        0.415687 
        1.82239        0.480511        0.412375        0.412375 
        1.82853        0.476122        0.409102        0.409102 
        1.83466        0.472319        0.405867        0.405867 
        1.84078        0.468182        0.402671        0.402671 
        1.84692        0.465481        0.399504        0.399504 
        1.85306        0.462305        0.396368        0.396368 
         1.8592        0.458464         0.39327         0.39327 
        1.86533        0.455816        0.390208        0.390208 
        1.87147        0.450978        0.387174        0.387174 
