# k  (h/Mpc)    P(k)  (Mpc/h)^3    P_linear(k)  (Mpc/h)^3     P_NL(k)  ShotnoiseSubtracted = false
     0.00783031         5926.65         5960.19         5960.19 
       0.013688         7399.32         7536.68         7536.68 
       0.019231         7694.01         7768.66         7768.66 
      0.0249154         7327.25         7316.87         7316.87 
      0.0312784         6446.54         6482.55         6482.55 
      0.0375637         5596.05         5656.46         5656.46 
      0.0433917          5020.7         5032.14         5032.14 
      0.0492413         4527.45         4566.81         4566.81 
      0.0555754         4190.65         4202.06         4202.06 
      0.0619321         3813.32         3908.25         3908.25 
       0.067871         3592.89         3640.46         3640.46 
      0.0738098         3322.74         3349.99         3349.99 
      0.0800417         3010.48         3022.59         3022.59 
      0.0862327         2681.62         2699.47         2699.47 
      0.0921407         2412.26          2421.6          2421.6 
      0.0982031         2201.28         2187.34         2187.34 
       0.104506         1993.32         2003.81         2003.81 
       0.110769         1867.41         1872.29         1872.29 
       0.116806         1795.24         1775.61         1775.61 
       0.122832         1688.73         1689.55         1689.55 
       0.129052         1602.05         1596.56         1596.56 
       0.135211         1521.86         1493.78         1493.78 
       0.141259         1402.13         1384.98         1384.98 
       0.147318         1283.72         1276.18         1276.18 
       0.153489         1198.37         1174.81         1174.81 
       0.159709         1133.87         1088.94         1088.94 
       0.165845         1043.23         1022.08         1022.08 
       0.171974         1019.07         970.479         970.479 
       0.178125         980.114         928.569         928.569 
       0.184229         918.893         890.808         890.808 
        0.19034         895.127         852.139         852.139 
       0.196428         859.626         810.532         810.532 
       0.202534         799.803         766.113         766.113 
       0.208729         776.149         720.611         720.611 
       0.214876         740.869         677.933         677.933 
       0.220989         690.766         640.198         640.198 
       0.227147         674.663         607.929         607.929 
        0.23329         649.816         581.094         581.094 
       0.239377         636.117         558.391         558.391 
       0.245482         605.542         537.723         537.723 
       0.251667         581.589         517.337         517.337 
       0.257832         573.706         496.589         496.589 
       0.263955          541.69         475.386         475.386 
       0.270079         521.801         454.075         454.075 
        0.27624         498.449         433.319         433.319 
       0.282372         485.558         414.108         414.108 
        0.28843         481.087          396.98          396.98 
       0.294538         457.549         381.622         381.622 
       0.300721         441.865         367.746         367.746 
        0.30691         434.913         355.008         355.008 
       0.313033         416.656         343.034         343.034 
       0.319153         409.285         331.297         331.297 
       0.325316          398.62         319.555         319.555 
        0.33145         388.446         307.971         307.971 
       0.337538         374.899         296.763         296.763 
       0.343633          363.02         286.043         286.043 
       0.349808         353.332          275.86          275.86 
       0.355968         345.675         266.458         266.458 
       0.362074         336.582         257.832         257.832 
       0.368217         331.987         249.741         249.741 
       0.374374         324.696         242.055         242.055 
       0.380519         311.657         234.669         234.669 
       0.386598         306.603         227.559         227.559 
       0.392688         299.146         220.593         220.593 
        0.39888         292.184         213.705         213.705 
       0.405048          286.53         207.083         207.083 
       0.411186         283.565          200.78          200.78 
       0.417313         277.707         194.811         194.811 
       0.423458         270.381         189.145         189.145 
       0.429607         264.379         183.768         183.768 
       0.435692         259.522         178.701         178.701 
       0.441815         254.464         173.807         173.807 
       0.447964         247.319         169.057         169.057 
       0.454126         243.456         164.444         164.444 
       0.460267          240.66         159.988         159.988 
       0.466387         235.875         155.687         155.687 
        0.47254         232.942         151.514         151.514 
       0.478662         225.868         147.525         147.525 
       0.484765         223.153         143.712         143.712 
       0.490885         219.814         140.044         140.044 
       0.497035          217.23         136.503         136.503 
       0.503198         214.053          133.09          133.09 
       0.509342          208.41         129.808         129.808 
       0.515458         206.025         126.645         126.645 
       0.521598          201.24         123.567         123.567 
       0.527764          199.14         120.572         120.572 
       0.533884         198.398         117.695         117.695 
           0.54           193.5         114.916         114.916 
       0.546137         189.162          112.22          112.22 
       0.552299         187.518         109.605         109.605 
       0.558452         184.172         107.083         107.083 
       0.564573         183.129         104.659         104.659 
       0.570708         178.746         102.308         102.308 
       0.576825         176.451         100.038         100.038 
       0.582926         174.597          97.841          97.841 
       0.589034         172.059         95.7057         95.7057 
       0.595184          170.52         93.6192         93.6192 
       0.601379         166.728         91.5811         91.5811 
       0.607522         164.026         89.6213         89.6213 
       0.613639         162.697          87.729          87.729 
       0.619772         160.701         85.8884         85.8884 
       0.625918         159.377         84.0986         84.0986 
       0.632068         155.935         82.3599         82.3599 
       0.638161         154.009         80.6868         80.6868 
         0.6443         153.365         79.0489         79.0489 
       0.650464          150.39         77.4511         77.4511 
       0.656582         149.691         75.9096         75.9096 
       0.662703         147.956         74.4101         74.4101 
       0.668861         144.967         72.9431         72.9431 
       0.675024         144.965         71.5149         71.5149 
       0.681124         142.608           70.14           70.14 
       0.687237         140.387         68.7989         68.7989 
       0.693381         139.583         67.4872         67.4872 
       0.699536         137.765          66.208          66.208 
       0.705665         135.916          64.968          64.968 
       0.711789         134.222         63.7615         63.7615 
       0.717957         132.814         62.5779         62.5779 
        0.72409         131.815         61.4314         61.4314 
       0.730186         131.227          60.321          60.321 
       0.736317          128.97         59.2324         59.2324 
       0.742472         127.346         58.1671         58.1671 
       0.748622         125.402         57.1293         57.1293 
        0.75476         125.388         56.1194         56.1194 
       0.760888         124.362         55.1358         55.1358 
       0.767043         122.151         54.1722         54.1722 
       0.773185         120.758         53.2339         53.2339 
       0.779291          119.44         52.3235         52.3235 
       0.785407         118.173         51.4333         51.4333 
       0.791564         117.742         50.5585         50.5585 
       0.797719         116.308         49.7048         49.7048 
       0.803834         115.626         48.8764         48.8764 
       0.809972         114.863         48.0642         48.0642 
       0.816124         113.359          47.269          47.269 
       0.822261         112.037         46.4941         46.4941 
       0.828378         111.804         45.7392         45.7392 
       0.834502         110.018         45.0006         45.0006 
       0.840667          109.49         44.2738         44.2738 
       0.846816          108.49         43.5652         43.5652 
       0.852925         107.334         42.8768         42.8768 
       0.859047           106.7         42.2021         42.2021 
       0.865192          105.43         41.5398         41.5398 
       0.871341          104.34         40.8915         40.8915 
       0.877463         103.691         40.2601         40.2601 
       0.883569          103.43         39.6439         39.6439 
       0.889708         102.484         39.0376         39.0376 
       0.895864         101.533         38.4425         38.4425 
       0.902008         100.572         37.8613         37.8613 
       0.908149         99.3435         37.2925         37.2925 
       0.914301         99.2186         36.7347         36.7347 
       0.920448         98.7318          36.189          36.189 
       0.926574         96.8216         35.6563         35.6563 
       0.932687         96.6191         35.1357         35.1357 
       0.938823         95.8199         34.6237         34.6237 
       0.944975         94.7165         34.1209         34.1209 
       0.951105         94.0051           33.63           33.63 
       0.957225         93.9318         33.1497         33.1497 
       0.963368         92.8098         32.6773         32.6773 
       0.969511         92.0547         32.2142         32.2142 
       0.975621         91.3605         31.7626         31.7626 
       0.981748         90.5117         31.3187         31.3187 
       0.987916         89.9098         30.8805         30.8805 
        0.99406         89.5387         30.4525         30.4525 
        1.00019         88.4601         30.0335         30.0335 
        1.00632         87.9214         29.6228         29.6228 
        1.01246         87.3164         29.2193         29.2193 
        1.01859         86.9334         28.8241         28.8241 
        1.02471         86.0524         28.4367         28.4367 
        1.03085         85.3577         28.0552         28.0552 
        1.03698         84.8414         27.6816         27.6816 
        1.04314          84.212         27.3133         27.3133 
        1.04929         83.7393         26.9526         26.9526 
        1.05541         83.1689            26.6            26.6 
        1.06154         82.6711         26.2529         26.2529 
        1.06769         81.8089         25.9115         25.9115 
        1.07382         81.1863         25.5773         25.5773 
        1.07993         80.9269         25.2499         25.2499 
        1.08607         80.2553         24.9268         24.9268 
        1.09222         79.9734         24.6092         24.6092 
        1.09836         79.1438         24.2975         24.2975 
        1.10449         78.7383         23.9917         23.9917 
        1.11063         78.0717         23.6908         23.6908 
        1.11677         77.7374         23.3953         23.3953 
         1.1229         77.0411         23.1053         23.1053 
        1.12903         76.8248         22.8201         22.8201 
        1.13518         76.5125         22.5395         22.5395 
        1.14131         75.7707         22.2638         22.2638 
        1.14745         75.1699          21.993          21.993 
        1.15359         74.3792         21.7266         21.7266 
        1.15973         74.3483         21.4646         21.4646 
        1.16584         73.7874         21.2081         21.2081 
        1.17197         73.1312         20.9556         20.9556 
        1.17811         72.7405         20.7063         20.7063 
        1.18424         71.9831         20.4619         20.4619 
        1.19038         71.9281         20.2208         20.2208 
        1.19652         71.5146         19.9837         19.9837 
        1.20267         70.9172         19.7504         19.7504 
        1.20881         70.4655          19.521          19.521 
        1.21495         70.1428         19.2956         19.2956 
        1.22108         69.8281         19.0738         19.0738 
         1.2272         69.1551         18.8561         18.8561 
        1.23334         68.8625         18.6413         18.6413 
        1.23949         68.4365         18.4294         18.4294 
        1.24562         67.9125         18.2213         18.2213 
        1.25174          67.485         18.0169         18.0169 
        1.25789         67.5269          17.815          17.815 
        1.26402          66.882         17.6165         17.6165 
        1.27014         66.5703         17.4216         17.4216 
        1.27628         65.9242         17.2291         17.2291 
        1.28244         65.7722         17.0392         17.0392 
        1.28858         65.3383         16.8523         16.8523 
        1.29471         64.9732         16.6688         16.6688 
        1.30084         64.3653         16.4881         16.4881 
        1.30697          64.394         16.3099         16.3099 
        1.31312            63.8         16.1341         16.1341 
        1.31925         63.3401         15.9614         15.9614 
        1.32537         63.0287         15.7915         15.7915 
        1.33151         62.7369         15.6234         15.6234 
        1.33765         62.3351         15.4579         15.4579 
        1.34378         62.1337         15.2952         15.2952 
        1.34992         61.7004         15.1347         15.1347 
        1.35606         61.2574         14.9762         14.9762 
         1.3622         60.9605         14.8203         14.8203 
        1.36833         60.5954         14.6669         14.6669 
        1.37445         60.0904         14.5159         14.5159 
        1.38059         60.0045         14.3665         14.3665 
        1.38675         59.3345         14.2189         14.2189 
        1.39288         59.3503          14.074          14.074 
        1.39901         58.8112         13.9312         13.9312 
        1.40515         58.5931           13.79           13.79 
         1.4113         58.4593         13.6509         13.6509 
        1.41742         58.0407         13.5142         13.5142 
        1.42355         57.6153         13.3792         13.3792 
         1.4297         57.3296         13.2456         13.2456 
        1.43585         56.9212         13.1139         13.1139 
        1.44198         56.5943         12.9846         12.9846 
        1.44809          56.275         12.8572         12.8572 
        1.45423         56.0502         12.7311         12.7311 
        1.46036         55.7179         12.6069         12.6069 
        1.46649         55.5749         12.4844         12.4844 
        1.47263         55.1904         12.3634         12.3634 
        1.47877         54.9515          12.244          12.244 
        1.48491         54.6954         12.1261         12.1261 
        1.49104         54.2019           12.01           12.01 
        1.49718         54.0059         11.8953         11.8953 
        1.50333          53.809          11.782          11.782 
        1.50947         53.4389         11.6703         11.6703 
         1.5156         53.2165         11.5603         11.5603 
        1.52172          52.834         11.4518         11.4518 
        1.52787         52.5536         11.3444         11.3444 
          1.534         52.3394         11.2385         11.2385 
        1.54013         52.1762         11.1341         11.1341 
        1.54627         51.6708         11.0309         11.0309 
        1.55241         51.4134         10.9289         10.9289 
        1.55855         51.3308         10.8284         10.8284 
        1.56467         50.9307         10.7294         10.7294 
         1.5708         50.7968         10.6314         10.6314 
        1.57695         50.4842         10.5345         10.5345 
        1.58308         50.1303          10.439          10.439 
        1.58922         49.9006         10.3447         10.3447 
        1.59535         49.7331         10.2516         10.2516 
         1.6015         49.6507         10.1595         10.1595 
        1.60764          49.259         10.0685         10.0685 
        1.61376         48.9462         9.97898         9.97898 
        1.61989         48.6568         9.89045         9.89045 
        1.62604         48.4492          9.8028          9.8028 
        1.63218         48.1871         9.71628         9.71628 
        1.63831         48.0435         9.63102         9.63102 
        1.64444         47.7336         9.54675         9.54675 
        1.65059         47.5407         9.46329         9.46329 
        1.65673         47.1921         9.38094         9.38094 
        1.66285          47.126          9.2998          9.2998 
        1.66898         46.6372         9.21959         9.21959 
        1.67512         46.5765         9.14019         9.14019 
        1.68127         46.3165         9.06166         9.06166 
         1.6874         46.0625         8.98423         8.98423 
        1.69353         45.9361         8.90775         8.90775 
        1.69967         45.7383         8.83199         8.83199 
        1.70581         45.3555         8.75716         8.75716 
        1.71193         45.1492         8.68347         8.68347 
        1.71806         44.9849         8.61049         8.61049 
        1.72421         44.7434          8.5382          8.5382 
        1.73035         44.5226         8.46683         8.46683 
        1.73649         44.2073          8.3963          8.3963 
        1.74262         43.9205         8.32664         8.32664 
        1.74876         43.8413         8.25772         8.25772 
        1.75489          43.555         8.18974         8.18974 
        1.76101         43.3794         8.12254         8.12254 
        1.76715          43.319         8.05601         8.05601 
        1.77329         42.8662         7.99015         7.99015 
        1.77943         42.8858         7.92501         7.92501 
        1.78557         42.6395         7.86069         7.86069 
        1.79171         42.4195         7.79708         7.79708 
        1.79785          42.172         7.73417         7.73417 
        1.80399         41.9687         7.67197         7.67197 
        1.81012         41.8215         7.61054         7.61054 
        1.81625         41.4788         7.54982         7.54982 
        1.82239         41.3051         7.48967         7.48967 
        1.82853         41.1893         7.43021         7.43021 
        1.83466         40.9269         7.37146         7.37146 
        1.84078         40.7531         7.31341         7.31341 
        1.84692         40.5206          7.2559          7.2559 
        1.85306         40.2921         7.19893         7.19893 
         1.8592         40.2002         7.14267         7.14267 
        1.86533         39.9935         7.08705         7.08705 
        1.87147         39.7735         7.03196         7.03196 
        1.87761         39.5131         6.97743         6.97743 
