# k  (h/Mpc)    P(k)  (Mpc/h)^3    P_linear(k)  (Mpc/h)^3     P_NL(k)  ShotnoiseSubtracted = false
     0.00783031         13318.2         13383.1         13383.1 
       0.013688         16515.8         16947.4         16947.4 
       0.019231         17207.1         17474.2         17474.2 
      0.0249154         16463.4         16459.6         16459.6 
      0.0312784           14403         14583.4         14583.4 
      0.0375637         12463.5         12725.2         12725.2 
      0.0433917         11210.4         11320.8         11320.8 
      0.0492413           10082           10274           10274 
      0.0555754         9330.03         9453.42         9453.42 
      0.0619321          8413.5         8792.46         8792.46 
       0.067871         7946.67            8190            8190 
      0.0738098         7381.32         7536.54         7536.54 
      0.0800417         6685.04         6799.98         6799.98 
      0.0862327         5961.57         6073.05         6073.05 
      0.0921407         5388.34         5447.91         5447.91 
      0.0982031          4943.4          4920.9          4920.9 
       0.104506         4468.99            4508            4508 
       0.110769          4191.9         4212.13         4212.13 
       0.116806         4037.48         3994.62         3994.62 
       0.122832          3800.4         3801.01         3801.01 
       0.129052         3588.36         3591.81         3591.81 
       0.135211         3446.42         3360.58         3360.58 
       0.141259         3171.24         3115.81         3115.81 
       0.147318         2919.22         2871.04         2871.04 
       0.153489         2744.67         2642.98         2642.98 
       0.159709         2633.89         2449.79         2449.79 
       0.165845         2419.95          2299.4          2299.4 
       0.171974         2368.94          2183.3          2183.3 
       0.178125         2299.23         2089.01         2089.01 
       0.184229         2128.28         2004.06         2004.06 
        0.19034         2092.65         1917.07         1917.07 
       0.196428         2026.85         1823.46         1823.46 
       0.202534         1897.91         1723.53         1723.53 
       0.208729         1855.04         1621.17         1621.17 
       0.214876         1770.82         1525.15         1525.15 
       0.220989         1679.66         1440.26         1440.26 
       0.227147         1637.62         1367.66         1367.66 
        0.23329          1576.9         1307.29         1307.29 
       0.239377         1566.74         1256.22         1256.22 
       0.245482         1494.74         1209.72         1209.72 
       0.251667         1439.95         1163.86         1163.86 
       0.257832         1418.55         1117.18         1117.18 
       0.263955         1352.67         1069.48         1069.48 
       0.270079         1315.96         1021.54         1021.54 
        0.27624         1260.77         974.842         974.842 
       0.282372         1244.64         931.623         931.623 
        0.28843            1225         893.089         893.089 
       0.294538         1168.64         858.539         858.539 
       0.300721         1145.56          827.32          827.32 
        0.30691         1120.15         798.664         798.664 
       0.313033         1077.01         771.725         771.725 
       0.319153         1064.69         745.321         745.321 
       0.325316         1051.22         718.905         718.905 
        0.33145         1028.61         692.845         692.845 
       0.337538         994.623         667.631         667.631 
       0.343633         970.602         643.512         643.512 
       0.349808         952.306         620.605         620.605 
       0.355968         933.898         599.453         599.453 
       0.362074         905.079         580.047         580.047 
       0.368217         902.306         561.845         561.845 
       0.374374         888.913         544.552         544.552 
       0.380519         857.301         527.936         527.936 
       0.386598         851.853         511.941         511.941 
       0.392688         831.754          496.27          496.27 
        0.39888         813.042         480.773         480.773 
       0.405048         798.097         465.877         465.877 
       0.411186         795.868         451.696         451.696 
       0.417313         791.314         438.267         438.267 
       0.423458          767.03          425.52          425.52 
       0.429607         746.179         413.424         413.424 
       0.435692         739.398         402.025         402.025 
       0.441815         726.082         391.015         391.015 
       0.447964         715.712         380.328         380.328 
       0.454126         707.068          369.95          369.95 
       0.460267         697.207         359.925         359.925 
       0.466387         685.963          350.25          350.25 
        0.47254         674.703         340.862         340.862 
       0.478662         664.911         331.888         331.888 
       0.484765         657.781          323.31          323.31 
       0.490885          651.03         315.057         315.057 
       0.497035         638.538         307.092         307.092 
       0.503198         637.628         299.415         299.415 
       0.509342          625.53          292.03          292.03 
       0.515458         613.367         284.915         284.915 
       0.521598         609.665         277.989         277.989 
       0.527764         596.764         271.251         271.251 
       0.533884         592.147          264.78          264.78 
           0.54         586.485         258.527         258.527 
       0.546137         577.297         252.462         252.462 
       0.552299         574.721         246.578         246.578 
       0.558452         567.047         240.906         240.906 
       0.564573         562.143         235.452         235.452 
       0.570708         556.725         230.164         230.164 
       0.576825          545.51         225.056         225.056 
       0.582926         543.797         220.114         220.114 
       0.589034         535.879          215.31          215.31 
       0.595184         531.129         210.616         210.616 
       0.601379         522.847         206.031         206.031 
       0.607522         514.395         201.622         201.622 
       0.613639         513.299         197.364         197.364 
       0.619772         510.402         193.224         193.224 
       0.625918         501.014         189.197         189.197 
       0.632068         498.585         185.286         185.286 
       0.638161         492.848         181.522         181.522 
         0.6443         487.537         177.837         177.837 
       0.650464         482.781         174.242         174.242 
       0.656582         478.854         170.774         170.774 
       0.662703         474.063         167.401         167.401 
       0.668861          468.13           164.1           164.1 
       0.675024         465.291         160.888         160.888 
       0.681124         457.767         157.794         157.794 
       0.687237         456.817         154.777         154.777 
       0.693381         449.693         151.826         151.826 
       0.699536         448.922         148.949         148.949 
       0.705665         443.071         146.159         146.159 
       0.711789         441.839         143.445         143.445 
       0.717957         435.569         140.782         140.782 
        0.72409         431.403         138.203         138.203 
       0.730186         432.076         135.705         135.705 
       0.736317         424.909         133.256         133.256 
       0.742472         420.822         130.859         130.859 
       0.748622         418.108         128.524         128.524 
        0.75476         414.579         126.252         126.252 
       0.760888          411.51         124.039         124.039 
       0.767043         408.523         121.871         121.871 
       0.773185         405.767         119.761         119.761 
       0.779291         400.739         117.712         117.712 
       0.785407         398.078          115.71          115.71 
       0.791564         395.497         113.742         113.742 
       0.797719         389.428         111.821         111.821 
       0.803834         391.391         109.958         109.958 
       0.809972         384.951          108.13          108.13 
       0.816124         381.432         106.341         106.341 
       0.822261         378.941         104.598         104.598 
       0.828378         377.098           102.9           102.9 
       0.834502         371.368         101.238         101.238 
       0.840667         371.421          99.603          99.603 
       0.846816         365.553         98.0089         98.0089 
       0.852925         366.034         96.4603         96.4603 
       0.859047         362.403         94.9423         94.9423 
       0.865192         360.597         93.4524         93.4524 
       0.871341         355.537         91.9939         91.9939 
       0.877463         353.845         90.5735         90.5735 
       0.883569         351.026         89.1871         89.1871 
       0.889708         347.679          87.823          87.823 
       0.895864         344.392         86.4843         86.4843 
       0.902008         343.156         85.1767         85.1767 
       0.908149         340.001         83.8972         83.8972 
       0.914301         338.504         82.6423         82.6423 
       0.920448         335.517         81.4145         81.4145 
       0.926574         333.255         80.2163         80.2163 
       0.932687         331.862          79.045          79.045 
       0.938823         327.973         77.8932         77.8932 
       0.944975          327.13          76.762          76.762 
       0.951105         324.005         75.6577         75.6577 
       0.957225         320.003         74.5772         74.5772 
       0.963368         320.653         73.5143         73.5143 
       0.969511         314.696         72.4725         72.4725 
       0.975621         314.098         71.4566         71.4566 
       0.981748          312.57         70.4578         70.4578 
       0.987916         310.659         69.4721         69.4721 
        0.99406         307.505         68.5091         68.5091 
        1.00019          304.85         67.5664         67.5664 
        1.00632         304.477         66.6426         66.6426 
        1.01246         301.745         65.7349         65.7349 
        1.01859         298.287         64.8457         64.8457 
        1.02471         296.496         63.9743         63.9743 
        1.03085          295.43          63.116          63.116 
        1.03698         293.646         62.2755         62.2755 
        1.04314         292.431          61.447          61.447 
        1.04929         290.443         60.6355         60.6355 
        1.05541         287.069         59.8422         59.8422 
        1.06154         285.469         59.0612         59.0612 
        1.06769          282.87         58.2932         58.2932 
        1.07382         281.695         57.5414         57.5414 
        1.07993         279.575         56.8047         56.8047 
        1.08607         277.874         56.0781         56.0781 
        1.09222         275.654         55.3635         55.3635 
        1.09836         274.666         54.6623         54.6623 
        1.10449         272.631         53.9742         53.9742 
        1.11063         270.508         53.2974         53.2974 
        1.11677         267.887         52.6325         52.6325 
         1.1229         267.416         51.9802         51.9802 
        1.12903         265.081         51.3385         51.3385 
        1.13518         263.103         50.7073         50.7073 
        1.14131         262.224         50.0871         50.0871 
        1.14745         259.035         49.4777         49.4777 
        1.15359         257.246         48.8785         48.8785 
        1.15973         256.323         48.2891         48.2891 
        1.16584         254.865         47.7121         47.7121 
        1.17197         253.116         47.1438         47.1438 
        1.17811         250.765         46.5832         46.5832 
        1.18424         249.448         46.0333         46.0333 
        1.19038         248.252         45.4909         45.4909 
        1.19652          245.24         44.9575         44.9575 
        1.20267         244.869         44.4327         44.4327 
        1.20881         242.835         43.9165         43.9165 
        1.21495         241.987         43.4094         43.4094 
        1.22108         240.205         42.9105         42.9105 
         1.2272         237.372         42.4206         42.4206 
        1.23334          236.71         41.9374         41.9374 
        1.23949         235.398         41.4606         41.4606 
        1.24562         233.803         40.9927         40.9927 
        1.25174         232.315         40.5327         40.5327 
        1.25789         230.221         40.0784         40.0784 
        1.26402         229.866          39.632          39.632 
        1.27014         228.613         39.1935         39.1935 
        1.27628         226.301         38.7604         38.7604 
        1.28244         224.986         38.3331         38.3331 
        1.28858         223.695         37.9128         37.9128 
        1.29471         222.495         37.4998         37.4998 
        1.30084         221.326         37.0934         37.0934 
        1.30697         219.006         36.6924         36.6924 
        1.31312         217.782         36.2969         36.2969 
        1.31925         216.517         35.9085         35.9085 
        1.32537         215.785         35.5262         35.5262 
        1.33151         213.995         35.1481         35.1481 
        1.33765         212.309         34.7758         34.7758 
        1.34378         211.323         34.4097         34.4097 
        1.34992         209.502         34.0486         34.0486 
        1.35606         208.573          33.692          33.692 
         1.3622         207.165         33.3412         33.3412 
        1.36833         205.724         32.9963         32.9963 
        1.37445         205.396         32.6565         32.6565 
        1.38059         203.043         32.3204         32.3204 
        1.38675         201.712         31.9884         31.9884 
        1.39288         200.654         31.6623         31.6623 
        1.39901         199.145          31.341          31.341 
        1.40515         198.461         31.0234         31.0234 
         1.4113          196.82         30.7105         30.7105 
        1.41742         195.143          30.403          30.403 
        1.42355         195.234         30.0993         30.0993 
         1.4297         193.387         29.7988         29.7988 
        1.43585         192.358         29.5025         29.5025 
        1.44198         190.573         29.2115         29.2115 
        1.44809         189.894         28.9249         28.9249 
        1.45423         188.692         28.6412         28.6412 
        1.46036         187.588         28.3619         28.3619 
        1.46649         186.415         28.0862         28.0862 
        1.47263         185.612         27.8139         27.8139 
        1.47877         184.051         27.5455         27.5455 
        1.48491         182.565         27.2802         27.2802 
        1.49104         181.058         27.0189         27.0189 
        1.49718         180.478         26.7609         26.7609 
        1.50333         178.893          26.506          26.506 
        1.50947          178.16         26.2548         26.2548 
         1.5156         176.993         26.0074         26.0074 
        1.52172         176.055         25.7631         25.7631 
        1.52787         174.915         25.5215         25.5215 
          1.534         174.076         25.2833         25.2833 
        1.54013         172.733         25.0485         25.0485 
        1.54627         171.835         24.8162         24.8162 
        1.55241         170.938         24.5868         24.5868 
        1.55855          170.05         24.3607         24.3607 
        1.56467         168.831         24.1381         24.1381 
         1.5708          167.37         23.9176         23.9176 
        1.57695         166.666         23.6996         23.6996 
        1.58308         165.491         23.4848         23.4848 
        1.58922         164.545         23.2725         23.2725 
        1.59535         163.194          23.063          23.063 
         1.6015         162.616         22.8558         22.8558 
        1.60764         161.412         22.6512         22.6512 
        1.61376         160.163         22.4498         22.4498 
        1.61989         159.383         22.2506         22.2506 
        1.62604         158.303         22.0534         22.0534 
        1.63218         157.491         21.8588         21.8588 
        1.63831         156.701         21.6669         21.6669 
        1.64444         155.383         21.4774         21.4774 
        1.65059         154.631         21.2896         21.2896 
        1.65673         153.535         21.1043         21.1043 
        1.66285          152.93         20.9218         20.9218 
        1.66898          151.84         20.7414         20.7414 
        1.67512         150.819         20.5627         20.5627 
        1.68127         150.068         20.3861         20.3861 
         1.6874         149.001         20.2119         20.2119 
        1.69353         148.547         20.0398         20.0398 
        1.69967         147.201         19.8694         19.8694 
        1.70581         146.745          19.701          19.701 
        1.71193         145.528         19.5353         19.5353 
        1.71806         144.211         19.3711         19.3711 
        1.72421          143.74         19.2084         19.2084 
        1.73035         142.793         19.0479         19.0479 
        1.73649         141.759         18.8892         18.8892 
        1.74262         141.242         18.7325         18.7325 
        1.74876         140.362         18.5774         18.5774 
        1.75489         139.601         18.4245         18.4245 
        1.76101         138.354         18.2733         18.2733 
        1.76715         137.505         18.1237         18.1237 
        1.77329         136.754         17.9755         17.9755 
        1.77943         135.765         17.8289         17.8289 
        1.78557         135.198         17.6842         17.6842 
        1.79171         134.425         17.5411         17.5411 
        1.79785         133.394         17.3996         17.3996 
        1.80399         132.705         17.2597         17.2597 
        1.81012         131.861         17.1215         17.1215 
        1.81625         131.127         16.9849         16.9849 
        1.82239         130.301         16.8495         16.8495 
        1.82853         129.491         16.7158         16.7158 
        1.83466         128.436         16.5836         16.5836 
        1.84078         128.069          16.453          16.453 
        1.84692         127.418         16.3236         16.3236 
        1.85306         126.365         16.1955         16.1955 
         1.8592         125.857         16.0689         16.0689 
        1.86533         124.695         15.9438         15.9438 
        1.87147         124.176         15.8198         15.8198 
        1.87761         123.258         15.6972         15.6972 
