# k  (h/Mpc)    P(k)  (Mpc/h)^3    P_linear(k)  (Mpc/h)^3     P_NL(k)  ShotnoiseSubtracted = false
     0.00783031         10000.7         10051.8         10051.8 
       0.013688         12427.9         12713.8         12713.8 
       0.019231         12936.7         13105.4         13105.4 
      0.0249154         12354.6         12343.3         12343.3 
      0.0312784         10833.5         10935.7         10935.7 
      0.0375637         9386.35         9542.09         9542.09 
      0.0433917         8434.94         8488.87         8488.87 
      0.0492413          7593.7         7703.85         7703.85 
      0.0555754         7029.66         7088.51         7088.51 
      0.0619321         6361.01         6592.87         6592.87 
       0.067871          6003.7         6141.11         6141.11 
      0.0738098         5565.84         5651.11         5651.11 
      0.0800417         5042.61         5098.81         5098.81 
      0.0862327         4493.72         4553.74         4553.74 
      0.0921407         4053.07         4084.99         4084.99 
      0.0982031          3710.3         3689.82         3689.82 
       0.104506         3355.64         3380.21         3380.21 
       0.110769         3145.99         3158.36         3158.36 
       0.116806         3029.42         2995.27         2995.27 
       0.122832         2848.78         2850.09         2850.09 
       0.129052         2696.19         2693.23         2693.23 
       0.135211         2578.39         2519.85         2519.85 
       0.141259         2373.22         2336.31         2336.31 
       0.147318          2177.9         2152.77         2152.77 
       0.153489         2041.96         1981.77         1981.77 
       0.159709         1948.81         1836.91         1836.91 
       0.165845         1789.98         1724.14         1724.14 
       0.171974         1753.02         1637.09         1637.09 
       0.178125         1694.96         1566.39         1566.39 
       0.184229         1575.74         1502.69         1502.69 
        0.19034         1543.56         1437.46         1437.46 
       0.196428         1490.38         1367.28         1367.28 
       0.202534          1389.9         1292.34         1292.34 
       0.208729         1356.75         1215.59         1215.59 
       0.214876         1295.16          1143.6          1143.6 
       0.220989         1218.45         1079.94         1079.94 
       0.227147         1189.89         1025.51         1025.51 
        0.23329         1146.13         980.239         980.239 
       0.239377         1132.85         941.942         941.942 
       0.245482          1078.6         907.077         907.077 
       0.251667         1038.16         872.688         872.688 
       0.257832         1024.38         837.688         837.688 
       0.263955         971.954         801.921         801.921 
       0.270079         941.156         765.971         765.971 
        0.27624         900.889          730.96          730.96 
       0.282372          884.86         698.553         698.553 
        0.28843         875.192         669.659         669.659 
       0.294538         831.902         643.753         643.753 
       0.300721         810.977         620.344         620.344 
        0.30691         796.226         598.857         598.857 
       0.313033         763.038         578.658         578.658 
       0.319153         751.961         558.859         558.859 
       0.325316         740.229         539.052         539.052 
        0.33145         724.056         519.511         519.511 
       0.337538         698.513         500.605         500.605 
       0.343633         679.147         482.521         482.521 
       0.349808         664.016         465.344         465.344 
       0.355968         651.647         449.484         449.484 
       0.362074          630.67         434.933         434.933 
       0.368217         627.599         421.285         421.285 
       0.374374         616.884         408.318         408.318 
       0.380519         593.375         395.859         395.859 
       0.386598         587.391         383.865         383.865 
       0.392688         574.529         372.115         372.115 
        0.39888         559.581         360.495         360.495 
       0.405048          549.88         349.325         349.325 
       0.411186         547.733         338.692         338.692 
       0.417313         541.727         328.623         328.623 
       0.423458         525.668         319.065         319.065 
       0.429607         511.667         309.995         309.995 
       0.435692         504.471         301.447         301.447 
       0.441815         496.412         293.192         293.192 
       0.447964         486.214         285.179         285.179 
       0.454126         480.594         277.397         277.397 
       0.460267         472.885          269.88          269.88 
       0.466387         465.271         262.625         262.625 
        0.47254         458.237         255.586         255.586 
       0.478662         448.737         248.857         248.857 
       0.484765         443.955         242.425         242.425 
       0.490885         439.484         236.237         236.237 
       0.497035         430.855         230.264         230.264 
       0.503198         430.006         224.508         224.508 
       0.509342         419.963         218.971         218.971 
       0.515458         413.064         213.636         213.636 
       0.521598         406.933         208.443         208.443 
       0.527764         400.704         203.391         203.391 
       0.533884         398.857         198.538         198.538 
           0.54         393.122          193.85          193.85 
       0.546137         385.039         189.302         189.302 
       0.552299         384.249          184.89          184.89 
       0.558452         377.992         180.637         180.637 
       0.564573         374.314         176.548         176.548 
       0.570708         369.566         172.582         172.582 
       0.576825         362.788         168.752         168.752 
       0.582926         360.357         165.046         165.046 
       0.589034         355.075         161.444         161.444 
       0.595184         352.627         157.925         157.925 
       0.601379          346.78         154.487         154.487 
       0.607522         340.435         151.181         151.181 
       0.613639         338.869         147.988         147.988 
       0.619772         337.429         144.884         144.884 
       0.625918         331.755         141.864         141.864 
       0.632068         327.898         138.932         138.932 
       0.638161          325.02         136.109         136.109 
         0.6443         322.073         133.346         133.346 
       0.650464         317.319         130.651         130.651 
       0.656582         314.439         128.051         128.051 
       0.662703         312.234         125.521         125.521 
       0.668861         307.045         123.046         123.046 
       0.675024         305.511         120.637         120.637 
       0.681124          301.88         118.318         118.318 
       0.687237         299.468         116.056         116.056 
       0.693381         295.753         113.843         113.843 
       0.699536         293.436         111.685         111.685 
       0.705665         290.349         109.593         109.593 
       0.711789         288.143         107.558         107.558 
       0.717957         284.743         105.561         105.561 
        0.72409         281.583         103.627         103.627 
       0.730186         283.087         101.754         101.754 
       0.736317         277.976         99.9181         99.9181 
       0.742472         274.831         98.1211         98.1211 
       0.748622         271.492         96.3704         96.3704 
        0.75476         271.634         94.6669         94.6669 
       0.760888         268.253         93.0076         93.0076 
       0.767043         265.163         91.3821         91.3821 
       0.773185         263.721         89.7993         89.7993 
       0.779291         259.721         88.2635         88.2635 
       0.785407         258.789         86.7619         86.7619 
       0.791564         256.285         85.2863         85.2863 
       0.797719         252.311         83.8461         83.8461 
       0.803834         254.094         82.4488         82.4488 
       0.809972         250.657         81.0787         81.0787 
       0.816124         247.256         79.7372         79.7372 
       0.822261         245.141         78.4301         78.4301 
       0.828378         244.887         77.1567         77.1567 
       0.834502         241.196         75.9107         75.9107 
       0.840667         241.123         74.6846         74.6846 
       0.846816          236.97         73.4894         73.4894 
       0.852925         236.457         72.3282         72.3282 
       0.859047         234.013         71.1899         71.1899 
       0.865192          233.63         70.0728         70.0728 
       0.871341         230.342         68.9791         68.9791 
       0.877463         228.457         67.9141         67.9141 
       0.883569         228.002         66.8746         66.8746 
       0.889708         225.747         65.8518         65.8518 
       0.895864         223.839          64.848          64.848 
       0.902008         221.722         63.8675         63.8675 
       0.908149         219.915         62.9081         62.9081 
       0.914301         218.799         61.9671         61.9671 
       0.920448          218.07         61.0465         61.0465 
       0.926574          215.54          60.148          60.148 
       0.932687         214.538         59.2698         59.2698 
       0.938823         212.734         58.4062         58.4062 
       0.944975         211.491          57.558          57.558 
       0.951105         209.387         56.7299         56.7299 
       0.957225         208.009         55.9197         55.9197 
       0.963368          207.13         55.1228         55.1228 
       0.969511         203.993         54.3415         54.3415 
       0.975621         202.845         53.5798         53.5798 
       0.981748         201.765         52.8309         52.8309 
       0.987916         200.869         52.0918         52.0918 
        0.99406         199.097         51.3697         51.3697 
        1.00019         197.872         50.6629         50.6629 
        1.00632         196.998         49.9702         49.9702 
        1.01246         195.306         49.2895         49.2895 
        1.01859          193.49         48.6228         48.6228 
        1.02471         191.999         47.9694         47.9694 
        1.03085         190.934         47.3259         47.3259 
        1.03698         189.586         46.6957         46.6957 
        1.04314         189.236         46.0744         46.0744 
        1.04929         187.902         45.4659         45.4659 
        1.05541         186.442         44.8711         44.8711 
        1.06154         184.849         44.2855         44.2855 
        1.06769         183.542         43.7096         43.7096 
        1.07382         183.056         43.1459         43.1459 
        1.07993         181.067         42.5935         42.5935 
        1.08607         179.995         42.0486         42.0486 
        1.09222         178.858         41.5128         41.5128 
        1.09836         177.981         40.9871         40.9871 
        1.10449         176.316         40.4711         40.4711 
        1.11063         175.206         39.9636         39.9636 
        1.11677         174.463         39.4651         39.4651 
         1.1229         173.012          38.976          38.976 
        1.12903          172.22         38.4948         38.4948 
        1.13518          170.86         38.0215         38.0215 
        1.14131         169.949         37.5565         37.5565 
        1.14745         168.484         37.0996         37.0996 
        1.15359         166.933         36.6502         36.6502 
        1.15973         166.662         36.2083         36.2083 
        1.16584         165.789         35.7756         35.7756 
        1.17197         164.716         35.3495         35.3495 
        1.17811         163.102         34.9291         34.9291 
        1.18424         162.328         34.5169         34.5169 
        1.19038         161.273         34.1101         34.1101 
        1.19652         160.037         33.7102         33.7102 
        1.20267         159.161         33.3167         33.3167 
        1.20881         157.971         32.9296         32.9296 
        1.21495         157.639         32.5494         32.5494 
        1.22108         156.346         32.1753         32.1753 
         1.2272         155.125          31.808          31.808 
        1.23334          154.53         31.4456         31.4456 
        1.23949         153.937         31.0881         31.0881 
        1.24562         152.651         30.7372         30.7372 
        1.25174         151.593         30.3923         30.3923 
        1.25789         150.515         30.0517         30.0517 
        1.26402         150.307          29.717          29.717 
        1.27014         149.204         29.3882         29.3882 
        1.27628         147.556         29.0635         29.0635 
        1.28244          147.22          28.743          28.743 
        1.28858         146.094         28.4279         28.4279 
        1.29471         145.274         28.1182         28.1182 
        1.30084         144.313         27.8135         27.8135 
        1.30697         143.466         27.5129         27.5129 
        1.31312         142.498         27.2163         27.2163 
        1.31925         141.464          26.925          26.925 
        1.32537         140.977         26.6383         26.6383 
        1.33151         140.193         26.3549         26.3549 
        1.33765         138.775         26.0757         26.0757 
        1.34378         138.718         25.8012         25.8012 
        1.34992         137.929         25.5305         25.5305 
        1.35606          136.89         25.2631         25.2631 
         1.3622         136.538              25              25 
        1.36833         134.871         24.7414         24.7414 
        1.37445         134.745         24.4866         24.4866 
        1.38059         133.743         24.2346         24.2346 
        1.38675         132.903         23.9856         23.9856 
        1.39288         131.901         23.7411         23.7411 
        1.39901         131.202         23.5002         23.5002 
        1.40515         130.707         23.2621         23.2621 
         1.4113         129.849         23.0274         23.0274 
        1.41742         128.898         22.7969         22.7969 
        1.42355         128.665         22.5691         22.5691 
         1.4297         127.501         22.3438         22.3438 
        1.43585         126.745         22.1217         22.1217 
        1.44198         125.655         21.9034         21.9034 
        1.44809         124.954         21.6886         21.6886 
        1.45423         124.667         21.4759         21.4759 
        1.46036         123.615         21.2664         21.2664 
        1.46649         122.888         21.0597         21.0597 
        1.47263         122.492         20.8555         20.8555 
        1.47877          121.34         20.6542         20.6542 
        1.48491          120.87         20.4553         20.4553 
        1.49104         119.444         20.2594         20.2594 
        1.49718         119.424          20.066          20.066 
        1.50333         118.913         19.8748         19.8748 
        1.50947         118.085         19.6865         19.6865 
         1.5156         117.317         19.5009         19.5009 
        1.52172         116.637         19.3178         19.3178 
        1.52787         116.014         19.1366         19.1366 
          1.534         115.377          18.958          18.958 
        1.54013         114.733         18.7819         18.7819 
        1.54627         113.842         18.6078         18.6078 
        1.55241         113.482         18.4358         18.4358 
        1.55855         112.696         18.2662         18.2662 
        1.56467         111.898         18.0993         18.0993 
         1.5708         111.141          17.934          17.934 
        1.57695         110.793         17.7705         17.7705 
        1.58308         110.003         17.6094         17.6094 
        1.58922         109.963         17.4503         17.4503 
        1.59535         109.274         17.2932         17.2932 
         1.6015         108.133         17.1378         17.1378 
        1.60764         107.479         16.9844         16.9844 
        1.61376         106.984         16.8333         16.8333 
        1.61989         106.499          16.684          16.684 
        1.62604         105.798         16.5362         16.5362 
        1.63218         105.359         16.3902         16.3902 
        1.63831          104.58         16.2464         16.2464 
        1.64444         103.939         16.1042         16.1042 
        1.65059         103.262         15.9635         15.9635 
        1.65673         102.976         15.8245         15.8245 
        1.66285          102.41         15.6877         15.6877 
        1.66898         101.574         15.5524         15.5524 
        1.67512         101.161         15.4184         15.4184 
        1.68127         100.571         15.2859         15.2859 
         1.6874         99.7825         15.1553         15.1553 
        1.69353         99.2358         15.0263         15.0263 
        1.69967         98.7749         14.8985         14.8985 
        1.70581         98.4257         14.7723         14.7723 
        1.71193         97.6606          14.648          14.648 
        1.71806         97.0803         14.5249         14.5249 
        1.72421         96.4872         14.4029         14.4029 
        1.73035          96.111         14.2825         14.2825 
        1.73649         95.4573         14.1636         14.1636 
        1.74262         94.9665         14.0461         14.0461 
        1.74876         94.2991         13.9298         13.9298 
        1.75489         93.9015         13.8151         13.8151 
        1.76101         93.2846         13.7018         13.7018 
        1.76715         92.6721         13.5895         13.5895 
        1.77329         92.2982         13.4784         13.4784 
        1.77943         91.7211         13.3685         13.3685 
        1.78557         91.3259         13.2601         13.2601 
        1.79171         90.8733         13.1528         13.1528 
        1.79785          90.019         13.0466         13.0466 
        1.80399         89.9043         12.9417         12.9417 
        1.81012         89.0893         12.8381         12.8381 
        1.81625         88.6537         12.7356         12.7356 
        1.82239         88.2752         12.6342         12.6342 
        1.82853         87.7075         12.5339         12.5339 
        1.83466         87.0415         12.4348         12.4348 
        1.84078         86.7796         12.3369         12.3369 
        1.84692         86.4887         12.2398         12.2398 
        1.85306         85.8385         12.1437         12.1437 
         1.8592         85.5049         12.0488         12.0488 
        1.86533         84.9388          11.955          11.955 
        1.87147         84.4296         11.8621         11.8621 
        1.87761         83.7678         11.7701         11.7701 
