# k  (h/Mpc)    P(k)  (Mpc/h)^3    P_linear(k)  (Mpc/h)^3     P_NL(k)  ShotnoiseSubtracted = false
     0.00783031         792.243         797.975         797.975 
       0.013688         999.427          1009.5          1009.5 
       0.019231         1036.51         1040.79         1040.79 
      0.0249154         980.514         980.368         980.368 
      0.0312784         867.934         868.645         868.645 
      0.0375637          756.41         757.986         757.986 
      0.0433917         675.472         674.344         674.344 
      0.0492413         611.421         611.999         611.999 
      0.0555754         564.252         563.127         563.127 
      0.0619321          520.19          523.76          523.76 
       0.067871         486.938         487.876         487.876 
      0.0738098         448.631         448.953         448.953 
      0.0800417         405.709         405.078         405.078 
      0.0862327         361.779         361.776         361.776 
      0.0921407         324.445         324.538         324.538 
      0.0982031         294.142         293.144         293.144 
       0.104506         267.915         268.548         268.548 
       0.110769          250.49         250.923         250.923 
       0.116806          238.82         237.967         237.967 
       0.122832         226.028         226.433         226.433 
       0.129052         214.255         213.971         213.971 
       0.135211          201.16         200.197         200.197 
       0.141259         185.931         185.616         185.616 
       0.147318         170.668         171.034         171.034 
       0.153489         157.822         157.448         157.448 
       0.159709         146.879          145.94          145.94 
       0.165845         136.662          136.98          136.98 
       0.171974         131.235         130.064         130.064 
       0.178125         125.468         124.448         124.448 
       0.184229         119.671         119.387         119.387 
        0.19034         115.266         114.204         114.204 
       0.196428         109.589         108.628         108.628 
       0.202534         102.721         102.675         102.675 
       0.208729         97.5512         96.5771         96.5771 
       0.214876         92.4228         90.8574         90.8574 
       0.220989         86.3232         85.8001         85.8001 
       0.227147         83.0793         81.4755         81.4755 
        0.23329         79.5681          77.879          77.879 
       0.239377         76.6585         74.8364         74.8364 
       0.245482         73.5887         72.0664         72.0664 
       0.251667         70.4852         69.3343         69.3343 
       0.257832         68.3365         66.5535         66.5535 
       0.263955         65.0061          63.712          63.712 
       0.270079         62.1711         60.8558         60.8558 
        0.27624         59.1218         58.0741         58.0741 
       0.282372         56.7008         55.4994         55.4994 
        0.28843         55.0407         53.2039         53.2039 
       0.294538          52.801         51.1456         51.1456 
       0.300721         50.5897         49.2859         49.2859 
        0.30691         49.2978         47.5787         47.5787 
       0.313033         47.5021         45.9739         45.9739 
       0.319153         46.4111          44.401          44.401 
       0.325316         44.2149         42.8273         42.8273 
        0.33145         42.6569         41.2748         41.2748 
       0.337538         41.2719         39.7727         39.7727 
       0.343633         39.9572         38.3359         38.3359 
       0.349808         38.5125         36.9712         36.9712 
       0.355968         37.1881         35.7112         35.7112 
       0.362074         36.2817         34.5551         34.5551 
       0.368217         35.1516         33.4708         33.4708 
       0.374374         34.3639         32.4406         32.4406 
       0.380519         33.0065         31.4507         31.4507 
       0.386598         31.9767         30.4978         30.4978 
       0.392688         30.9789         29.5643         29.5643 
        0.39888         30.2356         28.6411         28.6411 
       0.405048         29.4034         27.7537         27.7537 
       0.411186         28.5082         26.9089         26.9089 
       0.417313         27.6929         26.1089         26.1089 
       0.423458         26.8121         25.3495         25.3495 
       0.429607         26.2916         24.6289         24.6289 
       0.435692         25.7131         23.9498         23.9498 
       0.441815         24.8179         23.2939         23.2939 
       0.447964         24.0362         22.6573         22.6573 
       0.454126         23.5898          22.039          22.039 
       0.460267         23.2007         21.4418         21.4418 
       0.466387          22.502         20.8654         20.8654 
        0.47254         22.0498         20.3062         20.3062 
       0.478662         21.4026         19.7716         19.7716 
       0.484765         20.8985         19.2606         19.2606 
       0.490885         20.3001         18.7689         18.7689 
       0.497035         19.8124         18.2944         18.2944 
       0.503198         19.4061          17.837          17.837 
       0.509342         18.8556         17.3971         17.3971 
       0.515458         18.5489         16.9733         16.9733 
       0.521598         18.1169         16.5607         16.5607 
       0.527764         17.8209         16.1593         16.1593 
       0.533884         17.2765         15.7737         15.7737 
           0.54         16.9403         15.4013         15.4013 
       0.546137         16.4456         15.0399         15.0399 
       0.552299         16.1474         14.6894         14.6894 
       0.558452         15.7913         14.3515         14.3515 
       0.564573         15.5297         14.0266         14.0266 
       0.570708         15.1721         13.7116         13.7116 
       0.576825         14.8864         13.4073         13.4073 
       0.582926         14.5616         13.1128         13.1128 
       0.589034         14.2912         12.8267         12.8267 
       0.595184         14.0742          12.547          12.547 
       0.601379         13.6914         12.2739         12.2739 
       0.607522         13.4382         12.0112         12.0112 
       0.613639         13.1361         11.7576         11.7576 
       0.619772         12.9328         11.5109         11.5109 
       0.625918         12.6534         11.2711         11.2711 
       0.632068         12.4842          11.038          11.038 
       0.638161         12.2159         10.8138         10.8138 
         0.6443         11.9819         10.5943         10.5943 
       0.650464         11.7013         10.3802         10.3802 
       0.656582          11.589         10.1736         10.1736 
       0.662703          11.399         9.97259         9.97259 
       0.668861         11.0904         9.77597         9.77597 
       0.675024         10.9136         9.58457         9.58457 
       0.681124         10.8618          9.4003          9.4003 
       0.687237         10.6088         9.22057         9.22057 
       0.693381         10.3377         9.04477         9.04477 
       0.699536         10.2582         8.87333         8.87333 
       0.705665         10.0613         8.70714         8.70714 
       0.711789         9.84534         8.54544         8.54544 
       0.717957         9.64737         8.38681         8.38681 
        0.72409         9.54095         8.23316         8.23316 
       0.730186         9.44919         8.08434         8.08434 
       0.736317         9.23424         7.93845         7.93845 
       0.742472         9.11327         7.79567         7.79567 
       0.748622         8.96545         7.65659         7.65659 
        0.75476         8.74062         7.52124         7.52124 
       0.760888         8.66541         7.38941         7.38941 
       0.767043         8.46629         7.26026         7.26026 
       0.773185         8.35771         7.13451         7.13451 
       0.779291         8.30634          7.0125          7.0125 
       0.785407         8.13196         6.89319         6.89319 
       0.791564         8.01995         6.77595         6.77595 
       0.797719         7.86849         6.66153         6.66153 
       0.803834         7.78315         6.55052         6.55052 
       0.809972         7.63975         6.44167         6.44167 
       0.816124         7.53546         6.33509         6.33509 
       0.822261          7.4348         6.23124         6.23124 
       0.828378         7.31635         6.13006         6.13006 
       0.834502         7.22137         6.03107         6.03107 
       0.840667         7.14209         5.93366         5.93366 
       0.846816         7.00033          5.8387          5.8387 
       0.852925         6.91244         5.74644         5.74644 
       0.859047         6.81769         5.65601         5.65601 
       0.865192         6.71574         5.56725         5.56725 
       0.871341          6.6178         5.48036         5.48036 
       0.877463         6.52616         5.39575         5.39575 
       0.883569         6.45029         5.31316         5.31316 
       0.889708         6.35692         5.23189         5.23189 
       0.895864         6.27106         5.15214         5.15214 
       0.902008          6.1701         5.07424         5.07424 
       0.908149         6.09202         4.99802         4.99802 
       0.914301         6.03006         4.92326         4.92326 
       0.920448         5.94691         4.85012         4.85012 
       0.926574         5.90046         4.77874         4.77874 
       0.932687         5.79705         4.70896         4.70896 
       0.938823         5.69999         4.64035         4.64035 
       0.944975         5.65464         4.57296         4.57296 
       0.951105         5.55184         4.50716         4.50716 
       0.957225         5.50931          4.4428          4.4428 
       0.963368         5.44511         4.37948         4.37948 
       0.969511          5.3768         4.31741         4.31741 
       0.975621         5.29839         4.25689         4.25689 
       0.981748         5.20436          4.1974          4.1974 
       0.987916         5.15687         4.13867         4.13867 
        0.99406         5.11838          4.0813          4.0813 
        1.00019         5.05557         4.02515         4.02515 
        1.00632         5.00301         3.97011         3.97011 
        1.01246         4.92818         3.91603         3.91603 
        1.01859         4.86777         3.86306         3.86306 
        1.02471         4.79112         3.81115         3.81115 
        1.03085         4.76026         3.76002         3.76002 
        1.03698         4.70286         3.70995         3.70995 
        1.04314         4.65115         3.66059         3.66059 
        1.04929         4.58397         3.61225         3.61225 
        1.05541         4.53028         3.56499         3.56499 
        1.06154         4.49117         3.51846         3.51846 
        1.06769         4.46038         3.47271         3.47271 
        1.07382         4.38182         3.42792         3.42792 
        1.07993          4.3269         3.38404         3.38404 
        1.08607         4.29808         3.34075         3.34075 
        1.09222         4.23304         3.29818         3.29818 
        1.09836         4.22144         3.25641         3.25641 
        1.10449         4.12847         3.21542         3.21542 
        1.11063         4.10324         3.17509         3.17509 
        1.11677         4.06214         3.13548         3.13548 
         1.1229         4.01281         3.09662         3.09662 
        1.12903         3.98336          3.0584          3.0584 
        1.13518         3.92102         3.02079         3.02079 
        1.14131         3.88087         2.98385         2.98385 
        1.14745         3.83445         2.94755         2.94755 
        1.15359         3.79992         2.91185         2.91185 
        1.15973         3.75694         2.87673         2.87673 
        1.16584         3.72254         2.84236         2.84236 
        1.17197         3.67756         2.80851         2.80851 
        1.17811         3.63887         2.77511         2.77511 
        1.18424          3.6014         2.74235         2.74235 
        1.19038         3.56625         2.71004         2.71004 
        1.19652         3.53791         2.67826         2.67826 
        1.20267         3.50568           2.647           2.647 
        1.20881         3.46248         2.61625         2.61625 
        1.21495         3.43085         2.58604         2.58604 
        1.22108         3.39826         2.55631         2.55631 
         1.2272         3.35023         2.52713         2.52713 
        1.23334         3.33875         2.49834         2.49834 
        1.23949         3.29686         2.46994         2.46994 
        1.24562         3.26697         2.44206         2.44206 
        1.25174         3.24146         2.41466         2.41466 
        1.25789         3.19422          2.3876          2.3876 
        1.26402           3.166           2.361           2.361 
        1.27014         3.13585         2.33488         2.33488 
        1.27628         3.10478         2.30908         2.30908 
        1.28244         3.08167         2.28362         2.28362 
        1.28858         3.05468         2.25859         2.25859 
        1.29471         3.01222         2.23398         2.23398 
        1.30084         2.98755         2.20977         2.20977 
        1.30697         2.96734         2.18589         2.18589 
        1.31312         2.93911         2.16232         2.16232 
        1.31925         2.91094         2.13918         2.13918 
        1.32537         2.88763         2.11641         2.11641 
        1.33151         2.85509         2.09388         2.09388 
        1.33765          2.8321         2.07171         2.07171 
        1.34378         2.81024          2.0499          2.0499 
        1.34992         2.78548         2.02839         2.02839 
        1.35606         2.75987         2.00714         2.00714 
         1.3622         2.73691         1.98624         1.98624 
        1.36833         2.70485          1.9657          1.9657 
        1.37445         2.67887         1.94545         1.94545 
        1.38059         2.65719         1.92543         1.92543 
        1.38675         2.63559         1.90565         1.90565 
        1.39288         2.61957         1.88622         1.88622 
        1.39901         2.58697         1.86708         1.86708 
        1.40515         2.56517         1.84817         1.84817 
         1.4113         2.55024         1.82952         1.82952 
        1.41742         2.52039         1.81121         1.81121 
        1.42355         2.49798         1.79311         1.79311 
         1.4297         2.48437         1.77521         1.77521 
        1.43585         2.46057         1.75756         1.75756 
        1.44198         2.43932         1.74022         1.74022 
        1.44809         2.42293         1.72315         1.72315 
        1.45423         2.40184         1.70625         1.70625 
        1.46036         2.38291         1.68961         1.68961 
        1.46649         2.35205         1.67318         1.67318 
        1.47263         2.34447         1.65697         1.65697 
        1.47877           2.328         1.64097         1.64097 
        1.48491         2.29939         1.62517         1.62517 
        1.49104         2.28495          1.6096          1.6096 
        1.49718         2.26555         1.59424         1.59424 
        1.50333         2.24647         1.57905         1.57905 
        1.50947         2.22796         1.56409         1.56409 
         1.5156         2.21095         1.54934         1.54934 
        1.52172         2.19546         1.53479         1.53479 
        1.52787         2.17742          1.5204          1.5204 
          1.534          2.1614         1.50621         1.50621 
        1.54013         2.14152         1.49222         1.49222 
        1.54627         2.12528         1.47838         1.47838 
        1.55241         2.10506         1.46472         1.46472 
        1.55855         2.09262         1.45125         1.45125 
        1.56467         2.07747         1.43798         1.43798 
         1.5708         2.05948         1.42485         1.42485 
        1.57695         2.03965         1.41186         1.41186 
        1.58308         2.02261         1.39906         1.39906 
        1.58922         2.01617         1.38642         1.38642 
        1.59535         1.99279         1.37394         1.37394 
         1.6015         1.97691         1.36159         1.36159 
        1.60764         1.96646         1.34941         1.34941 
        1.61376         1.94737          1.3374          1.3374 
        1.61989          1.9343         1.32554         1.32554 
        1.62604         1.91644         1.31379         1.31379 
        1.63218          1.9093          1.3022          1.3022 
        1.63831         1.89473         1.29077         1.29077 
        1.64444         1.87846         1.27948         1.27948 
        1.65059         1.86852         1.26829         1.26829 
        1.65673         1.84838         1.25725         1.25725 
        1.66285         1.83551         1.24638         1.24638 
        1.66898         1.82479         1.23563         1.23563 
        1.67512          1.8063         1.22499         1.22499 
        1.68127         1.79303         1.21446         1.21446 
         1.6874         1.78846         1.20409         1.20409 
        1.69353         1.76764         1.19384         1.19384 
        1.69967          1.7574         1.18368         1.18368 
        1.70581          1.7494         1.17365         1.17365 
        1.71193         1.72782         1.16378         1.16378 
        1.71806          1.7187           1.154           1.154 
        1.72421          1.7095         1.14431         1.14431 
        1.73035         1.69154         1.13474         1.13474 
        1.73649         1.68735         1.12529         1.12529 
        1.74262         1.67245         1.11595         1.11595 
        1.74876         1.66041         1.10672         1.10672 
        1.75489         1.64948         1.09761         1.09761 
        1.76101         1.63421          1.0886          1.0886 
        1.76715         1.62676         1.07968         1.07968 
        1.77329         1.61369         1.07086         1.07086 
        1.77943         1.60402         1.06213         1.06213 
        1.78557         1.59456         1.05351         1.05351 
        1.79171         1.58483         1.04498         1.04498 
        1.79785         1.57219         1.03655         1.03655 
        1.80399         1.56102         1.02821         1.02821 
        1.81012         1.54922         1.01998         1.01998 
        1.81625         1.53659         1.01184         1.01184 
        1.82239          1.5289         1.00378         1.00378 
        1.82853         1.51838        0.995814        0.995814 
        1.83466         1.50537         0.98794         0.98794 
        1.84078         1.49673         0.98016         0.98016 
        1.84692         1.48767        0.972452        0.972452 
        1.85306         1.48063        0.964817        0.964817 
         1.8592         1.46731        0.957277        0.957277 
        1.86533         1.45931        0.949823        0.949823 
        1.87147         1.44771        0.942439        0.942439 
        1.87761         1.44011        0.935131        0.935131 
