# k  (h/Mpc)    P(k)  (Mpc/h)^3    P_linear(k)  (Mpc/h)^3     P_NL(k)  ShotnoiseSubtracted = false
     0.00783031         655.594           660.4           660.4 
       0.013688         827.493         835.498         835.498 
       0.019231         858.061         861.403         861.403 
      0.0249154         811.402         811.407         811.407 
      0.0312784         718.441         718.942         718.942 
      0.0375637         626.251         627.356         627.356 
      0.0433917         559.078          558.13          558.13 
      0.0492413         506.167          506.53          506.53 
      0.0555754             467         466.081         466.081 
      0.0619321         430.839         433.499         433.499 
       0.067871         403.122         403.799         403.799 
      0.0738098         371.354         371.583         371.583 
      0.0800417         335.771          335.27          335.27 
      0.0862327         299.454         299.431         299.431 
      0.0921407         268.542          268.61          268.61 
      0.0982031         243.381         242.626         242.626 
       0.104506         221.776         222.269         222.269 
       0.110769          207.33         207.681         207.681 
       0.116806         197.564         196.958         196.958 
       0.122832         187.064         187.411         187.411 
       0.129052         177.278         177.097         177.097 
       0.135211          166.37         165.697         165.697 
       0.141259          153.81         153.628         153.628 
       0.147318          141.23          141.56          141.56 
       0.153489         130.542         130.315         130.315 
       0.159709         121.418          120.79          120.79 
       0.165845         113.058         113.375         113.375 
       0.171974         108.446          107.65          107.65 
       0.178125         103.675         103.001         103.001 
       0.184229         98.9474         98.8129         98.8129 
        0.19034         95.2483         94.5235         94.5235 
       0.196428         90.5359         89.9084         89.9084 
       0.202534         84.9206         84.9812         84.9812 
       0.208729         80.5604         79.9339         79.9339 
       0.214876         76.2757         75.1999         75.1999 
       0.220989         71.2997         71.0141         71.0141 
       0.227147         68.5364         67.4348         67.4348 
        0.23329         65.6184          64.458          64.458 
       0.239377         63.1876         61.9398         61.9398 
       0.245482          60.687         59.6472         59.6472 
       0.251667         58.1372         57.3859         57.3859 
       0.257832         56.2985         55.0843         55.0843 
       0.263955          53.594         52.7324         52.7324 
       0.270079         51.2426         50.3685         50.3685 
        0.27624         48.7316         48.0662         48.0662 
       0.282372         46.7107         45.9352         45.9352 
        0.28843          45.278         44.0352         44.0352 
       0.294538         43.4477         42.3317         42.3317 
       0.300721         41.6417         40.7924         40.7924 
        0.30691         40.5412         39.3794         39.3794 
       0.313033         39.0765         38.0512         38.0512 
       0.319153         38.1472         36.7493         36.7493 
       0.325316         36.3515         35.4468         35.4468 
        0.33145         35.0664         34.1619         34.1619 
       0.337538         33.9175         32.9187         32.9187 
       0.343633          32.827         31.7295         31.7295 
       0.349808         31.6321            30.6            30.6 
       0.355968         30.5362         29.5571         29.5571 
       0.362074         29.7655         28.6002         28.6002 
       0.368217         28.8316         27.7027         27.7027 
       0.374374         28.1722         26.8501         26.8501 
       0.380519         27.0774         26.0308         26.0308 
       0.386598         26.2256         25.2421         25.2421 
       0.392688          25.403         24.4694         24.4694 
        0.39888         24.7731         23.7053         23.7053 
       0.405048         24.0801         22.9709         22.9709 
       0.411186         23.3398         22.2717         22.2717 
       0.417313         22.6725         21.6095         21.6095 
       0.423458         21.9433          20.981          20.981 
       0.429607         21.5033         20.3846         20.3846 
       0.435692         21.0125         19.8225         19.8225 
       0.441815         20.2988         19.2797         19.2797 
       0.447964         19.6586         18.7527         18.7527 
       0.454126         19.2828          18.241          18.241 
       0.460267         18.9417         17.7468         17.7468 
       0.466387         18.3726         17.2697         17.2697 
        0.47254         17.9871         16.8068         16.8068 
       0.478662          17.467         16.3643         16.3643 
       0.484765         17.0498         15.9414         15.9414 
       0.490885         16.5638         15.5345         15.5345 
       0.497035         16.1467         15.1417         15.1417 
       0.503198         15.8182         14.7632         14.7632 
       0.509342         15.3676         14.3991         14.3991 
       0.515458          15.106         14.0482         14.0482 
       0.521598         14.7541         13.7068         13.7068 
       0.527764         14.5035         13.3745         13.3745 
       0.533884          14.053         13.0554         13.0554 
           0.54         13.7772         12.7471         12.7471 
       0.546137         13.3814         12.4481         12.4481 
       0.552299         13.1331          12.158          12.158 
       0.558452         12.8416         11.8783         11.8783 
       0.564573         12.6152         11.6094         11.6094 
       0.570708         12.3292         11.3486         11.3486 
       0.576825         12.0873         11.0968         11.0968 
       0.582926         11.8164         10.8531         10.8531 
       0.589034         11.6011         10.6162         10.6162 
       0.595184         11.4168         10.3848         10.3848 
       0.601379         11.1089         10.1587         10.1587 
       0.607522          10.896         9.94133         9.94133 
       0.613639         10.6442         9.73142         9.73142 
       0.619772         10.4803         9.52725         9.52725 
       0.625918         10.2546         9.32871         9.32871 
       0.632068         10.1049         9.13585         9.13585 
       0.638161         9.88804         8.95026         8.95026 
         0.6443         9.69434         8.76857         8.76857 
       0.650464         9.47416         8.59134         8.59134 
       0.656582         9.37342         8.42034         8.42034 
       0.662703         9.21089         8.25401         8.25401 
       0.668861         8.96408         8.09128         8.09128 
       0.675024         8.81882         7.93286         7.93286 
       0.681124         8.77269         7.78034         7.78034 
       0.687237         8.56433         7.63158         7.63158 
       0.693381         8.34485         7.48608         7.48608 
       0.699536         8.27361         7.34418         7.34418 
       0.705665         8.11565         7.20664         7.20664 
       0.711789         7.93741          7.0728          7.0728 
       0.717957         7.78221         6.94151         6.94151 
        0.72409          7.6872         6.81433         6.81433 
       0.730186         7.60758         6.69116         6.69116 
       0.736317         7.43478         6.57041         6.57041 
       0.742472         7.33611         6.45224         6.45224 
       0.748622         7.21728         6.33712         6.33712 
        0.75476         7.04001          6.2251          6.2251 
       0.760888         6.97296         6.11599         6.11599 
       0.767043         6.80386          6.0091          6.0091 
       0.773185         6.71724         5.90502         5.90502 
       0.779291         6.67367         5.80403         5.80403 
       0.785407         6.53272         5.70529         5.70529 
       0.791564         6.43777         5.60825         5.60825 
       0.797719         6.32026         5.51355         5.51355 
       0.803834         6.24202         5.42166         5.42166 
       0.809972         6.13005         5.33157         5.33157 
       0.816124         6.04293         5.24336         5.24336 
       0.822261         5.96078         5.15741         5.15741 
       0.828378         5.86197         5.07367         5.07367 
       0.834502          5.7829         4.99174         4.99174 
       0.840667         5.71758         4.91111         4.91111 
       0.846816         5.60795         4.83251         4.83251 
       0.852925         5.52926         4.75616         4.75616 
       0.859047         5.45242         4.68131         4.68131 
       0.865192         5.37062         4.60784         4.60784 
       0.871341         5.29336         4.53593         4.53593 
       0.877463         5.21481          4.4659          4.4659 
       0.883569         5.14977         4.39754         4.39754 
       0.889708         5.07958         4.33028         4.33028 
       0.895864         5.00923         4.26427         4.26427 
       0.902008         4.92448          4.1998          4.1998 
       0.908149          4.8642         4.13671         4.13671 
       0.914301         4.81082         4.07483         4.07483 
       0.920448         4.74517          4.0143          4.0143 
       0.926574         4.70498         3.95521         3.95521 
       0.932687         4.62331         3.89746         3.89746 
       0.938823         4.54262         3.84067         3.84067 
       0.944975         4.50516          3.7849          3.7849 
       0.951105         4.42017         3.73044         3.73044 
       0.957225         4.38282         3.67717         3.67717 
       0.963368          4.3342         3.62476         3.62476 
       0.969511         4.27961         3.57339         3.57339 
       0.975621         4.21356          3.5233          3.5233 
       0.981748         4.13704         3.47406         3.47406 
       0.987916         4.09791         3.42545         3.42545 
        0.99406         4.06615         3.37797         3.37797 
        1.00019         4.01397         3.33149         3.33149 
        1.00632         3.97286         3.28594         3.28594 
        1.01246         3.91213         3.24118         3.24118 
        1.01859         3.86394         3.19734         3.19734 
        1.02471         3.80137         3.15437         3.15437 
        1.03085         3.77181         3.11206         3.11206 
        1.03698         3.72708         3.07061         3.07061 
        1.04314         3.68563         3.02976         3.02976 
        1.04929         3.63573         2.98975         2.98975 
        1.05541         3.58656         2.95063         2.95063 
        1.06154         3.55651         2.91213         2.91213 
        1.06769         3.52876         2.87426         2.87426 
        1.07382         3.46884         2.83719         2.83719 
        1.07993         3.42416         2.80087         2.80087 
        1.08607         3.39895         2.76504         2.76504 
        1.09222         3.34671          2.7298          2.7298 
        1.09836         3.33462         2.69523         2.69523 
        1.10449         3.26346          2.6613          2.6613 
        1.11063         3.23886         2.62793         2.62793 
        1.11677         3.20677         2.59514         2.59514 
         1.1229           3.164         2.56298         2.56298 
        1.12903         3.14187         2.53134         2.53134 
        1.13518         3.09305         2.50022         2.50022 
        1.14131         3.06139         2.46964         2.46964 
        1.14745         3.02563         2.43959         2.43959 
        1.15359         2.99612         2.41005         2.41005 
        1.15973         2.96193         2.38098         2.38098 
        1.16584         2.93208         2.35254         2.35254 
        1.17197         2.89583         2.32452         2.32452 
        1.17811           2.865         2.29687         2.29687 
        1.18424         2.83442         2.26976         2.26976 
        1.19038         2.80472         2.24301         2.24301 
        1.19652         2.78251         2.21671         2.21671 
        1.20267          2.7575         2.19084         2.19084 
        1.20881         2.72112         2.16539         2.16539 
        1.21495         2.69624         2.14038         2.14038 
        1.22108         2.67005         2.11578         2.11578 
         1.2272         2.63071         2.09163         2.09163 
        1.23334         2.61872          2.0678          2.0678 
        1.23949         2.58809          2.0443          2.0443 
        1.24562         2.56292         2.02122         2.02122 
        1.25174         2.54134         1.99854         1.99854 
        1.25789          2.5055         1.97614         1.97614 
        1.26402         2.48092         1.95413         1.95413 
        1.27014         2.45507         1.93251         1.93251 
        1.27628         2.43305         1.91116         1.91116 
        1.28244         2.41278         1.89009         1.89009 
        1.28858         2.38859         1.86936         1.86936 
        1.29471         2.35697           1.849           1.849 
        1.30084         2.33842         1.82896         1.82896 
        1.30697         2.32149         1.80919         1.80919 
        1.31312         2.29816         1.78969         1.78969 
        1.31925         2.27605         1.77054         1.77054 
        1.32537         2.25647         1.75169         1.75169 
        1.33151         2.23049         1.73304         1.73304 
        1.33765           2.212         1.71469         1.71469 
        1.34378         2.19195         1.69664         1.69664 
        1.34992         2.17442         1.67883         1.67883 
        1.35606         2.15235         1.66125         1.66125 
         1.3622         2.13438         1.64395         1.64395 
        1.36833         2.10964         1.62695         1.62695 
        1.37445         2.08924         1.61019         1.61019 
        1.38059         2.07145         1.59362         1.59362 
        1.38675         2.05417         1.57725         1.57725 
        1.39288         2.03987         1.56117         1.56117 
        1.39901         2.01568         1.54533         1.54533 
        1.40515         1.99665         1.52967         1.52967 
         1.4113         1.98629         1.51424         1.51424 
        1.41742          1.9613         1.49908         1.49908 
        1.42355         1.94251          1.4841          1.4841 
         1.4297         1.93224         1.46929         1.46929 
        1.43585         1.91215         1.45468         1.45468 
        1.44198         1.89614         1.44033         1.44033 
        1.44809         1.88142          1.4262          1.4262 
        1.45423         1.86539         1.41221         1.41221 
        1.46036         1.84999         1.39844         1.39844 
        1.46649         1.82556         1.38484         1.38484 
        1.47263         1.81815         1.37142         1.37142 
        1.47877         1.80699         1.35818         1.35818 
        1.48491          1.7817          1.3451          1.3451 
        1.49104         1.77203         1.33222         1.33222 
        1.49718         1.75433          1.3195          1.3195 
        1.50333         1.74061         1.30693         1.30693 
        1.50947          1.7268         1.29455         1.29455 
         1.5156         1.71189         1.28234         1.28234 
        1.52172         1.69973          1.2703          1.2703 
        1.52787         1.68457         1.25839         1.25839 
          1.534          1.6728         1.24664         1.24664 
        1.54013         1.65664         1.23506         1.23506 
        1.54627         1.64334         1.22361         1.22361 
        1.55241         1.62735          1.2123          1.2123 
        1.55855         1.61692         1.20115         1.20115 
        1.56467         1.60466         1.19017         1.19017 
         1.5708         1.59046          1.1793          1.1793 
        1.57695         1.57512         1.16855         1.16855 
        1.58308          1.5612         1.15796         1.15796 
        1.58922         1.55558          1.1475          1.1475 
        1.59535         1.53675         1.13717         1.13717 
         1.6015         1.52447         1.12695         1.12695 
        1.60764         1.51563         1.11686         1.11686 
        1.61376         1.50089         1.10693         1.10693 
        1.61989         1.49137         1.09711         1.09711 
        1.62604         1.47588         1.08739         1.08739 
        1.63218         1.47048         1.07779         1.07779 
        1.63831         1.45734         1.06833         1.06833 
        1.64444         1.44515         1.05898         1.05898 
        1.65059         1.43693         1.04973         1.04973 
        1.65673         1.42159         1.04059         1.04059 
        1.66285         1.41142         1.03159         1.03159 
        1.66898         1.40311         1.02269         1.02269 
        1.67512         1.38761         1.01389         1.01389 
        1.68127         1.37701         1.00517         1.00517 
         1.6874         1.37286        0.996586        0.996586 
        1.69353         1.35781        0.988103        0.988103 
        1.69967         1.34933        0.979699        0.979699 
        1.70581         1.34243        0.971397        0.971397 
        1.71193         1.32651        0.963224        0.963224 
        1.71806         1.31866        0.955128        0.955128 
        1.72421         1.31067         0.94711         0.94711 
        1.73035         1.29573        0.939193        0.939193 
        1.73649         1.29385        0.931369        0.931369 
        1.74262         1.28072        0.923642        0.923642 
        1.74876         1.27188        0.915997        0.915997 
        1.75489         1.26319        0.908456        0.908456 
        1.76101         1.25077        0.901002        0.901002 
        1.76715         1.24419        0.893622        0.893622 
        1.77329         1.23516        0.886317        0.886317 
        1.77943         1.22687        0.879091        0.879091 
        1.78557         1.22017        0.871956        0.871956 
        1.79171         1.21164          0.8649          0.8649 
        1.79785         1.20141        0.857922        0.857922 
        1.80399         1.19197        0.851022        0.851022 
        1.81012         1.18338        0.844208        0.844208 
        1.81625         1.17396        0.837472        0.837472 
        1.82239         1.16713          0.8308          0.8308 
        1.82853         1.15903        0.824205        0.824205 
        1.83466         1.14929        0.817688        0.817688 
        1.84078         1.14166        0.811249        0.811249 
        1.84692         1.13491        0.804869        0.804869 
        1.85306         1.12939         0.79855         0.79855 
         1.8592         1.11839        0.792309        0.792309 
        1.86533         1.11256        0.786139        0.786139 
        1.87147         1.10184        0.780028        0.780028 
        1.87761         1.09631         0.77398         0.77398 
