# k  (h/Mpc)    Pcb(k)  (Mpc/h)^3    Pcb_linear(k) (Mpc/h)^3    Pcb_NL(k) (Mpc/h)^3   ShotnoiseSubtracted = false
     0.00783031         1676.89         1688.25         1688.25 
       0.013688         2109.73         2135.37         2135.37 
       0.019231         2189.63         2201.39         2201.39 
      0.0249154         2075.17         2073.52         2073.52 
      0.0312784         1834.25         1837.17         1837.17 
      0.0375637         1596.97         1603.11         1603.11 
      0.0433917         1428.06          1426.2          1426.2 
      0.0492413         1291.35         1294.33         1294.33 
      0.0555754         1193.07         1190.97         1190.97 
      0.0619321         1096.07          1107.7          1107.7 
       0.067871         1028.11         1031.81         1031.81 
      0.0738098         947.997         949.489         949.489 
      0.0800417         857.933         856.697         856.697 
      0.0862327          764.61         765.117         765.117 
      0.0921407         685.981         686.361         686.361 
      0.0982031         622.937         619.967         619.967 
       0.104506         566.292         567.948         567.948 
       0.110769         529.754         530.674         530.674 
       0.116806         506.387         503.272         503.272 
       0.122832         478.282         478.879         478.879 
       0.129052         453.796         452.523         452.523 
       0.135211         427.122         423.392         423.392 
       0.141259         394.385         392.555         392.555 
       0.147318         361.504         361.716         361.716 
       0.153489         335.073         332.984         332.984 
       0.159709         312.947         308.644         308.644 
       0.165845         290.129         289.697         289.697 
       0.171974         280.132          275.07          275.07 
       0.178125         268.003         263.191         263.191 
       0.184229         254.704         252.489         252.489 
        0.19034         246.038         241.528         241.528 
       0.196428         234.349         229.735         229.735 
       0.202534         218.981         217.145         217.145 
       0.208729         209.148         204.248         204.248 
       0.214876         198.749         192.152         192.152 
       0.220989         185.049         181.456         181.456 
       0.227147         179.104          172.31          172.31 
        0.23329         171.845         164.704         164.704 
       0.239377         166.069         158.269         158.269 
       0.245482         158.998         152.411         152.411 
       0.251667         152.259         146.633         146.633 
       0.257832         148.498         140.752         140.752 
       0.263955         140.756         134.743         134.743 
       0.270079         134.835         128.702         128.702 
        0.27624         128.283         122.819         122.819 
       0.282372         123.425         117.374         117.374 
        0.28843         120.694         112.519         112.519 
       0.294538         115.575         108.167         108.167 
       0.300721         110.664         104.233         104.233 
        0.30691         108.297         100.623         100.623 
       0.313033         104.183         97.2289         97.2289 
       0.319153         102.108         93.9025         93.9025 
       0.325316          97.437         90.5741         90.5741 
        0.33145         94.1096         87.2909         87.2909 
       0.337538         91.1218         84.1143         84.1143 
       0.343633          88.289         81.0755         81.0755 
       0.349808         85.2625         78.1894         78.1894 
       0.355968         82.5316         75.5246         75.5246 
       0.362074         80.7962         73.0797         73.0797 
       0.368217         78.4567         70.7864         70.7864 
       0.374374         76.7731         68.6077         68.6077 
       0.380519         73.5691         66.5142         66.5142 
       0.386598         71.4667         64.4989         64.4989 
       0.392688         69.3149         62.5247         62.5247 
        0.39888         67.8928         60.5721         60.5721 
       0.405048         66.1628         58.6955         58.6955 
       0.411186         64.3416         56.9088         56.9088 
       0.417313         62.5249         55.2169         55.2169 
       0.423458         60.7215          53.611          53.611 
       0.429607         59.6516          52.087          52.087 
       0.435692          58.544         50.6508         50.6508 
       0.441815         56.3901         49.2636         49.2636 
       0.447964         54.6596         47.9172         47.9172 
       0.454126         53.7076         46.6097         46.6097 
       0.460267         53.0969         45.3467         45.3467 
       0.466387         51.5654         44.1277         44.1277 
        0.47254         50.7435         42.9449         42.9449 
       0.478662         49.1252         41.8143         41.8143 
       0.484765          48.097         40.7336         40.7336 
       0.490885         46.7421         39.6938         39.6938 
       0.497035          45.968         38.6903         38.6903 
       0.503198         44.9199          37.723          37.723 
       0.509342         43.7161         36.7926         36.7926 
       0.515458         43.1293         35.8962         35.8962 
       0.521598         42.1093         35.0237         35.0237 
       0.527764         41.5318         34.1748         34.1748 
       0.533884         40.5384         33.3594         33.3594 
           0.54          39.702         32.5716         32.5716 
       0.546137         38.5148         31.8075         31.8075 
       0.552299         37.8799         31.0662         31.0662 
       0.558452         37.0832         30.3515         30.3515 
       0.564573         36.6909         29.6645         29.6645 
       0.570708         35.7171         28.9982         28.9982 
       0.576825          35.225         28.3546         28.3546 
       0.582926         34.5942          27.732          27.732 
       0.589034         33.9134         27.1267         27.1267 
       0.595184         33.4512         26.5353         26.5353 
       0.601379         32.5421         25.9577         25.9577 
       0.607522         32.0362         25.4022         25.4022 
       0.613639         31.4848         24.8658         24.8658 
       0.619772         30.9532         24.3441         24.3441 
       0.625918         30.3173         23.8368         23.8368 
       0.632068         30.0495          23.344          23.344 
       0.638161         29.4072         22.8698         22.8698 
         0.6443          28.944         22.4055         22.4055 
       0.650464         28.2201         21.9527         21.9527 
       0.656582         28.0333         21.5157         21.5157 
       0.662703         27.6799         21.0907         21.0907 
       0.668861         26.9438         20.6749         20.6749 
       0.675024         26.5954         20.2701         20.2701 
       0.681124         26.4263         19.8804         19.8804 
       0.687237         25.8829         19.5003         19.5003 
       0.693381         25.3256         19.1285         19.1285 
       0.699536         25.1944         18.7659         18.7659 
       0.705665         24.7098         18.4145         18.4145 
       0.711789         24.2528         18.0725         18.0725 
       0.717957         23.7569          17.737          17.737 
        0.72409          23.553         17.4121         17.4121 
       0.730186         23.4115         17.0973         17.0973 
       0.736317         22.9149         16.7888         16.7888 
       0.742472         22.6282         16.4868         16.4868 
       0.748622         22.2526         16.1927         16.1927 
        0.75476         21.6931         15.9064         15.9064 
       0.760888         21.6047         15.6276         15.6276 
       0.767043         21.2233         15.3545         15.3545 
       0.773185         20.9853         15.0886         15.0886 
       0.779291         20.7941         14.8305         14.8305 
       0.785407         20.4219         14.5782         14.5782 
       0.791564         20.2489         14.3303         14.3303 
       0.797719         19.8115         14.0883         14.0883 
       0.803834         19.7135         13.8535         13.8535 
       0.809972         19.3331         13.6233         13.6233 
       0.816124         19.1117         13.3979         13.3979 
       0.822261         18.8933         13.1783         13.1783 
       0.828378         18.6681         12.9643         12.9643 
       0.834502         18.4658         12.7549         12.7549 
       0.840667          18.271         12.5489         12.5489 
       0.846816         17.8703         12.3481         12.3481 
       0.852925         17.7856          12.153          12.153 
       0.859047         17.5583         11.9617         11.9617 
       0.865192         17.3059          11.774          11.774 
       0.871341         17.0735         11.5903         11.5903 
       0.877463         16.8868         11.4113         11.4113 
       0.883569         16.7719         11.2366         11.2366 
       0.889708         16.4863         11.0648         11.0648 
       0.895864         16.2818         10.8961         10.8961 
       0.902008         16.0758         10.7314         10.7314 
       0.908149         15.8668         10.5702         10.5702 
       0.914301         15.7795         10.4121         10.4121 
       0.920448         15.5365         10.2574         10.2574 
       0.926574         15.4241         10.1064         10.1064 
       0.932687         15.1953         9.95884         9.95884 
       0.938823         14.9976         9.81373         9.81373 
       0.944975          14.876         9.67121         9.67121 
       0.951105         14.6902         9.53207         9.53207 
       0.957225          14.599         9.39593         9.39593 
       0.963368         14.3734         9.26203         9.26203 
       0.969511         14.2224         9.13076         9.13076 
       0.975621         14.0766         9.00278         9.00278 
       0.981748         13.8839         8.87694         8.87694 
       0.987916         13.7813         8.75275         8.75275 
        0.99406         13.6451         8.63142         8.63142 
        1.00019          13.521         8.51266         8.51266 
        1.00632         13.3937         8.39627         8.39627 
        1.01246         13.2527          8.2819          8.2819 
        1.01859         13.0842         8.16988         8.16988 
        1.02471         12.9229         8.06009         8.06009 
        1.03085         12.8751         7.95196         7.95196 
        1.03698         12.7383         7.84606         7.84606 
        1.04314         12.5802         7.74167         7.74167 
        1.04929         12.4075         7.63944         7.63944 
        1.05541         12.3461         7.53949         7.53949 
        1.06154         12.2328         7.44109         7.44109 
        1.06769         12.1436         7.34433         7.34433 
        1.07382         11.9414         7.24961         7.24961 
        1.07993         11.8381          7.1568          7.1568 
        1.08607         11.7782         7.06525         7.06525 
        1.09222         11.6162         6.97522         6.97522 
        1.09836         11.5814         6.88688         6.88688 
        1.10449         11.3854         6.80019         6.80019 
        1.11063         11.3488         6.71491         6.71491 
        1.11677         11.2537         6.63114         6.63114 
         1.1229         11.1467         6.54896         6.54896 
        1.12903         11.0561         6.46811         6.46811 
        1.13518         10.8937         6.38858         6.38858 
        1.14131         10.8233         6.31044         6.31044 
        1.14745         10.6719         6.23367         6.23367 
        1.15359         10.5912         6.15818         6.15818 
        1.15973         10.4974         6.08392         6.08392 
        1.16584         10.4147         6.01122         6.01122 
        1.17197         10.3149         5.93963         5.93963 
        1.17811         10.2223         5.86899         5.86899 
        1.18424         10.1474         5.79972         5.79972 
        1.19038         10.0799         5.73137         5.73137 
        1.19652         9.99087         5.66417         5.66417 
        1.20267         9.90895         5.59805         5.59805 
        1.20881         9.79479         5.53302         5.53302 
        1.21495         9.72007         5.46913         5.46913 
        1.22108         9.66237         5.40627         5.40627 
         1.2272         9.56726         5.34456         5.34456 
        1.23334         9.53049         5.28367         5.28367 
        1.23949         9.41833          5.2236          5.2236 
        1.24562         9.34064         5.16464         5.16464 
        1.25174         9.28429         5.10669         5.10669 
        1.25789         9.15411         5.04946         5.04946 
        1.26402         9.12615         4.99322         4.99322 
        1.27014         9.06957         4.93797         4.93797 
        1.27628         8.94773         4.88341         4.88341 
        1.28244         8.92912         4.82957         4.82957 
        1.28858         8.85667         4.77662         4.77662 
        1.29471         8.73072         4.72458         4.72458 
        1.30084          8.6677         4.67338         4.67338 
        1.30697         8.64991         4.62286         4.62286 
        1.31312         8.55494         4.57303         4.57303 
        1.31925         8.49502         4.52409         4.52409 
        1.32537         8.43658         4.47592         4.47592 
        1.33151         8.36535         4.42829         4.42829 
        1.33765         8.29365         4.38139         4.38139 
        1.34378         8.28013         4.33526         4.33526 
        1.34992         8.18632         4.28977         4.28977 
        1.35606         8.12456         4.24484         4.24484 
         1.3622         8.05681         4.20065         4.20065 
        1.36833         8.00726         4.15719         4.15719 
        1.37445         7.94444         4.11437         4.11437 
        1.38059          7.8896         4.07204         4.07204 
        1.38675         7.82921          4.0302          4.0302 
        1.39288         7.76198         3.98912         3.98912 
        1.39901         7.70221         3.94864         3.94864 
        1.40515         7.65223         3.90863         3.90863 
         1.4113         7.59184          3.8692          3.8692 
        1.41742         7.55374         3.83046         3.83046 
        1.42355         7.48253         3.79219         3.79219 
         1.4297          7.4469         3.75433         3.75433 
        1.43585         7.40043         3.71701         3.71701 
        1.44198         7.34005         3.68034         3.68034 
        1.44809         7.29925         3.64424         3.64424 
        1.45423         7.23334          3.6085          3.6085 
        1.46036         7.19731          3.5733          3.5733 
        1.46649         7.14235         3.53856         3.53856 
        1.47263          7.1038         3.50427         3.50427 
        1.47877         7.04959         3.47044         3.47044 
        1.48491          7.0149         3.43701         3.43701 
        1.49104         6.94736          3.4041          3.4041 
        1.49718         6.92268          3.3716          3.3716 
        1.50333         6.86768         3.33947         3.33947 
        1.50947           6.803         3.30783         3.30783 
         1.5156         6.78973         3.27666         3.27666 
        1.52172         6.74112         3.24588         3.24588 
        1.52787         6.69717         3.21545         3.21545 
          1.534         6.64893         3.18544         3.18544 
        1.54013         6.61663         3.15585         3.15585 
        1.54627          6.5688         3.12658         3.12658 
        1.55241         6.51124         3.09768         3.09768 
        1.55855         6.49607         3.06919         3.06919 
        1.56467         6.44631         3.04114         3.04114 
         1.5708         6.40602         3.01337         3.01337 
        1.57695         6.34886          2.9859          2.9859 
        1.58308         6.30378         2.95884         2.95884 
        1.58922         6.28495          2.9321          2.9321 
        1.59535         6.24333          2.9057          2.9057 
         1.6015          6.1878         2.87959         2.87959 
        1.60764         6.16625         2.85382         2.85382 
        1.61376         6.13444         2.82844         2.82844 
        1.61989          6.0714         2.80334         2.80334 
        1.62604         6.05033          2.7785          2.7785 
        1.63218         6.01784         2.75398         2.75398 
        1.63831         5.98617         2.72981         2.72981 
        1.64444         5.93473         2.70592         2.70592 
        1.65059         5.90552         2.68227         2.68227 
        1.65673         5.88023         2.65893         2.65893 
        1.66285         5.84323         2.63593         2.63593 
        1.66898         5.80282          2.6132          2.6132 
        1.67512         5.76473         2.59069         2.59069 
        1.68127         5.72633         2.56843         2.56843 
         1.6874         5.70527         2.54648         2.54648 
        1.69353         5.65819         2.52481         2.52481 
        1.69967         5.63773         2.50334         2.50334 
        1.70581         5.59258         2.48212         2.48212 
        1.71193         5.57532         2.46124         2.46124 
        1.71806         5.54065         2.44055         2.44055 
        1.72421          5.5023         2.42006         2.42006 
        1.73035         5.47167         2.39983         2.39983 
        1.73649          5.4421         2.37984         2.37984 
        1.74262         5.40634          2.3601          2.3601 
        1.74876         5.39487         2.34056         2.34056 
        1.75489         5.35496         2.32129         2.32129 
        1.76101          5.3153         2.30225         2.30225 
        1.76715         5.30497         2.28339         2.28339 
        1.77329         5.27428         2.26473         2.26473 
        1.77943         5.22691         2.24626         2.24626 
        1.78557         5.21687         2.22803         2.22803 
        1.79171          5.1892            2.21            2.21 
        1.79785          5.1597         2.19217         2.19217 
        1.80399         5.11114         2.17454         2.17454 
        1.81012           5.099         2.15713         2.15713 
        1.81625         5.06739         2.13992         2.13992 
        1.82239         5.04377         2.12287         2.12287 
        1.82853         5.01173         2.10602         2.10602 
        1.83466         4.97319         2.08936         2.08936 
        1.84078         4.95394         2.07291         2.07291 
        1.84692         4.92974         2.05661         2.05661 
        1.85306         4.90261         2.04046         2.04046 
         1.8592         4.88883         2.02452         2.02452 
        1.86533         4.85945         2.00875         2.00875 
        1.87147         4.83125         1.99314         1.99314 
