# k  (h/Mpc)    Pcb(k)  (Mpc/h)^3    Pcb_linear(k) (Mpc/h)^3    Pcb_NL(k) (Mpc/h)^3   ShotnoiseSubtracted = false
     0.00783031         12633.8         12695.8         12695.8 
       0.013688         15671.1         16069.3         16069.3 
       0.019231           16323         16566.9         16566.9 
      0.0249154         15610.7         15604.3         15604.3 
      0.0312784         13664.2         13825.3         13825.3 
      0.0375637         11827.5         12063.6         12063.6 
      0.0433917         10636.2         10732.1         10732.1 
      0.0492413         9567.78         9739.71         9739.71 
      0.0555754         8855.05         8961.79         8961.79 
      0.0619321         7991.23         8335.18         8335.18 
       0.067871         7546.83         7764.04         7764.04 
      0.0738098         7006.66         7144.56         7144.56 
      0.0800417          6346.4          6446.3          6446.3 
      0.0862327         5658.47         5757.18         5757.18 
      0.0921407         5111.82         5164.55         5164.55 
      0.0982031         4687.39         4664.95         4664.95 
       0.104506         4237.83         4273.52         4273.52 
       0.110769         3974.59         3993.04         3993.04 
       0.116806          3828.2         3786.85         3786.85 
       0.122832         3602.36          3603.3          3603.3 
       0.129052         3403.35         3404.99         3404.99 
       0.135211         3265.57         3185.79         3185.79 
       0.141259         3004.91         2953.75         2953.75 
       0.147318          2763.9          2721.7          2721.7 
       0.153489         2597.02         2505.51         2505.51 
       0.159709         2489.16         2322.37         2322.37 
       0.165845         2286.57         2179.79         2179.79 
       0.171974         2238.96         2069.73         2069.73 
       0.178125         2171.14         1980.35         1980.35 
       0.184229         2011.45         1899.82         1899.82 
        0.19034         1976.13         1817.35         1817.35 
       0.196428          1912.7         1728.62         1728.62 
       0.202534         1789.04         1633.88         1633.88 
       0.208729         1748.47         1536.84         1536.84 
       0.214876         1669.02         1445.82         1445.82 
       0.220989         1579.99         1365.35         1365.35 
       0.227147          1541.1         1296.53         1296.53 
        0.23329         1484.07         1239.29         1239.29 
       0.239377            1473         1190.88         1190.88 
       0.245482         1404.49          1146.8          1146.8 
       0.251667         1352.79         1103.32         1103.32 
       0.257832         1333.22         1059.07         1059.07 
       0.263955         1269.82         1013.85         1013.85 
       0.270079         1233.96         968.401         968.401 
        0.27624         1182.01         924.136         924.136 
       0.282372          1165.6         883.163         883.163 
        0.28843         1148.67         846.634         846.634 
       0.294538         1094.64         813.884         813.884 
       0.300721         1071.77         784.288         784.288 
        0.30691         1049.08         757.121         757.121 
       0.313033         1007.68         731.584         731.584 
       0.319153          995.44         706.555         706.555 
       0.325316         982.465         681.511         681.511 
        0.33145          961.35         656.807         656.807 
       0.337538         928.911         632.905         632.905 
       0.343633         905.769          610.04          610.04 
       0.349808         887.924         588.323         588.323 
       0.355968         871.077         568.273         568.273 
       0.362074         843.541         549.877         549.877 
       0.368217         840.802         532.621         532.621 
       0.374374         828.148         516.228         516.228 
       0.380519         798.091         500.476         500.476 
       0.386598         792.327         485.311         485.311 
       0.392688         774.113         470.457         470.457 
        0.39888         755.789         455.765         455.765 
       0.405048         742.157         441.645         441.645 
       0.411186         740.025         428.201         428.201 
       0.417313         735.146         415.471         415.471 
       0.423458         712.569         403.387         403.387 
       0.429607         693.091          391.92          391.92 
       0.435692         686.137         381.113         381.113 
       0.441815         674.077         370.676         370.676 
       0.447964         663.515         360.545         360.545 
       0.454126         655.707         350.707         350.707 
       0.460267         646.043         341.204         341.204 
       0.466387         635.733         332.032         332.032 
        0.47254         625.376         323.132         323.132 
       0.478662         615.553         314.625         314.625 
       0.484765         608.992         306.493         306.493 
       0.490885         602.793         298.669         298.669 
       0.497035         590.993         291.118         291.118 
       0.503198         590.242          283.84          283.84 
       0.509342         578.613          276.84          276.84 
       0.515458          567.57         270.095         270.095 
       0.521598         562.986          263.53          263.53 
       0.527764         551.758         257.142         257.142 
       0.533884         547.932         251.007         251.007 
           0.54         542.149          245.08          245.08 
       0.546137          533.03          239.33          239.33 
       0.552299         531.155         233.753         233.753 
       0.558452         523.596         228.375         228.375 
       0.564573          518.75         223.205         223.205 
       0.570708         513.677         218.192         218.192 
       0.576825         503.449         213.349         213.349 
       0.582926         501.587         208.664         208.664 
       0.589034         494.102          204.11          204.11 
       0.595184         490.003         199.661         199.661 
       0.601379         482.264         195.314         195.314 
       0.607522         474.164         191.134         191.134 
       0.613639          472.91         187.099         187.099 
       0.619772         470.616         183.173         183.173 
       0.625918         461.795         179.356         179.356 
       0.632068         459.129         175.648         175.648 
       0.638161         454.231          172.08          172.08 
         0.6443         449.354         168.587         168.587 
       0.650464         444.509         165.179         165.179 
       0.656582         440.753         161.891         161.891 
       0.662703         436.752         158.693         158.693 
       0.668861         430.867         155.565         155.565 
       0.675024         428.206         152.519         152.519 
       0.681124         421.863         149.587         149.587 
       0.687237         420.325         146.727         146.727 
       0.693381         414.165         143.929         143.929 
       0.699536         412.776         141.201         141.201 
       0.705665         407.682         138.556         138.556 
       0.711789          406.25         135.983         135.983 
       0.717957         400.561         133.459         133.459 
        0.72409         396.485         131.014         131.014 
       0.730186         397.768         128.646         128.646 
       0.736317         390.804         126.324         126.324 
       0.742472         387.149         124.052         124.052 
       0.748622         384.059         121.839         121.839 
        0.75476         381.624         119.685         119.685 
       0.760888         378.264         117.587         117.587 
       0.767043         375.192         115.532         115.532 
       0.773185         372.908         113.531         113.531 
       0.779291          367.93          111.59          111.59 
       0.785407          365.86         109.691         109.691 
       0.791564          363.13         107.826         107.826 
       0.797719          357.51         106.005         106.005 
       0.803834         359.747         104.238         104.238 
       0.809972         353.827         102.506         102.506 
       0.816124         350.263          100.81          100.81 
       0.822261         347.721         99.1575         99.1575 
       0.828378         346.289         97.5474         97.5474 
       0.834502         341.118         95.9723         95.9723 
       0.840667         341.253         94.4221         94.4221 
       0.846816           335.4          92.911          92.911 
       0.852925         335.879         91.4429         91.4429 
       0.859047          332.56         90.0039         90.0039 
       0.865192         331.222         88.5914         88.5914 
       0.871341         326.457         87.2088         87.2088 
       0.877463         324.487         85.8623         85.8623 
       0.883569         322.327          84.548          84.548 
       0.889708         319.325         83.2549         83.2549 
       0.895864         316.419         81.9858         81.9858 
       0.902008         314.871         80.7462         80.7462 
       0.908149         312.107         79.5333         79.5333 
       0.914301          310.52         78.3436         78.3436 
       0.920448         308.338         77.1797         77.1797 
       0.926574         305.995         76.0438         76.0438 
       0.932687         304.528         74.9335         74.9335 
       0.938823         301.163         73.8416         73.8416 
       0.944975         300.333         72.7693         72.7693 
       0.951105         297.345         71.7223         71.7223 
       0.957225         293.993          70.698          70.698 
       0.963368         294.426         69.6905         69.6905 
       0.969511         288.804         68.7028         68.7028 
       0.975621         288.198         67.7398         67.7398 
       0.981748         286.836          66.793          66.793 
       0.987916         285.211         65.8585         65.8585 
        0.99406          282.36         64.9456         64.9456 
        1.00019         280.134          64.052          64.052 
        1.00632         279.685         63.1762         63.1762 
        1.01246         277.178         62.3157         62.3157 
        1.01859          273.91         61.4728         61.4728 
        1.02471         272.154         60.6467         60.6467 
        1.03085         271.153         59.8331         59.8331 
        1.03698         269.551         59.0363         59.0363 
        1.04314         268.661         58.2508         58.2508 
        1.04929         266.705         57.4816         57.4816 
        1.05541         263.861         56.7295         56.7295 
        1.06154         262.156         55.9892         55.9892 
        1.06769         259.861          55.261          55.261 
        1.07382         259.138         54.5484         54.5484 
        1.07993         256.581           53.85           53.85 
        1.08607         255.071         53.1612         53.1612 
        1.09222         253.215         52.4837         52.4837 
        1.09836          252.38          51.819          51.819 
        1.10449         250.364         51.1668         51.1668 
        1.11063         248.363         50.5251         50.5251 
        1.11677         246.383         49.8948         49.8948 
         1.1229          245.58         49.2764         49.2764 
        1.12903         243.657         48.6681         48.6681 
        1.13518         241.825         48.0697         48.0697 
        1.14131         241.042         47.4818         47.4818 
        1.14745         238.097         46.9041         46.9041 
        1.15359         236.415         46.3361         46.3361 
        1.15973         235.772         45.7773         45.7773 
        1.16584         234.446         45.2303         45.2303 
        1.17197         232.801         44.6916         44.6916 
        1.17811          230.76         44.1601         44.1601 
        1.18424         229.432         43.6389         43.6389 
        1.19038         228.296         43.1247         43.1247 
        1.19652         225.545          42.619          42.619 
        1.20267         225.124         42.1215         42.1215 
        1.20881         223.236         41.6322         41.6322 
        1.21495         222.756         41.1515         41.1515 
        1.22108         221.007         40.6785         40.6785 
         1.2272         218.626         40.2141         40.2141 
        1.23334         217.933          39.756          39.756 
        1.23949          216.85          39.304          39.304 
        1.24562         215.213         38.8604         38.8604 
        1.25174         213.861         38.4244         38.4244 
        1.25789         211.944         37.9937         37.9937 
        1.26402         211.677         37.5705         37.5705 
        1.27014         210.614         37.1549         37.1549 
        1.27628         208.337         36.7443         36.7443 
        1.28244         207.256         36.3392         36.3392 
        1.28858         205.898         35.9408         35.9408 
        1.29471         204.887         35.5493         35.5493 
        1.30084         203.626          35.164          35.164 
        1.30697         201.709         34.7839         34.7839 
        1.31312         200.619         34.4089         34.4089 
        1.31925         199.418         34.0407         34.0407 
        1.32537         198.745         33.6783         33.6783 
        1.33151         197.215         33.3199         33.3199 
        1.33765         195.629         32.9669         32.9669 
        1.34378         194.758         32.6199         32.6199 
        1.34992         193.281         32.2776         32.2776 
        1.35606         192.282         31.9395         31.9395 
         1.3622         191.164          31.607          31.607 
        1.36833         189.463           31.28           31.28 
        1.37445         189.394         30.9578         30.9578 
        1.38059         187.326         30.6393         30.6393 
        1.38675         186.111         30.3245         30.3245 
        1.39288         184.992         30.0154         30.0154 
        1.39901         183.813         29.7108         29.7108 
        1.40515         183.163         29.4098         29.4098 
         1.4113         181.609         29.1131         29.1131 
        1.41742         180.084         28.8216         28.8216 
        1.42355         180.296         28.5336         28.5336 
         1.4297         178.471         28.2488         28.2488 
        1.43585          177.63         27.9679         27.9679 
        1.44198          175.81          27.692          27.692 
        1.44809         175.206         27.4204         27.4204 
        1.45423          174.17         27.1515         27.1515 
        1.46036         173.111         26.8866         26.8866 
        1.46649             172         26.6253         26.6253 
        1.47263         171.391         26.3672         26.3672 
        1.47877         169.919         26.1127         26.1127 
        1.48491         168.544         25.8612         25.8612 
        1.49104         167.101         25.6135         25.6135 
        1.49718         166.659          25.369          25.369 
        1.50333         165.399         25.1272         25.1272 
        1.50947         164.542         24.8892         24.8892 
         1.5156         163.387         24.6546         24.6546 
        1.52172         162.693          24.423          24.423 
        1.52787         161.686          24.194          24.194 
          1.534         160.669         23.9682         23.9682 
        1.54013         159.637         23.7456         23.7456 
        1.54627         158.688         23.5254         23.5254 
        1.55241         157.964         23.3079         23.3079 
        1.55855         157.218         23.0936         23.0936 
        1.56467         155.968         22.8825         22.8825 
         1.5708         154.657         22.6735         22.6735 
        1.57695         154.062         22.4668         22.4668 
        1.58308         152.924         22.2632         22.2632 
        1.58922         152.223          22.062          22.062 
        1.59535         150.997         21.8634         21.8634 
         1.6015          150.25         21.6669         21.6669 
        1.60764         149.259          21.473          21.473 
        1.61376         148.174          21.282          21.282 
        1.61989          147.51         21.0932         21.0932 
        1.62604         146.372         20.9063         20.9063 
        1.63218         145.709         20.7218         20.7218 
        1.63831         144.804         20.5399         20.5399 
        1.64444         143.771         20.3602         20.3602 
        1.65059         143.051         20.1822         20.1822 
        1.65673          142.14         20.0066         20.0066 
        1.66285         141.642         19.8335         19.8335 
        1.66898          140.49         19.6625         19.6625 
        1.67512         139.636         19.4932         19.4932 
        1.68127         138.923         19.3257         19.3257 
         1.6874         137.896         19.1605         19.1605 
        1.69353         137.525         18.9974         18.9974 
        1.69967         136.246         18.8359         18.8359 
        1.70581         135.834         18.6763         18.6763 
        1.71193         134.714         18.5191         18.5191 
        1.71806         133.501         18.3635         18.3635 
        1.72421         133.164         18.2093         18.2093 
        1.73035         132.294         18.0571         18.0571 
        1.73649          131.26         17.9067         17.9067 
        1.74262         130.891         17.7581         17.7581 
        1.74876         129.955         17.6111         17.6111 
        1.75489          129.29         17.4661         17.4661 
        1.76101         128.246         17.3228         17.3228 
        1.76715         127.338         17.1809         17.1809 
        1.77329         126.811         17.0405         17.0405 
        1.77943         125.827         16.9016         16.9016 
        1.78557         125.387         16.7644         16.7644 
        1.79171         124.633         16.6287         16.6287 
        1.79785         123.574         16.4946         16.4946 
        1.80399         123.028         16.3619         16.3619 
        1.81012         122.039         16.2309         16.2309 
        1.81625          121.64         16.1014         16.1014 
        1.82239         120.797         15.9731         15.9731 
        1.82853         120.108         15.8463         15.8463 
        1.83466         119.178          15.721          15.721 
        1.84078         118.778         15.5972         15.5972 
        1.84692         118.315         15.4745         15.4745 
        1.85306         117.289         15.3531         15.3531 
         1.8592         116.767         15.2331         15.2331 
        1.86533         115.751         15.1145         15.1145 
        1.87147         115.413          14.997          14.997 
