# k  (h/Mpc)    Pcb(k)  (Mpc/h)^3    Pcb_linear(k) (Mpc/h)^3    Pcb_NL(k) (Mpc/h)^3   ShotnoiseSubtracted = false
     0.00783031           14196         14265.2         14265.2 
       0.013688         17605.8           18078           18078 
       0.019231         18348.3         18643.1         18643.1 
      0.0249154         17562.8         17561.9         17561.9 
      0.0312784         15357.6         15560.7         15560.7 
      0.0375637         13286.1         13578.2         13578.2 
      0.0433917         11952.5         12079.8         12079.8 
      0.0492413         10747.3         10962.9         10962.9 
      0.0555754         9944.63         10087.4         10087.4 
      0.0619321         8961.52          9382.1          9382.1 
       0.067871         8465.19         8739.26         8739.26 
      0.0738098         7866.48         8041.99         8041.99 
      0.0800417         7123.65         7256.04         7256.04 
      0.0862327         6354.01         6480.36         6480.36 
      0.0921407         5745.77         5813.31         5813.31 
      0.0982031         5273.78         5250.95         5250.95 
       0.104506         4767.43         4810.36         4810.36 
       0.110769         4472.37         4494.65         4494.65 
       0.116806         4307.49         4262.56         4262.56 
       0.122832          4055.8         4055.95         4055.95 
       0.129052         3827.32         3832.73         3832.73 
       0.135211         3679.24         3585.99         3585.99 
       0.141259         3385.45         3324.81         3324.81 
       0.147318          3118.9         3063.61         3063.61 
       0.153489         2934.12         2820.26         2820.26 
       0.159709         2818.83         2614.11         2614.11 
       0.165845         2590.43         2453.63         2453.63 
       0.171974         2535.03         2329.74         2329.74 
       0.178125         2462.47         2229.13         2229.13 
       0.184229         2277.72         2138.49         2138.49 
        0.19034          2241.3         2045.65         2045.65 
       0.196428         2172.19         1945.77         1945.77 
       0.202534         2036.26         1839.14         1839.14 
       0.208729         1990.24         1729.91         1729.91 
       0.214876         1900.04         1627.46         1627.46 
       0.220989         1805.56         1536.87         1536.87 
       0.227147         1759.68          1459.4          1459.4 
        0.23329         1694.29         1394.98         1394.98 
       0.239377         1684.88         1340.48         1340.48 
       0.245482         1608.39         1290.87         1290.87 
       0.251667         1549.64         1241.93         1241.93 
       0.257832         1526.02         1192.12         1192.12 
       0.263955         1456.76         1141.22         1141.22 
       0.270079         1418.74         1090.06         1090.06 
        0.27624         1359.43         1040.23         1040.23 
       0.282372         1343.42         994.112         994.112 
        0.28843         1320.57         952.994         952.994 
       0.294538         1261.24         916.129         916.129 
       0.300721         1237.62         882.815         882.815 
        0.30691         1208.95         852.235         852.235 
       0.313033         1163.57          823.49          823.49 
       0.319153         1151.03         795.317         795.317 
       0.325316         1136.73         767.127         767.127 
        0.33145         1112.24         739.319         739.319 
       0.337538          1076.3         712.414         712.414 
       0.343633         1051.03         686.677         686.677 
       0.349808          1032.1         662.233         662.233 
       0.355968          1011.7         639.663         639.663 
       0.362074         981.402         618.956         618.956 
       0.368217         978.487         599.532         599.532 
       0.374374         963.972         581.079         581.079 
       0.380519         930.442         563.349         563.349 
       0.386598         925.272         546.279         546.279 
       0.392688         902.866         529.558         529.558 
        0.39888         883.697         513.021         513.021 
       0.405048          867.14         497.127         497.127 
       0.411186         864.645         481.995         481.995 
       0.417313         860.271         467.665         467.665 
       0.423458         834.024         454.063         454.063 
       0.429607         811.621         441.155         441.155 
       0.435692         804.802         428.991         428.991 
       0.441815         790.033         417.243         417.243 
       0.447964         779.737         405.839         405.839 
       0.454126         770.083         394.765         394.765 
       0.460267         759.966         384.068         384.068 
       0.466387         747.566         373.744         373.744 
        0.47254         735.282         363.726         363.726 
       0.478662         725.302          354.15          354.15 
       0.484765          717.48         344.997         344.997 
       0.490885          710.08          336.19          336.19 
       0.497035          696.72         327.691         327.691 
       0.503198         695.658         319.499         319.499 
       0.509342         682.766         311.618         311.618 
       0.515458         669.389         304.026         304.026 
       0.521598         666.583         296.636         296.636 
       0.527764          651.84         289.446         289.446 
       0.533884         646.261         282.541         282.541 
           0.54         640.697         275.868         275.868 
       0.546137         631.297         269.397         269.397 
       0.552299         627.871         263.118         263.118 
       0.558452         620.029         257.065         257.065 
       0.564573          615.12         251.246         251.246 
       0.570708         609.102         245.603         245.603 
       0.576825         596.745         240.152         240.152 
       0.582926         595.119         234.878         234.878 
       0.589034         586.774         229.752         229.752 
       0.595184         581.214         224.743         224.743 
       0.601379         572.243         219.851         219.851 
       0.607522         563.409         215.146         215.146 
       0.613639         562.423         210.603         210.603 
       0.619772          558.74         206.185         206.185 
       0.625918           548.9         201.888         201.888 
       0.632068         546.499         197.714         197.714 
       0.638161         539.754         193.698         193.698 
         0.6443         534.026         189.766         189.766 
       0.650464         529.274          185.93          185.93 
       0.656582         525.076         182.229         182.229 
       0.662703         519.376          178.63          178.63 
       0.668861         513.305         175.108         175.108 
       0.675024         510.291          171.68          171.68 
       0.681124         501.452         168.379         168.379 
       0.687237         501.075         165.159         165.159 
       0.693381         492.869         162.011         162.011 
       0.699536         492.775          158.94          158.94 
       0.705665         486.002         155.963         155.963 
       0.711789         484.851         153.067         153.067 
       0.717957         478.063         150.225         150.225 
        0.72409         473.757         147.473         147.473 
       0.730186         473.673         144.807         144.807 
       0.736317          466.32         142.194         142.194 
       0.742472         461.585         139.637         139.637 
       0.748622          459.27         137.145         137.145 
        0.75476         454.555         134.721         134.721 
       0.760888         451.738          132.36          132.36 
       0.767043         448.838         130.046         130.046 
       0.773185         445.526         127.794         127.794 
       0.779291         440.348         125.608         125.608 
       0.785407         437.094         123.471         123.471 
       0.791564         434.602         121.371         121.371 
       0.797719         427.969         119.322         119.322 
       0.803834         429.601         117.333         117.333 
       0.809972         422.639         115.384         115.384 
       0.816124          419.11         113.474         113.474 
       0.822261         416.616         111.614         111.614 
       0.828378         414.437         109.802         109.802 
       0.834502         408.058         108.029         108.029 
       0.840667         407.924         106.284         106.284 
       0.846816         402.149         104.583         104.583 
       0.852925         402.451         102.931         102.931 
       0.859047         398.341         101.311         101.311 
       0.865192         396.145         99.7209         99.7209 
       0.871341         390.764         98.1646         98.1646 
       0.877463         389.408         96.6489         96.6489 
       0.883569         385.889         95.1696         95.1696 
       0.889708         382.088          93.714          93.714 
       0.895864         378.343         92.2855         92.2855 
       0.902008         377.374         90.8901         90.8901 
       0.908149         373.798         89.5248         89.5248 
       0.914301         372.376         88.1857         88.1857 
       0.920448         368.465         86.8756         86.8756 
       0.926574         366.259          85.597          85.597 
       0.932687         364.972         84.3472         84.3472 
       0.938823         360.513         83.1181         83.1181 
       0.944975          359.55         81.9111         81.9111 
       0.951105         356.263         80.7326         80.7326 
       0.957225          351.63         79.5796         79.5796 
       0.963368         352.387         78.4455         78.4455 
       0.969511         346.231         77.3337         77.3337 
       0.975621         345.374         76.2497         76.2497 
       0.981748         343.709          75.184          75.184 
       0.987916         341.539         74.1321         74.1321 
        0.99406         338.006         73.1045         73.1045 
        1.00019         334.911         72.0986         72.0986 
        1.00632         334.458         71.1128         71.1128 
        1.01246         331.506         70.1442         70.1442 
        1.01859         327.947         69.1954         69.1954 
        1.02471         326.081         68.2655         68.2655 
        1.03085         324.789         67.3497         67.3497 
        1.03698         322.823         66.4528         66.4528 
        1.04314         321.149         65.5687         65.5687 
        1.04929         319.176         64.7028         64.7028 
        1.05541          315.27         63.8563         63.8563 
        1.06154         313.705         63.0229         63.0229 
        1.06769         310.828         62.2033         62.2033 
        1.07382         309.093         61.4012         61.4012 
        1.07993         307.492         60.6151         60.6151 
        1.08607         305.549         59.8396         59.8396 
        1.09222         302.896         59.0771         59.0771 
        1.09836         301.656         58.3289         58.3289 
        1.10449         299.465         57.5947         57.5947 
        1.11063         297.439         56.8724         56.8724 
        1.11677          294.14         56.1629         56.1629 
         1.1229         293.769         55.4669         55.4669 
        1.12903         291.088         54.7822         54.7822 
        1.13518         289.014         54.1086         54.1086 
        1.14131         287.896         53.4468         53.4468 
        1.14745         284.531         52.7966         52.7966 
        1.15359         282.522         52.1572         52.1572 
        1.15973         281.335         51.5282         51.5282 
        1.16584         279.781         50.9125         50.9125 
        1.17197         277.825         50.3061         50.3061 
        1.17811         275.057         49.7078         49.7078 
        1.18424         273.851         49.1211         49.1211 
        1.19038         272.448         48.5423         48.5423 
        1.19652         269.259         47.9731         47.9731 
        1.20267         268.803         47.4131         47.4131 
        1.20881         266.731         46.8623         46.8623 
        1.21495         265.269         46.3212         46.3212 
        1.22108         263.556         45.7888         45.7888 
         1.2272          260.18         45.2661         45.2661 
        1.23334         259.503         44.7505         44.7505 
        1.23949         257.937         44.2417         44.2417 
        1.24562         256.504         43.7423         43.7423 
        1.25174         254.764         43.2515         43.2515 
        1.25789         252.469         42.7668         42.7668 
        1.26402         251.906         42.2904         42.2904 
        1.27014         250.469         41.8225         41.8225 
        1.27628         248.122         41.3604         41.3604 
        1.28244         246.458         40.9044         40.9044 
        1.28858         245.309         40.4559         40.4559 
        1.29471         243.839         40.0152         40.0152 
        1.30084         242.805         39.5815         39.5815 
        1.30697         240.064         39.1537         39.1537 
        1.31312         238.674         38.7316         38.7316 
        1.31925         237.372         38.3171         38.3171 
        1.32537         236.491         37.9092         37.9092 
        1.33151         234.346         37.5057         37.5057 
        1.33765         232.477         37.1085         37.1085 
        1.34378         231.493         36.7178         36.7178 
        1.34992         229.263         36.3325         36.3325 
        1.35606         228.315          35.952          35.952 
         1.3622         226.675         35.5777         35.5777 
        1.36833         225.539         35.2096         35.2096 
        1.37445         224.841          34.847          34.847 
        1.38059         222.152         34.4884         34.4884 
        1.38675         220.801         34.1341         34.1341 
        1.39288         219.808         33.7861         33.7861 
        1.39901          217.89         33.4433         33.4433 
        1.40515         217.079         33.1044         33.1044 
         1.4113         215.355         32.7704         32.7704 
        1.41742          213.53         32.4424         32.4424 
        1.42355         213.422         32.1182         32.1182 
         1.4297         211.512         31.7976         31.7976 
        1.43585         210.176         31.4815         31.4815 
        1.44198          208.52         31.1709         31.1709 
        1.44809         207.674         30.8652         30.8652 
        1.45423          206.34         30.5624         30.5624 
        1.46036         205.225         30.2643         30.2643 
        1.46649         203.888         29.9701         29.9701 
        1.47263          202.72         29.6796         29.6796 
        1.47877         201.156         29.3931         29.3931 
        1.48491         199.607           29.11           29.11 
        1.49104         197.947         28.8313         28.8313 
        1.49718          197.29          28.556          28.556 
        1.50333         195.461         28.2839         28.2839 
        1.50947         194.676         28.0159         28.0159 
         1.5156         193.452         27.7519         27.7519 
        1.52172         192.277         27.4912         27.4912 
        1.52787         190.928         27.2334         27.2334 
          1.534         190.355         26.9793         26.9793 
        1.54013         188.667         26.7287         26.7287 
        1.54627         187.723         26.4808         26.4808 
        1.55241         186.695          26.236          26.236 
        1.55855         185.569         25.9948         25.9948 
        1.56467         184.427         25.7572         25.7572 
         1.5708         182.824         25.5219         25.5219 
        1.57695         182.022         25.2893         25.2893 
        1.58308         180.843         25.0601         25.0601 
        1.58922         179.567         24.8336         24.8336 
        1.59535         178.156           24.61           24.61 
         1.6015         177.579         24.3889         24.3889 
        1.60764         176.122         24.1706         24.1706 
        1.61376         174.782         23.9556         23.9556 
        1.61989         173.793         23.7431         23.7431 
        1.62604          172.84         23.5327         23.5327 
        1.63218         171.771          23.325          23.325 
        1.63831         171.099         23.1203         23.1203 
        1.64444         169.486          22.918          22.918 
        1.65059         168.696         22.7177         22.7177 
        1.65673         167.504           22.52           22.52 
        1.66285         166.712         22.3252         22.3252 
        1.66898         165.652         22.1327         22.1327 
        1.67512         164.486          21.942          21.942 
        1.68127          163.67         21.7535         21.7535 
         1.6874          162.49         21.5676         21.5676 
        1.69353         161.922          21.384          21.384 
        1.69967         160.492         21.2022         21.2022 
        1.70581         159.979         21.0225         21.0225 
        1.71193         158.685         20.8456         20.8456 
        1.71806         157.326         20.6704         20.6704 
        1.72421         156.637         20.4969         20.4969 
        1.73035         155.612         20.3256         20.3256 
        1.73649         154.489         20.1562         20.1562 
        1.74262         153.841          19.989          19.989 
        1.74876          152.98         19.8236         19.8236 
        1.75489         152.187         19.6604         19.6604 
        1.76101         150.888          19.499          19.499 
        1.76715         149.942         19.3393         19.3393 
        1.77329         148.927         19.1812         19.1812 
        1.77943          147.95         19.0249         19.0249 
        1.78557         147.212         18.8705         18.8705 
        1.79171          146.47         18.7178         18.7178 
        1.79785         145.379         18.5667         18.5667 
        1.80399         144.573         18.4174         18.4174 
        1.81012         143.874         18.2699         18.2699 
        1.81625         142.683         18.1242         18.1242 
        1.82239         142.009         17.9798         17.9798 
        1.82853         141.095          17.837          17.837 
        1.83466         139.834          17.696          17.696 
        1.84078         139.467         17.5566         17.5566 
        1.84692          138.65         17.4186         17.4186 
        1.85306         137.526         17.2818         17.2818 
         1.8592         137.033         17.1468         17.1468 
        1.86533         135.672         17.0132         17.0132 
        1.87147          134.99          16.881          16.881 
