# k  (h/Mpc)    Pcb(k)  (Mpc/h)^3    Pcb_linear(k) (Mpc/h)^3    Pcb_NL(k) (Mpc/h)^3   ShotnoiseSubtracted = false
     0.00783031          2348.4         2363.72         2363.72 
       0.013688         2949.88         2989.46         2989.46 
       0.019231         3062.88         3081.77         3081.77 
      0.0249154         2905.83          2902.7          2902.7 
      0.0312784         2566.17         2571.82         2571.82 
      0.0375637         2232.86         2244.13         2244.13 
      0.0433917         1998.22         1996.47         1996.47 
      0.0492413         1805.88         1811.88         1811.88 
      0.0555754         1669.36         1667.17         1667.17 
      0.0619321         1530.53         1550.62         1550.62 
       0.067871          1437.2         1444.37         1444.37 
      0.0738098         1325.93         1329.14         1329.14 
      0.0800417         1200.39         1199.24         1199.24 
      0.0862327         1069.57         1071.04         1071.04 
      0.0921407         959.942         960.796         960.796 
      0.0982031         872.591         867.854         867.854 
       0.104506         792.448         795.035         795.035 
       0.110769         741.561         742.857         742.857 
       0.116806         709.869         704.499         704.499 
       0.122832         669.729         670.352         670.352 
       0.129052         635.657         633.459         633.459 
       0.135211         599.304          592.68          592.68 
       0.141259         553.078         549.512         549.512 
       0.147318         506.645         506.343         506.343 
       0.153489         470.282         466.123         466.123 
       0.159709         440.305         432.051         432.051 
       0.165845         407.398         405.528         405.528 
       0.171974          394.55         385.052         385.052 
       0.178125         377.725         368.424         368.424 
       0.184229         358.094         353.442         353.442 
        0.19034         346.499           338.1           338.1 
       0.196428         330.518         321.592         321.592 
       0.202534         308.375         303.968         303.968 
       0.208729         295.565         285.914         285.914 
       0.214876          281.29         268.981         268.981 
       0.220989         261.622         254.009         254.009 
       0.227147          253.94         241.206         241.206 
        0.23329         243.911         230.559         230.559 
       0.239377         236.237         221.551         221.551 
       0.245482         225.825         213.351         213.351 
       0.251667         216.315         205.262         205.262 
       0.257832         211.662          197.03          197.03 
       0.263955          200.26         188.618         188.618 
       0.270079         192.037         180.162         180.162 
        0.27624         182.833         171.927         171.927 
       0.282372         176.302         164.304         164.304 
        0.28843         173.105         157.508         157.508 
       0.294538         165.538         151.415         151.415 
       0.300721         158.588         145.909         145.909 
        0.30691         155.522         140.855         140.855 
       0.313033         149.462         136.104         136.104 
       0.319153         146.637         131.448         131.448 
       0.325316         140.348         126.789         126.789 
        0.33145         135.723         122.193         122.193 
       0.337538         131.388         117.746         117.746 
       0.343633         127.291         113.492         113.492 
       0.349808         123.113         109.452         109.452 
       0.355968         119.422         105.722         105.722 
       0.362074         117.004           102.3           102.3 
       0.368217         113.875         99.0892         99.0892 
       0.374374           111.4         96.0394         96.0394 
       0.380519         106.696         93.1089         93.1089 
       0.386598         103.901         90.2877         90.2877 
       0.392688         100.858         87.5241         87.5241 
        0.39888         98.9065          84.791          84.791 
       0.405048          96.493          82.164          82.164 
       0.411186         94.1137         79.6629         79.6629 
       0.417313         91.5241         77.2946         77.2946 
       0.423458         89.0529         75.0464         75.0464 
       0.429607         87.4819         72.9131         72.9131 
       0.435692         85.9425         70.9027         70.9027 
       0.441815         82.9048         68.9609         68.9609 
       0.447964         80.3996         67.0762         67.0762 
       0.454126         78.9757         65.2459         65.2459 
       0.460267         78.2353         63.4779         63.4779 
       0.466387         76.1172         61.7715         61.7715 
        0.47254         75.0498         60.1158         60.1158 
       0.478662         72.5526         58.5331         58.5331 
       0.484765         71.1956         57.0203         57.0203 
       0.490885         69.2883         55.5648         55.5648 
       0.497035         68.4408         54.1599         54.1599 
       0.503198         66.7879          52.806          52.806 
       0.509342         65.0665         51.5035         51.5035 
       0.515458         64.2468         50.2488         50.2488 
       0.521598         62.7066         49.0273         49.0273 
       0.527764         61.9211          47.839          47.839 
       0.533884         60.7946         46.6976         46.6976 
           0.54         59.4117         45.5949         45.5949 
       0.546137         57.7123         44.5252         44.5252 
       0.552299         56.8038         43.4876         43.4876 
       0.558452         55.6563         42.4871         42.4871 
       0.564573         55.2431         41.5253         41.5253 
       0.570708         53.6536         40.5926         40.5926 
       0.576825         53.0512         39.6918         39.6918 
       0.582926         52.2397         38.8202         38.8202 
       0.589034         51.2287         37.9729         37.9729 
       0.595184          50.523         37.1451         37.1451 
       0.601379         49.1797         36.3364         36.3364 
       0.607522         48.4647         35.5588         35.5588 
       0.613639         47.8063          34.808          34.808 
       0.619772         46.9507         34.0778         34.0778 
       0.625918         46.0926         33.3676         33.3676 
       0.632068         45.6889         32.6778         32.6778 
       0.638161          44.732         32.0139         32.0139 
         0.6443          44.162          31.364          31.364 
       0.650464         43.0955         30.7301         30.7301 
       0.656582          42.843         30.1185         30.1185 
       0.662703         42.3204         29.5235         29.5235 
       0.668861         41.2585         28.9414         28.9414 
       0.675024         40.8563         28.3748         28.3748 
       0.681124         40.4803         27.8293         27.8293 
       0.687237         39.6707         27.2972         27.2972 
       0.693381         39.0095         26.7767         26.7767 
       0.699536         38.7715         26.2692         26.2692 
       0.705665         38.0569         25.7772         25.7772 
       0.711789         37.4104         25.2985         25.2985 
       0.717957          36.723         24.8289         24.8289 
        0.72409         36.3895          24.374          24.374 
       0.730186         36.1986         23.9334         23.9334 
       0.736317         35.4876         23.5015         23.5015 
       0.742472         35.0664         23.0788         23.0788 
       0.748622         34.4932         22.6671         22.6671 
        0.75476         33.7118         22.2664         22.2664 
       0.760888         33.6403         21.8761         21.8761 
       0.767043         33.0528         21.4938         21.4938 
       0.773185         32.7377         21.1215         21.1215 
       0.779291         32.3503         20.7603         20.7603 
       0.785407         31.8344         20.4071         20.4071 
       0.791564          31.691           20.06           20.06 
       0.797719         31.0309         19.7212         19.7212 
       0.803834         30.8673         19.3926         19.3926 
       0.809972         30.3251         19.0703         19.0703 
       0.816124         30.0036         18.7548         18.7548 
       0.822261         29.6721         18.4474         18.4474 
       0.828378         29.3973         18.1478         18.1478 
       0.834502         29.0825         17.8548         17.8548 
       0.840667         28.7877         17.5664         17.5664 
       0.846816         28.1804         17.2853         17.2853 
       0.852925         28.1102         17.0121         17.0121 
       0.859047         27.7961         16.7444         16.7444 
       0.865192         27.3918         16.4817         16.4817 
       0.871341          27.068         16.2244         16.2244 
       0.877463         26.7963         15.9739         15.9739 
       0.883569         26.6518         15.7294         15.7294 
       0.889708         26.2435         15.4888         15.4888 
       0.895864         25.9232         15.2527         15.2527 
       0.902008         25.6121         15.0221         15.0221 
       0.908149         25.3473         14.7965         14.7965 
       0.914301         25.2112         14.5751         14.5751 
       0.920448         24.8452         14.3586         14.3586 
       0.926574         24.5969         14.1473         14.1473 
       0.932687         24.3274         13.9407         13.9407 
       0.938823          24.027         13.7376         13.7376 
       0.944975         23.8328         13.5381         13.5381 
       0.951105         23.5973         13.3433         13.3433 
       0.957225         23.4586         13.1527         13.1527 
       0.963368         23.0889         12.9653         12.9653 
       0.969511         22.8904         12.7816         12.7816 
       0.975621         22.6835         12.6024         12.6024 
       0.981748         22.4068         12.4262         12.4262 
       0.987916         22.2708         12.2524         12.2524 
        0.99406         22.0052         12.0826         12.0826 
        1.00019         21.8461         11.9163         11.9163 
        1.00632         21.6488         11.7534         11.7534 
        1.01246         21.4722         11.5933         11.5933 
        1.01859         21.1995         11.4365         11.4365 
        1.02471         20.9946         11.2828         11.2828 
        1.03085         20.9108         11.1314         11.1314 
        1.03698         20.7134         10.9832         10.9832 
        1.04314         20.4638          10.837          10.837 
        1.04929         20.2262         10.6939         10.6939 
        1.05541          20.146          10.554          10.554 
        1.06154         19.9941         10.4163         10.4163 
        1.06769         19.7689         10.2808         10.2808 
        1.07382         19.5292         10.1483         10.1483 
        1.07993         19.3714         10.0183         10.0183 
        1.08607         19.2744         9.89017         9.89017 
        1.09222         19.0526         9.76414         9.76414 
        1.09836         18.9368         9.64048         9.64048 
        1.10449         18.7493         9.51913         9.51913 
        1.11063         18.6417         9.39975         9.39975 
        1.11677         18.5338         9.28249         9.28249 
         1.1229         18.3406         9.16745         9.16745 
        1.12903         18.1976         9.05428         9.05428 
        1.13518         18.0064         8.94295         8.94295 
        1.14131         17.9055         8.83357         8.83357 
        1.14745         17.6546          8.7261          8.7261 
        1.15359         17.5134         8.62042         8.62042 
        1.15973         17.3825         8.51647         8.51647 
        1.16584         17.2473         8.41471         8.41471 
        1.17197         17.0838         8.31449         8.31449 
        1.17811          16.971         8.21561         8.21561 
        1.18424         16.8481         8.11864         8.11864 
        1.19038         16.7568         8.02297         8.02297 
        1.19652         16.5855         7.92889         7.92889 
        1.20267         16.4889         7.83634         7.83634 
        1.20881         16.3085          7.7453          7.7453 
        1.21495         16.2016         7.65587         7.65587 
        1.22108         16.1525         7.56788         7.56788 
         1.2272         16.0077         7.48149         7.48149 
        1.23334         15.9024         7.39626         7.39626 
        1.23949         15.7627         7.31218         7.31218 
        1.24562         15.6118         7.22964         7.22964 
        1.25174          15.543         7.14852         7.14852 
        1.25789         15.3953          7.0684          7.0684 
        1.26402         15.3302         6.98967         6.98967 
        1.27014         15.2417         6.91234         6.91234 
        1.27628         15.0498         6.83596         6.83596 
        1.28244         15.0426         6.76059         6.76059 
        1.28858           14.88         6.68647         6.68647 
        1.29471         14.6987         6.61363         6.61363 
        1.30084         14.6175         6.54195         6.54195 
        1.30697         14.5965         6.47124         6.47124 
        1.31312         14.4407         6.40148         6.40148 
        1.31925         14.3654         6.33297         6.33297 
        1.32537         14.2537         6.26555         6.26555 
        1.33151         14.1574         6.19887         6.19887 
        1.33765         14.0687         6.13321         6.13321 
        1.34378         14.0178         6.06864         6.06864 
        1.34992           13.88         6.00497         6.00497 
        1.35606         13.7597         5.94208         5.94208 
         1.3622         13.6577         5.88021         5.88021 
        1.36833         13.6236         5.81937         5.81937 
        1.37445         13.5411         5.75944         5.75944 
        1.38059         13.4485         5.70017         5.70017 
        1.38675         13.3501         5.64161         5.64161 
        1.39288         13.2216          5.5841          5.5841 
        1.39901         13.1675         5.52743         5.52743 
        1.40515          13.069         5.47143         5.47143 
         1.4113         12.9807         5.41623         5.41623 
        1.41742         12.9291         5.36201         5.36201 
        1.42355          12.801         5.30844         5.30844 
         1.4297         12.7484         5.25544         5.25544 
        1.43585         12.6785         5.20319         5.20319 
        1.44198         12.6107         5.15186         5.15186 
        1.44809         12.5204         5.10133         5.10133 
        1.45423         12.4253         5.05129         5.05129 
        1.46036         12.3612         5.00202         5.00202 
        1.46649         12.2797          4.9534          4.9534 
        1.47263         12.2243         4.90539         4.90539 
        1.47877         12.1409         4.85804         4.85804 
        1.48491         12.0742         4.81125         4.81125 
        1.49104           11.98         4.76518         4.76518 
        1.49718         11.9369         4.71968         4.71968 
        1.50333         11.8596         4.67471         4.67471 
        1.50947          11.783         4.63042         4.63042 
         1.5156         11.7402         4.58677         4.58677 
        1.52172          11.651          4.5437          4.5437 
        1.52787         11.5919         4.50109         4.50109 
          1.534         11.5309         4.45908         4.45908 
        1.54013          11.471         4.41766         4.41766 
        1.54627         11.3871         4.37669         4.37669 
        1.55241         11.2967         4.33624         4.33624 
        1.55855         11.2754         4.29636         4.29636 
        1.56467         11.2024         4.25709         4.25709 
         1.5708         11.1528         4.21821         4.21821 
        1.57695         11.0674         4.17976         4.17976 
        1.58308         10.9865         4.14188         4.14188 
        1.58922         10.9545         4.10445         4.10445 
        1.59535          10.882         4.06749         4.06749 
         1.6015         10.7828         4.03095         4.03095 
        1.60764         10.7507         3.99487         3.99487 
        1.61376         10.7137         3.95934         3.95934 
        1.61989         10.6195         3.92421         3.92421 
        1.62604         10.5969         3.88944         3.88944 
        1.63218         10.5452         3.85511         3.85511 
        1.63831         10.4633         3.82128         3.82128 
        1.64444         10.3904         3.78784         3.78784 
        1.65059         10.3323         3.75473         3.75473 
        1.65673         10.3099         3.72206         3.72206 
        1.66285         10.2409         3.68986         3.68986 
        1.66898         10.2025         3.65804         3.65804 
        1.67512         10.1418         3.62654         3.62654 
        1.68127         10.0541         3.59538         3.59538 
         1.6874         10.0359         3.56465         3.56465 
        1.69353         9.96034         3.53431         3.53431 
        1.69967          9.9206         3.50425         3.50425 
        1.70581         9.86229         3.47456         3.47456 
        1.71193         9.83504         3.44532         3.44532 
        1.71806         9.77897         3.41637         3.41637 
        1.72421         9.70799         3.38769         3.38769 
        1.73035         9.66814         3.35937         3.35937 
        1.73649         9.63551         3.33138         3.33138 
        1.74262         9.53435         3.30374         3.30374 
        1.74876         9.54303          3.2764          3.2764 
        1.75489         9.48119         3.24943         3.24943 
        1.76101          9.4104         3.22276         3.22276 
        1.76715         9.39198         3.19637         3.19637 
        1.77329         9.34219         3.17024         3.17024 
        1.77943         9.26579         3.14439         3.14439 
        1.78557         9.26516         3.11887         3.11887 
        1.79171         9.20579         3.09363         3.09363 
        1.79785         9.17529         3.06867         3.06867 
        1.80399         9.09085         3.04399         3.04399 
        1.81012         9.07045         3.01962         3.01962 
        1.81625         9.00306         2.99553         2.99553 
        1.82239         8.96626         2.97166         2.97166 
        1.82853         8.91445         2.94807         2.94807 
        1.83466         8.85515         2.92476         2.92476 
        1.84078         8.84156         2.90173         2.90173 
        1.84692         8.80265         2.87891         2.87891 
        1.85306         8.76028         2.85631         2.85631 
         1.8592         8.73108         2.83398         2.83398 
        1.86533         8.68095         2.81192         2.81192 
        1.87147          8.6295         2.79006         2.79006 
