# k  (h/Mpc)    Pcb(k)  (Mpc/h)^3    Pcb_linear(k) (Mpc/h)^3    Pcb_NL(k) (Mpc/h)^3   ShotnoiseSubtracted = false
     0.00783031          4766.1         4794.16         4794.16 
       0.013688         5960.77         6062.35         6062.35 
       0.019231          6195.7         6249.07         6249.07 
      0.0249154         5894.17         5885.72         5885.72 
      0.0312784         5191.54         5214.64         5214.64 
      0.0375637          4509.7         4550.15         4550.15 
      0.0433917         4043.35         4047.95         4047.95 
      0.0492413         3648.39         3673.64         3673.64 
      0.0555754         3376.17         3380.23         3380.23 
      0.0619321         3078.65         3143.89         3143.89 
       0.067871         2898.29         2928.48         2928.48 
      0.0738098         2678.34         2694.82         2694.82 
      0.0800417         2426.34         2431.45         2431.45 
      0.0862327         2161.25         2171.53         2171.53 
      0.0921407         1942.65            1948            1948 
      0.0982031         1770.75         1759.56         1759.56 
       0.104506         1604.55         1611.92         1611.92 
       0.110769         1502.75         1506.13         1506.13 
       0.116806         1443.24         1428.36         1428.36 
       0.122832         1358.42         1359.12         1359.12 
       0.129052         1289.26         1284.32         1284.32 
       0.135211         1221.91         1201.64         1201.64 
       0.141259         1126.25         1114.12         1114.12 
       0.147318         1030.94          1026.6          1026.6 
       0.153489         960.825         945.051         945.051 
       0.159709         906.288         875.972         875.972 
       0.165845         834.877         822.195         822.195 
       0.171974         814.002         780.682         780.682 
       0.178125         781.619         746.969         746.969 
       0.184229         735.229         716.593         716.593 
        0.19034         714.813         685.486         685.486 
       0.196428         685.064         652.017         652.017 
       0.202534         637.541         616.285         616.285 
       0.208729         616.728         579.682         579.682 
       0.214876         588.438          545.35          545.35 
       0.220989         547.654         514.995         514.995 
       0.227147         534.367         489.037         489.037 
        0.23329          514.44          467.45          467.45 
       0.239377         501.896         449.187         449.187 
       0.245482         478.159         432.561         432.561 
       0.251667         458.833         416.162         416.162 
       0.257832         451.946         399.471         399.471 
       0.263955         426.566         382.416         382.416 
       0.270079         410.306         365.272         365.272 
        0.27624         391.588         348.576         348.576 
       0.282372         380.293         333.121         333.121 
        0.28843           376.3         319.342         319.342 
       0.294538         358.377         306.989         306.989 
       0.300721         345.023         295.826         295.826 
        0.30691         339.499         285.579         285.579 
       0.313033         325.449         275.947         275.947 
       0.319153         319.592         266.506         266.506 
       0.325316         309.666          257.06          257.06 
        0.33145         301.057         247.742         247.742 
       0.337538          290.84         238.726         238.726 
       0.343633         281.526         230.101         230.101 
       0.349808         273.531          221.91          221.91 
       0.355968         267.037         214.347         214.347 
       0.362074         260.747         207.409         207.409 
       0.368217         256.118           200.9           200.9 
       0.374374         250.335         194.716         194.716 
       0.380519         240.067         188.775         188.775 
       0.386598         235.532         183.055         183.055 
       0.392688         229.409         177.452         177.452 
        0.39888         224.554         171.911         171.911 
       0.405048         219.856         166.584         166.584 
       0.411186         216.711         161.514         161.514 
       0.417313         211.663         156.712         156.712 
       0.423458         206.251         152.154         152.154 
       0.429607          202.03         147.829         147.829 
       0.435692         198.344         143.753         143.753 
       0.441815         193.594         139.816         139.816 
       0.447964         187.937         135.994         135.994 
       0.454126         184.681         132.284         132.284 
       0.460267         182.931         128.699         128.699 
       0.466387         178.975         125.239         125.239 
        0.47254         176.822         121.883         121.883 
       0.478662         171.019         118.674         118.674 
       0.484765         168.761         115.606         115.606 
       0.490885         165.615         112.655         112.655 
       0.497035         164.119         109.807         109.807 
       0.503198         160.838         107.062         107.062 
       0.509342         156.694         104.422         104.422 
       0.515458         154.891         101.878         101.878 
       0.521598         151.159          99.401          99.401 
       0.527764         149.603         96.9918         96.9918 
       0.533884         148.713         94.6777         94.6777 
           0.54         144.772         92.4419         92.4419 
       0.546137         141.423         90.2732         90.2732 
       0.552299         139.769         88.1694         88.1694 
       0.558452         137.207          86.141          86.141 
       0.564573         136.583          84.191          84.191 
       0.570708         132.857         82.3001         82.3001 
       0.576825          131.37         80.4735         80.4735 
       0.582926         129.962         78.7064         78.7064 
       0.589034         127.864         76.9886         76.9886 
       0.595184         126.445         75.3102         75.3102 
       0.601379         123.394         73.6707         73.6707 
       0.607522         121.552         72.0942         72.0942 
       0.613639         120.489         70.5719         70.5719 
       0.619772         118.615         69.0914         69.0914 
       0.625918         117.495         67.6515         67.6515 
       0.632068         115.315         66.2529         66.2529 
       0.638161         113.508          64.907          64.907 
         0.6443          112.95         63.5894         63.5894 
       0.650464         110.668         62.3041         62.3041 
       0.656582         110.224          61.064          61.064 
       0.662703         108.788         59.8578         59.8578 
       0.668861         106.479         58.6777         58.6777 
       0.675024          106.37         57.5288         57.5288 
       0.681124          104.65         56.4228         56.4228 
       0.687237         102.697          55.344          55.344 
       0.693381         102.188         54.2888         54.2888 
       0.699536         100.889         53.2598         53.2598 
       0.705665         99.3573         52.2623         52.2623 
       0.711789         98.0369         51.2917         51.2917 
       0.717957         96.9196         50.3396         50.3396 
        0.72409          96.164         49.4173         49.4173 
       0.730186          95.522         48.5241         48.5241 
       0.736317         93.8202         47.6484         47.6484 
       0.742472         92.7525         46.7914         46.7914 
       0.748622         91.3364         45.9566         45.9566 
        0.75476         90.7263         45.1442         45.1442 
       0.760888         90.3131          44.353          44.353 
       0.767043         88.5971         43.5778         43.5778 
       0.773185         87.5932          42.823          42.823 
       0.779291         86.6214         42.0906         42.0906 
       0.785407         85.4788         41.3746         41.3746 
       0.791564         85.4182         40.6708         40.6708 
       0.797719         84.3094         39.9841         39.9841 
       0.803834         83.5215         39.3177         39.3177 
       0.809972         82.8629         38.6644         38.6644 
       0.816124         81.9014         38.0247         38.0247 
       0.822261         80.8157         37.4013         37.4013 
       0.828378          80.581          36.794          36.794 
       0.834502         79.3735         36.1999         36.1999 
       0.840667         78.9047         35.6152         35.6152 
       0.846816         78.0158         35.0452         35.0452 
       0.852925         77.3172         34.4915         34.4915 
       0.859047         76.9793         33.9487         33.9487 
       0.865192         75.7457         33.4159         33.4159 
       0.871341         74.9653         32.8944         32.8944 
       0.877463         74.4999         32.3865         32.3865 
       0.883569         74.2455         31.8908         31.8908 
       0.889708         73.4954          31.403          31.403 
       0.895864         72.8238         30.9243         30.9243 
       0.902008         72.0944         30.4568         30.4568 
       0.908149         71.3696         29.9993         29.9993 
       0.914301         70.9941         29.5505         29.5505 
       0.920448         70.6311         29.1115         29.1115 
       0.926574         69.2605         28.6831         28.6831 
       0.932687         68.9845         28.2643         28.2643 
       0.938823         68.3739         27.8524         27.8524 
       0.944975         67.6122         27.4479         27.4479 
       0.951105          67.106          27.053          27.053 
       0.957225         66.9281         26.6667         26.6667 
       0.963368         66.1972         26.2866         26.2866 
       0.969511         65.6212         25.9141         25.9141 
       0.975621         65.1658         25.5509         25.5509 
       0.981748         64.4738         25.1937         25.1937 
       0.987916           64.02         24.8412         24.8412 
        0.99406         63.6124         24.4969         24.4969 
        1.00019         62.9733         24.1599         24.1599 
        1.00632         62.5348         23.8295         23.8295 
        1.01246         62.0749         23.5049         23.5049 
        1.01859         61.7361          23.187          23.187 
        1.02471          61.008         22.8754         22.8754 
        1.03085          60.689         22.5685         22.5685 
        1.03698         60.2736          22.268          22.268 
        1.04314           59.86         21.9717         21.9717 
        1.04929           59.27         21.6816         21.6816 
        1.05541          58.971         21.3979         21.3979 
        1.06154         58.6518         21.1186         21.1186 
        1.06769         57.8422          20.844          20.844 
        1.07382         57.5992         20.5752         20.5752 
        1.07993         57.2579         20.3118         20.3118 
        1.08607          56.807         20.0519         20.0519 
        1.09222         56.5464         19.7964         19.7964 
        1.09836         56.0338         19.5457         19.5457 
        1.10449         55.7448         19.2997         19.2997 
        1.11063         55.2111         19.0576         19.0576 
        1.11677         55.1221         18.8199         18.8199 
         1.1229         54.5188         18.5866         18.5866 
        1.12903         54.3274         18.3572         18.3572 
        1.13518         54.1672         18.1315         18.1315 
        1.14131         53.5428         17.9097         17.9097 
        1.14745         53.0471         17.6918         17.6918 
        1.15359         52.5653         17.4776         17.4776 
        1.15973         52.4896         17.2668         17.2668 
        1.16584         52.1028         17.0605         17.0605 
        1.17197         51.4898         16.8573         16.8573 
        1.17811          51.309         16.6568         16.6568 
        1.18424         50.6663         16.4602         16.4602 
        1.19038         50.5702         16.2663         16.2663 
        1.19652         50.3319         16.0755         16.0755 
        1.20267         49.9924         15.8879         15.8879 
        1.20881         49.6316         15.7033         15.7033 
        1.21495          49.421          15.522          15.522 
        1.22108         49.2246         15.3436         15.3436 
         1.2272         48.7982         15.1684         15.1684 
        1.23334         48.4885         14.9956         14.9956 
        1.23949         48.1905         14.8251         14.8251 
        1.24562         47.8026         14.6578         14.6578 
        1.25174         47.5099         14.4933         14.4933 
        1.25789         47.5095         14.3309         14.3309 
        1.26402         47.0911         14.1713         14.1713 
        1.27014         46.8228         14.0145         14.0145 
        1.27628         46.3624         13.8596         13.8596 
        1.28244         46.2856         13.7068         13.7068 
        1.28858         45.9149         13.5566         13.5566 
        1.29471         45.6824         13.4089         13.4089 
        1.30084         45.2848         13.2636         13.2636 
        1.30697         45.1974         13.1202         13.1202 
        1.31312         44.7889         12.9787         12.9787 
        1.31925         44.4487         12.8399         12.8399 
        1.32537         44.2543         12.7032         12.7032 
        1.33151         43.9717          12.568          12.568 
        1.33765         43.7948         12.4348         12.4348 
        1.34378         43.6369         12.3039         12.3039 
        1.34992         43.2754         12.1748         12.1748 
        1.35606         43.0265         12.0473         12.0473 
         1.3622         42.7406         11.9219         11.9219 
        1.36833         42.5491         11.7985         11.7985 
        1.37445         42.2167          11.677          11.677 
        1.38059         42.0798         11.5569         11.5569 
        1.38675         41.6585         11.4381         11.4381 
        1.39288         41.6142         11.3215         11.3215 
        1.39901          41.305         11.2067         11.2067 
        1.40515         41.1082         11.0931         11.0931 
         1.4113          41.085         10.9812         10.9812 
        1.41742         40.7888         10.8713         10.8713 
        1.42355         40.3952         10.7626         10.7626 
         1.4297         40.1964         10.6552         10.6552 
        1.43585         39.9234         10.5493         10.5493 
        1.44198         39.7488         10.4452         10.4452 
        1.44809          39.515         10.3427         10.3427 
        1.45423         39.3871         10.2413         10.2413 
        1.46036          39.168         10.1414         10.1414 
        1.46649         38.9758         10.0428         10.0428 
        1.47263         38.6923         9.94548         9.94548 
        1.47877         38.5415         9.84948         9.84948 
        1.48491         38.4014         9.75461         9.75461 
        1.49104         38.0731         9.66121         9.66121 
        1.49718         37.9595         9.56896         9.56896 
        1.50333         37.8428         9.47778         9.47778 
        1.50947         37.5229         9.38799         9.38799 
         1.5156         37.3634          9.2995          9.2995 
        1.52172          37.087         9.21216         9.21216 
        1.52787         36.9458         9.12578         9.12578 
          1.534         36.7497         9.04061         9.04061 
        1.54013         36.6565         8.95663         8.95663 
        1.54627         36.3079         8.87357         8.87357 
        1.55241         36.1648         8.79156         8.79156 
        1.55855         36.0632          8.7107          8.7107 
        1.56467         35.8975         8.63109         8.63109 
         1.5708          35.687         8.55226         8.55226 
        1.57695         35.5099          8.4743          8.4743 
        1.58308         35.2044          8.3975          8.3975 
        1.58922         35.0317          8.3216          8.3216 
        1.59535         34.9348         8.24668         8.24668 
         1.6015         34.8186         8.17259         8.17259 
        1.60764         34.6224         8.09944         8.09944 
        1.61376         34.3868          8.0274          8.0274 
        1.61989         34.1735         7.95619         7.95619 
        1.62604          34.042         7.88568         7.88568 
        1.63218         33.8838         7.81608         7.81608 
        1.63831         33.7586         7.74749         7.74749 
        1.64444         33.5581          7.6797          7.6797 
        1.65059         33.3873         7.61257         7.61257 
        1.65673         33.2391         7.54632         7.54632 
        1.66285         33.1418         7.48105         7.48105 
        1.66898          32.867         7.41653         7.41653 
        1.67512         32.8136         7.35266         7.35266 
        1.68127         32.6243         7.28948         7.28948 
         1.6874         32.4498         7.22719         7.22719 
        1.69353         32.3496         7.16568         7.16568 
        1.69967         32.1826         7.10473         7.10473 
        1.70581         31.8971         7.04453         7.04453 
        1.71193         31.7543         6.98526         6.98526 
        1.71806         31.7004         6.92655         6.92655 
        1.72421         31.5611          6.8684          6.8684 
        1.73035         31.3601         6.81099         6.81099 
        1.73649          31.162         6.75425         6.75425 
        1.74262         30.9794         6.69821         6.69821 
        1.74876         30.8773         6.64277         6.64277 
        1.75489         30.7393         6.58808         6.58808 
        1.76101         30.6354         6.53403         6.53403 
        1.76715          30.513         6.48051         6.48051 
        1.77329         30.2754         6.42753         6.42753 
        1.77943         30.2365         6.37513         6.37513 
        1.78557         30.0674         6.32339         6.32339 
        1.79171         29.9282         6.27222         6.27222 
        1.79785         29.7767         6.22161         6.22161 
        1.80399         29.6456         6.17157         6.17157 
        1.81012         29.5425         6.12216         6.12216 
        1.81625         29.3077         6.07331         6.07331 
        1.82239         29.2156         6.02493         6.02493 
        1.82853         29.0792          5.9771          5.9771 
        1.83466          28.927         5.92984         5.92984 
        1.84078         28.7908         5.88314         5.88314 
        1.84692         28.7028         5.83687         5.83687 
        1.85306         28.5011         5.79105         5.79105 
         1.8592         28.4434         5.74579         5.74579 
        1.86533         28.2477         5.70105         5.70105 
        1.87147          28.117         5.65673         5.65673 
