# k  (h/Mpc)    Pcb(k)  (Mpc/h)^3    Pcb_linear(k) (Mpc/h)^3    Pcb_NL(k) (Mpc/h)^3   ShotnoiseSubtracted = false
     0.00783031          6366.8         6402.41         6402.41 
       0.013688         7944.73         8095.87         8095.87 
       0.019231          8262.1         8345.04         8345.04 
      0.0249154         7870.68         7859.71         7859.71 
      0.0312784         6922.27         6963.48         6963.48 
      0.0375637         6007.79         6076.09         6076.09 
      0.0433917         5391.13         5405.45         5405.45 
      0.0492413         4860.61          4905.6          4905.6 
      0.0555754         4499.25         4513.78         4513.78 
      0.0619321          4091.6         4198.18         4198.18 
       0.067871         3855.96         3910.51         3910.51 
      0.0738098         3566.87          3598.5          3598.5 
      0.0800417         3231.74         3246.81         3246.81 
      0.0862327         2878.76         2899.72         2899.72 
      0.0921407         2590.25         2601.24         2601.24 
      0.0982031          2364.5          2349.6          2349.6 
       0.104506         2140.75         2152.45         2152.45 
       0.110769         2005.69         2011.18         2011.18 
       0.116806         1928.67         1907.33         1907.33 
       0.122832         1814.01         1814.88         1814.88 
       0.129052          1720.6            1715            1715 
       0.135211         1635.62         1604.59         1604.59 
       0.141259         1506.76         1487.72         1487.72 
       0.147318         1379.68         1370.85         1370.85 
       0.153489         1288.57         1261.96         1261.96 
       0.159709         1220.36         1169.71         1169.71 
       0.165845         1122.45          1097.9          1097.9 
       0.171974         1096.97         1042.47         1042.47 
       0.178125         1055.59         997.451         997.451 
       0.184229          988.69         956.889         956.889 
        0.19034         963.684         915.351         915.351 
       0.196428         926.031         870.658         870.658 
       0.202534         861.617         822.944         822.944 
       0.208729         836.844         774.067         774.067 
       0.214876         798.866         728.223         728.223 
       0.220989         745.364         687.688         687.688 
       0.227147         728.112         653.026         653.026 
        0.23329          701.36           624.2           624.2 
       0.239377         687.292         599.813         599.813 
       0.245482          654.15         577.612         577.612 
       0.251667         628.444         555.714         555.714 
       0.257832         620.109         533.426         533.426 
       0.263955         585.658         510.651         510.651 
       0.270079         564.428         487.759         487.759 
        0.27624           539.3         465.463         465.463 
       0.282372         525.834         444.826         444.826 
        0.28843         521.088         426.428         426.428 
       0.294538         495.434         409.932         409.932 
       0.300721         478.926         395.025         395.025 
        0.30691         471.372         381.342         381.342 
       0.313033          451.53          368.48          368.48 
       0.319153         443.618         355.873         355.873 
       0.325316         432.683         343.259         343.259 
        0.33145         421.904         330.817         330.817 
       0.337538         407.091         318.778         318.778 
       0.343633         394.284         307.261         307.261 
       0.349808         383.957         296.323         296.323 
       0.355968          375.84         286.224         286.224 
       0.362074         365.638         276.959         276.959 
       0.368217         361.074         268.267         268.267 
       0.374374         353.273          260.01          260.01 
       0.380519         339.166         252.077         252.077 
       0.386598         333.924         244.439         244.439 
       0.392688         325.961         236.957         236.957 
        0.39888         318.166         229.557         229.557 
       0.405048         312.145         222.445         222.445 
       0.411186         309.244         215.674         215.674 
       0.417313         303.129         209.262         209.262 
       0.423458          295.04         203.176         203.176 
       0.429607         288.334           197.4           197.4 
       0.435692         283.063         191.957         191.957 
       0.441815         277.841           186.7           186.7 
       0.447964         270.191         181.597         181.597 
       0.454126         266.124         176.642         176.642 
       0.460267         262.888         171.856         171.856 
       0.466387         257.785         167.236         167.236 
        0.47254         254.525         162.753         162.753 
       0.478662         247.029         158.468         158.468 
       0.484765          244.12         154.373         154.373 
       0.490885         240.701         150.432         150.432 
       0.497035         237.619         146.629         146.629 
       0.503198         234.564         142.963         142.963 
       0.509342         228.369         139.437         139.437 
       0.515458         225.715          136.04          136.04 
       0.521598         220.575         132.733         132.733 
       0.527764          218.23         129.516         129.516 
       0.533884         217.501         126.426         126.426 
           0.54         212.327          123.44          123.44 
       0.546137         207.582         120.544         120.544 
       0.552299         205.981         117.735         117.735 
       0.558452         202.338         115.027         115.027 
       0.564573          201.09         112.423         112.423 
       0.570708         196.511         109.898         109.898 
       0.576825         193.879         107.459         107.459 
       0.582926         191.851         105.099         105.099 
       0.589034         189.135         102.805         102.805 
       0.595184         187.546         100.564         100.564 
       0.601379         183.515         98.3747         98.3747 
       0.607522         180.458         96.2695         96.2695 
       0.613639         179.039         94.2367         94.2367 
       0.619772          177.04         92.2597         92.2597 
       0.625918         175.535          90.337          90.337 
       0.632068         171.712         88.4694         88.4694 
       0.638161         169.748         86.6722         86.6722 
         0.6443         169.013         84.9127         84.9127 
       0.650464         165.767         83.1965         83.1965 
       0.656582         164.929         81.5406         81.5406 
       0.662703         163.122         79.9298         79.9298 
       0.668861          159.88          78.354          78.354 
       0.675024         159.857         76.8199         76.8199 
       0.681124         157.319          75.343          75.343 
       0.687237         155.039         73.9024         73.9024 
       0.693381         154.031         72.4934         72.4934 
       0.699536         152.069         71.1193         71.1193 
       0.705665         150.111         69.7874         69.7874 
       0.711789         148.273         68.4913         68.4913 
       0.717957         146.734         67.2199         67.2199 
        0.72409         145.595         65.9884         65.9884 
       0.730186         145.108         64.7956         64.7956 
       0.736317         142.643         63.6263         63.6263 
       0.742472         140.795          62.482          62.482 
       0.748622         138.653         61.3672         61.3672 
        0.75476         138.835         60.2824         60.2824 
       0.760888         137.557         59.2258         59.2258 
       0.767043         135.174         58.1907         58.1907 
       0.773185         133.679         57.1828         57.1828 
       0.779291         132.196         56.2048         56.2048 
       0.785407          130.92         55.2486         55.2486 
       0.791564         130.306          54.309          54.309 
       0.797719         128.695         53.3919         53.3919 
       0.803834          128.14         52.5021         52.5021 
       0.809972         127.275         51.6297         51.6297 
       0.816124         125.554         50.7754         50.7754 
       0.822261         124.177         49.9431         49.9431 
       0.828378         123.942         49.1322         49.1322 
       0.834502         121.941         48.3388         48.3388 
       0.840667         121.402          47.558          47.558 
       0.846816         120.292         46.7969         46.7969 
       0.852925         119.018         46.0575         46.0575 
       0.859047         118.208         45.3326         45.3326 
       0.865192         116.997         44.6213         44.6213 
       0.871341          115.77         43.9248         43.9248 
       0.877463         115.029         43.2467         43.2467 
       0.883569         114.773         42.5847         42.5847 
       0.889708         113.735         41.9334         41.9334 
       0.895864         112.654         41.2942         41.2942 
       0.902008         111.588         40.6698         40.6698 
       0.908149         110.204         40.0589         40.0589 
       0.914301         110.164         39.4597         39.4597 
       0.920448         109.601         38.8735         38.8735 
       0.926574         107.537         38.3013         38.3013 
       0.932687         107.359         37.7421         37.7421 
       0.938823         106.467         37.1921         37.1921 
       0.944975         105.263          36.652          36.652 
       0.951105         104.471         36.1247         36.1247 
       0.957225         104.397         35.6088         35.6088 
       0.963368         103.124         35.1013         35.1013 
       0.969511         102.306         34.6038         34.6038 
       0.975621         101.501         34.1188         34.1188 
       0.981748         100.611         33.6419         33.6419 
       0.987916         99.9711         33.1712         33.1712 
        0.99406         99.5675         32.7114         32.7114 
        1.00019         98.3836         32.2613         32.2613 
        1.00632         97.8024         31.8202         31.8202 
        1.01246          97.117         31.3868         31.3868 
        1.01859         96.6657         30.9623         30.9623 
        1.02471         95.7764         30.5462         30.5462 
        1.03085         94.9469         30.1364         30.1364 
        1.03698         94.3696         29.7351         29.7351 
        1.04314         93.6796         29.3394         29.3394 
        1.04929         93.2429          28.952          28.952 
        1.05541         92.5776         28.5732         28.5732 
        1.06154         92.0074         28.2003         28.2003 
        1.06769         91.1213         27.8336         27.8336 
        1.07382         90.3895         27.4746         27.4746 
        1.07993          90.104         27.1229         27.1229 
        1.08607         89.3463         26.7759         26.7759 
        1.09222         89.0498         26.4347         26.4347 
        1.09836         88.0911         26.0999         26.0999 
        1.10449         87.6508         25.7714         25.7714 
        1.11063         86.9491         25.4482         25.4482 
        1.11677          86.502         25.1307         25.1307 
         1.1229         85.7874         24.8193         24.8193 
        1.12903          85.522         24.5129         24.5129 
        1.13518         85.1194         24.2115         24.2115 
        1.14131         84.3775         23.9154         23.9154 
        1.14745         83.7439         23.6244         23.6244 
        1.15359         82.8359         23.3383         23.3383 
        1.15973         82.7722         23.0569         23.0569 
        1.16584         82.1676         22.7814         22.7814 
        1.17197         81.5249           22.51           22.51 
        1.17811         81.0174         22.2423         22.2423 
        1.18424         80.2628         21.9798         21.9798 
        1.19038          80.211         21.7208         21.7208 
        1.19652         79.6874         21.4661         21.4661 
        1.20267         79.0207         21.2155         21.2155 
        1.20881          78.537         20.9691         20.9691 
        1.21495         78.1553         20.7269         20.7269 
        1.22108         77.7887         20.4887         20.4887 
         1.2272         77.0344         20.2548         20.2548 
        1.23334          76.766         20.0241         20.0241 
        1.23949         76.2744         19.7964         19.7964 
        1.24562         75.6681          19.573          19.573 
        1.25174         75.2056         19.3534         19.3534 
        1.25789         75.2328         19.1365         19.1365 
        1.26402         74.5239         18.9233         18.9233 
        1.27014         74.1791          18.714          18.714 
        1.27628          73.471         18.5072         18.5072 
        1.28244         73.2982         18.3031         18.3031 
        1.28858          72.809         18.1025         18.1025 
        1.29471         72.3945         17.9053         17.9053 
        1.30084         71.7324         17.7112         17.7112 
        1.30697         71.7688         17.5198         17.5198 
        1.31312         71.1215         17.3309         17.3309 
        1.31925         70.6329         17.1454         17.1454 
        1.32537          70.255         16.9629         16.9629 
        1.33151         69.9936         16.7824         16.7824 
        1.33765         69.4893         16.6046         16.6046 
        1.34378         69.2578         16.4298         16.4298 
        1.34992          68.819         16.2574         16.2574 
        1.35606         68.3148         16.0871         16.0871 
         1.3622         68.0172         15.9196         15.9196 
        1.36833         67.5477         15.7549         15.7549 
        1.37445         67.0044         15.5927         15.5927 
        1.38059         66.8972         15.4322         15.4322 
        1.38675          66.164         15.2737         15.2737 
        1.39288         66.1829          15.118          15.118 
        1.39901         65.5436         14.9646         14.9646 
        1.40515          65.326          14.813          14.813 
         1.4113         65.1156         14.6635         14.6635 
        1.41742         64.6768         14.5167         14.5167 
        1.42355          64.253         14.3717         14.3717 
         1.4297         63.9214         14.2282         14.2282 
        1.43585         63.4607         14.0867         14.0867 
        1.44198          63.117         13.9478         13.9478 
        1.44809         62.7401          13.811          13.811 
        1.45423         62.4628         13.6755         13.6755 
        1.46036         62.0667         13.5421         13.5421 
        1.46649         61.9274         13.4105         13.4105 
        1.47263         61.5239         13.2805         13.2805 
        1.47877          61.254         13.1523         13.1523 
        1.48491         60.9344         13.0256         13.0256 
        1.49104          60.398         12.9009         12.9009 
        1.49718         60.1742         12.7777         12.7777 
        1.50333         59.9258          12.656          12.656 
        1.50947         59.5763         12.5361         12.5361 
         1.5156         59.3208         12.4179         12.4179 
        1.52172          58.888         12.3013         12.3013 
        1.52787         58.5315         12.1859         12.1859 
          1.534         58.3238         12.0722         12.0722 
        1.54013         58.1186           11.96           11.96 
        1.54627          57.562         11.8491         11.8491 
        1.55241         57.2725         11.7396         11.7396 
        1.55855         57.1526         11.6316         11.6316 
        1.56467         56.6781         11.5253         11.5253 
         1.5708         56.5577         11.4201         11.4201 
        1.57695         56.2062          11.316          11.316 
        1.58308         55.8468         11.2134         11.2134 
        1.58922         55.5793         11.1121         11.1121 
        1.59535         55.3929          11.012          11.012 
         1.6015         55.3064         10.9131         10.9131 
        1.60764         54.8665         10.8154         10.8154 
        1.61376         54.5162         10.7192         10.7192 
        1.61989         54.1569         10.6241         10.6241 
        1.62604         53.9439           10.53           10.53 
        1.63218         53.6682          10.437          10.437 
        1.63831         53.4952         10.3454         10.3454 
        1.64444         53.1664         10.2549         10.2549 
        1.65059         52.9458         10.1653         10.1653 
        1.65673         52.5233         10.0768         10.0768 
        1.66285         52.4293         9.98966         9.98966 
        1.66898         51.9077         9.90351         9.90351 
        1.67512         51.8322         9.81821         9.81821 
        1.68127         51.5495         9.73385         9.73385 
         1.6874         51.2532         9.65068         9.65068 
        1.69353          51.092         9.56853         9.56853 
        1.69967           50.87         9.48716         9.48716 
        1.70581         50.4944         9.40676         9.40676 
        1.71193         50.2521         9.32762         9.32762 
        1.71806         50.0266         9.24921         9.24921 
        1.72421         49.7812         9.17157         9.17157 
        1.73035          49.546         9.09491         9.09491 
        1.73649         49.2009         9.01914         9.01914 
        1.74262         48.8639         8.94431         8.94431 
        1.74876         48.7939         8.87028         8.87028 
        1.75489         48.4386         8.79725         8.79725 
        1.76101         48.2242         8.72507         8.72507 
        1.76715         48.2017         8.65361         8.65361 
        1.77329         47.6625         8.58287         8.58287 
        1.77943         47.6844         8.51289         8.51289 
        1.78557         47.4241          8.4438          8.4438 
        1.79171          47.149         8.37547         8.37547 
        1.79785         46.8904         8.30789         8.30789 
        1.80399         46.6423         8.24108         8.24108 
        1.81012         46.4744         8.17509         8.17509 
        1.81625         46.1321         8.10987         8.10987 
        1.82239         45.9257         8.04526         8.04526 
        1.82853         45.7847         7.98139         7.98139 
        1.83466         45.4999         7.91828         7.91828 
        1.84078         45.2941         7.85592         7.85592 
        1.84692         45.0248         7.79414         7.79414 
        1.85306         44.7954         7.73295         7.73295 
         1.8592          44.678         7.67252         7.67252 
        1.86533         44.4355         7.61277         7.61277 
        1.87147         44.1876         7.55359         7.55359 
