# k  (h/Mpc)    Pcb(k)  (Mpc/h)^3    Pcb_linear(k) (Mpc/h)^3    Pcb_NL(k) (Mpc/h)^3   ShotnoiseSubtracted = false
     0.00783031         12222.6         12282.9         12282.9 
       0.013688         15164.4           15544           15544 
       0.019231         15793.4         16024.7         16024.7 
      0.0249154         15100.9         15093.4         15093.4 
      0.0312784         13221.6         13372.5         13372.5 
      0.0375637           11446         11668.4         11668.4 
      0.0433917         10292.1         10380.6         10380.6 
      0.0492413         9259.38         9420.64         9420.64 
      0.0555754         8570.02         8668.19         8668.19 
      0.0619321         7737.14         8062.11         8062.11 
       0.067871          7306.3         7509.68         7509.68 
      0.0738098         6781.74         6910.49         6910.49 
      0.0800417         6142.99          6235.1          6235.1 
      0.0862327         5476.58         5568.56         5568.56 
      0.0921407         4946.23         4995.35         4995.35 
      0.0982031         4534.36         4512.11         4512.11 
       0.104506         4099.66         4133.51         4133.51 
       0.110769         3844.76         3862.22         3862.22 
       0.116806         3703.12         3662.78         3662.78 
       0.122832         3484.18         3485.25         3485.25 
       0.129052         3292.67         3293.43         3293.43 
       0.135211         3157.76         3081.41         3081.41 
       0.141259         2905.77         2856.97         2856.97 
       0.147318         2671.65         2632.53         2632.53 
       0.153489         2509.51         2423.42         2423.42 
       0.159709         2403.73         2246.28         2246.28 
       0.165845         2207.95         2108.38         2108.38 
       0.171974         2162.19         2001.92         2001.92 
       0.178125         2095.73         1915.47         1915.47 
       0.184229         1942.52         1837.58         1837.58 
        0.19034         1907.57         1757.81         1757.81 
       0.196428         1845.67         1671.98         1671.98 
       0.202534         1725.42         1580.35         1580.35 
       0.208729         1686.13         1486.49         1486.49 
       0.214876          1609.5         1398.45         1398.45 
       0.220989         1522.09         1320.61         1320.61 
       0.227147         1484.96         1254.05         1254.05 
        0.23329         1430.05         1198.69         1198.69 
       0.239377         1418.57         1151.86         1151.86 
       0.245482         1352.21         1109.22         1109.22 
       0.251667         1302.32         1067.17         1067.17 
       0.257832         1283.74         1024.37         1024.37 
       0.263955         1221.96         980.635         980.635 
       0.270079         1186.75         936.673         936.673 
        0.27624         1136.68         893.858         893.858 
       0.282372         1120.24         854.227         854.227 
        0.28843         1104.68         818.895         818.895 
       0.294538         1052.17         787.218         787.218 
       0.300721         1029.54         758.591         758.591 
        0.30691         1008.27         732.315         732.315 
       0.313033         968.031         707.614         707.614 
       0.319153         955.907         683.405         683.405 
       0.325316         943.192         659.182         659.182 
        0.33145         922.912         635.287         635.287 
       0.337538         891.475         612.168         612.168 
       0.343633         868.894         590.053         590.053 
       0.349808         851.404         569.048         569.048 
       0.355968         835.371         549.654         549.654 
       0.362074         808.713         531.861         531.861 
       0.368217         805.979          515.17          515.17 
       0.374374         793.695         499.314         499.314 
       0.380519         764.617         484.078         484.078 
       0.386598         758.746         469.411         469.411 
       0.392688         741.513         455.043         455.043 
        0.39888         723.568         440.832         440.832 
       0.405048         710.633         427.175         427.175 
       0.411186         708.523         414.171         414.171 
       0.417313         703.474         401.858         401.858 
       0.423458         681.911          390.17          390.17 
       0.429607         663.266         379.079         379.079 
       0.435692         656.237         368.627         368.627 
       0.441815         644.868         358.531         358.531 
       0.447964         634.281         348.732         348.732 
       0.454126         626.903         339.217         339.217 
       0.460267         617.436         330.025         330.025 
       0.466387         607.621         321.153         321.153 
        0.47254         597.788         312.545         312.545 
       0.478662         587.981         304.317         304.317 
       0.484765         581.733         296.451         296.451 
       0.490885         575.837         288.884         288.884 
       0.497035          564.47          281.58          281.58 
       0.503198         563.789         274.541         274.541 
       0.509342          552.41         267.769         267.769 
       0.515458         542.021         261.246         261.246 
       0.521598         537.055         254.895         254.895 
       0.527764         526.719         248.717         248.717 
       0.533884         523.275         242.783         242.783 
           0.54         517.475          237.05          237.05 
       0.546137         508.449         231.489         231.489 
       0.552299         506.882         226.094         226.094 
       0.558452         499.452         220.892         220.892 
       0.564573         494.709         215.892         215.892 
       0.570708         489.775         211.043         211.043 
       0.576825         480.099         206.359         206.359 
       0.582926         478.153         201.828         201.828 
       0.589034          470.97         197.423         197.423 
       0.595184         467.192         193.119         193.119 
       0.601379          459.76         188.915         188.915 
       0.607522         451.907         184.872         184.872 
       0.613639         450.574         180.968         180.968 
       0.619772         448.539         177.172         177.172 
       0.625918         440.132          173.48          173.48 
       0.632068         437.304         169.893         169.893 
       0.638161         432.813         166.442         166.442 
         0.6443         428.212         163.063         163.063 
       0.650464         423.351         159.767         159.767 
       0.656582         419.692         156.587         156.587 
       0.662703         416.081         153.494         153.494 
       0.668861         410.258         150.468         150.468 
       0.675024         407.729         147.522         147.522 
       0.681124         401.966         144.686         144.686 
       0.687237         400.176         141.919         141.919 
       0.693381         394.502         139.213         139.213 
       0.699536         392.855         136.575         136.575 
       0.705665         388.139         134.017         134.017 
       0.711789         386.579         131.528         131.528 
       0.717957         381.258         129.086         129.086 
        0.72409         377.267         126.721         126.721 
       0.730186         378.765         124.431         124.431 
       0.736317         371.998         122.185         122.185 
       0.742472         368.509         119.988         119.988 
       0.748622         365.284         117.847         117.847 
        0.75476         363.383         115.764         115.764 
       0.760888         359.921         113.735         113.735 
       0.767043          356.83         111.747         111.747 
       0.773185         354.761         109.812         109.812 
       0.779291         349.849         107.933         107.933 
       0.785407         348.071         106.097         106.097 
       0.791564         345.296         104.293         104.293 
       0.797719         339.929         102.532         102.532 
       0.803834         342.237         100.823         100.823 
       0.809972         336.653         99.1475         99.1475 
       0.816124         333.079         97.5071         97.5071 
       0.822261         330.543         95.9087         95.9087 
       0.828378         329.346         94.3514         94.3514 
       0.834502         324.461         92.8278         92.8278 
       0.840667         324.601         91.3285         91.3285 
       0.846816         318.878         89.8669         89.8669 
       0.852925         319.277         88.4469         88.4469 
       0.859047         316.104          87.055          87.055 
       0.865192         315.007         85.6888         85.6888 
       0.871341         310.443         84.3515         84.3515 
       0.877463         308.392         83.0491         83.0491 
       0.883569         306.571         81.7779         81.7779 
       0.889708         303.717         80.5271         80.5271 
       0.895864          301.01         79.2997         79.2997 
       0.902008         299.312         78.1007         78.1007 
       0.908149         296.751         76.9275         76.9275 
       0.914301         295.154         75.7768         75.7768 
       0.920448         293.334          74.651          74.651 
       0.926574         290.966         73.5523         73.5523 
       0.932687         289.503         72.4784         72.4784 
       0.938823         286.417         71.4223         71.4223 
       0.944975         285.566         70.3851         70.3851 
       0.951105         282.668         69.3724         69.3724 
       0.957225          279.67         68.3817         68.3817 
       0.963368         279.946         67.4071         67.4071 
       0.969511         274.622         66.4518         66.4518 
       0.975621         273.933         65.5204         65.5204 
       0.981748         272.665         64.6046         64.6046 
       0.987916         271.197         63.7007         63.7007 
        0.99406         268.506         62.8177         62.8177 
        1.00019         266.497         61.9534         61.9534 
        1.00632         265.978         61.1063         61.1063 
        1.01246         263.596          60.274          60.274 
        1.01859         260.516         59.4587         59.4587 
        1.02471         258.772         58.6596         58.6596 
        1.03085         257.774         57.8727         57.8727 
        1.03698         256.258          57.102          57.102 
        1.04314         255.507         56.3423         56.3423 
        1.04929         253.601         55.5982         55.5982 
        1.05541         251.039         54.8708         54.8708 
        1.06154         249.288         54.1547         54.1547 
        1.06769          247.18         53.4505         53.4505 
        1.07382         246.624         52.7612         52.7612 
        1.07993         243.947         52.0857         52.0857 
        1.08607         242.543         51.4194         51.4194 
        1.09222         240.848         50.7642         50.7642 
        1.09836         240.054         50.1213         50.1213 
        1.10449         238.049         49.4903         49.4903 
        1.11063         236.186         48.8697         48.8697 
        1.11677         234.504           48.26           48.26 
         1.1229         233.507         47.6619         47.6619 
        1.12903         231.828         47.0736         47.0736 
        1.13518         230.077         46.4948         46.4948 
        1.14131         229.292         45.9261         45.9261 
        1.14745         226.541         45.3674         45.3674 
        1.15359         224.897         44.8179         44.8179 
        1.15973         224.379         44.2775         44.2775 
        1.16584          223.14         43.7484         43.7484 
        1.17197          221.55         43.2274         43.2274 
        1.17811         219.631         42.7133         42.7133 
        1.18424         218.358         42.2091         42.2091 
        1.19038         217.215         41.7117         41.7117 
        1.19652         214.679         41.2226         41.2226 
        1.20267         214.189         40.7415         40.7415 
        1.20881         212.415         40.2681         40.2681 
        1.21495         212.042         39.8032         39.8032 
        1.22108         210.342         39.3457         39.3457 
         1.2272         208.188         38.8966         38.8966 
        1.23334         207.478         38.4535         38.4535 
        1.23949         206.505         38.0163         38.0163 
        1.24562         204.898         37.5872         37.5872 
        1.25174         203.612         37.1654         37.1654 
        1.25789         201.791         36.7489         36.7489 
        1.26402         201.554         36.3396         36.3396 
        1.27014         200.553         35.9375         35.9375 
        1.27628         198.329         35.5404         35.5404 
        1.28244         197.356         35.1486         35.1486 
        1.28858         196.026         34.7632         34.7632 
        1.29471         195.075         34.3845         34.3845 
        1.30084         193.812         34.0119         34.0119 
        1.30697         192.099         33.6442         33.6442 
        1.31312         191.056         33.2815         33.2815 
        1.31925         189.903         32.9254         32.9254 
        1.32537         189.243         32.5748         32.5748 
        1.33151         187.832         32.2282         32.2282 
        1.33765         186.282         31.8868         31.8868 
        1.34378         185.541         31.5511         31.5511 
        1.34992         184.204         31.2201         31.2201 
        1.35606         183.176         30.8931         30.8931 
         1.3622         182.219         30.5714         30.5714 
        1.36833         180.443         30.2551         30.2551 
        1.37445         180.432         29.9435         29.9435 
        1.38059         178.522         29.6354         29.6354 
        1.38675         177.409         29.3309         29.3309 
        1.39288         176.267          29.032          29.032 
        1.39901         175.219         28.7373         28.7373 
        1.40515         174.569         28.4462         28.4462 
         1.4113         173.093         28.1592         28.1592 
        1.41742         171.667         27.8773         27.8773 
        1.42355         171.888         27.5988         27.5988 
         1.4297         170.102         27.3232         27.3232 
        1.43585         169.315         27.0516         27.0516 
        1.44198         167.538         26.7847         26.7847 
        1.44809         166.955          26.522          26.522 
        1.45423         166.044         26.2619         26.2619 
        1.46036         164.994         26.0057         26.0057 
        1.46649          163.92         25.7529         25.7529 
        1.47263         163.352         25.5033         25.5033 
        1.47877         161.949         25.2571         25.2571 
        1.48491         160.704         25.0139         25.0139 
        1.49104         159.254         24.7743         24.7743 
        1.49718         158.912         24.5378         24.5378 
        1.50333         157.836          24.304          24.304 
        1.50947         156.905         24.0737         24.0737 
         1.5156          155.76         23.8468         23.8468 
        1.52172          155.16         23.6228         23.6228 
        1.52787         154.211         23.4013         23.4013 
          1.534         153.192         23.1829         23.1829 
        1.54013         152.277         22.9676         22.9676 
        1.54627          151.31         22.7546         22.7546 
        1.55241          150.67         22.5443         22.5443 
        1.55855          149.95         22.3369         22.3369 
        1.56467         148.744         22.1328         22.1328 
         1.5708         147.505         21.9306         21.9306 
        1.57695         146.973         21.7307         21.7307 
        1.58308         145.885         21.5338         21.5338 
        1.58922         145.302         21.3392         21.3392 
        1.59535         144.178          21.147          21.147 
         1.6015         143.294          20.957          20.957 
        1.60764         142.395         20.7695         20.7695 
        1.61376         141.433         20.5847         20.5847 
        1.61989         140.796         20.4021         20.4021 
        1.62604           139.7         20.2213         20.2213 
        1.63218         139.076         20.0429         20.0429 
        1.63831         138.156          19.867          19.867 
        1.64444         137.237         19.6931         19.6931 
        1.65059         136.532          19.521          19.521 
        1.65673         135.766         19.3511         19.3511 
        1.66285         135.279         19.1837         19.1837 
        1.66898         134.113         19.0183         19.0183 
        1.67512         133.352         18.8545         18.8545 
        1.68127         132.648         18.6925         18.6925 
         1.6874         131.633         18.5328         18.5328 
        1.69353         131.275          18.375          18.375 
        1.69967         130.079         18.2187         18.2187 
        1.70581         129.706         18.0644         18.0644 
        1.71193         128.639         17.9124         17.9124 
        1.71806         127.527         17.7618         17.7618 
        1.72421         127.186         17.6127         17.6127 
        1.73035         126.378         17.4655         17.4655 
        1.73649         125.352           17.32           17.32 
        1.74262         125.045         17.1763         17.1763 
        1.74876         124.086         17.0341         17.0341 
        1.75489         123.494         16.8939         16.8939 
        1.76101         122.587         16.7553         16.7553 
        1.76715         121.634          16.618          16.618 
        1.77329         121.184         16.4822         16.4822 
        1.77943         120.224         16.3478         16.3478 
        1.78557         119.826         16.2151         16.2151 
        1.79171         119.116         16.0839         16.0839 
        1.79785         118.048         15.9541         15.9541 
        1.80399         117.599         15.8258         15.8258 
        1.81012         116.565         15.6991         15.6991 
        1.81625         116.259         15.5738         15.5738 
        1.82239         115.469         15.4498         15.4498 
        1.82853         114.837         15.3271         15.3271 
        1.83466         113.936         15.2059         15.2059 
        1.84078         113.545         15.0862         15.0862 
        1.84692         113.144         14.9675         14.9675 
        1.85306         112.148           14.85           14.85 
         1.8592         111.649          14.734          14.734 
        1.86533         110.686         14.6192         14.6192 
        1.87147         110.406         14.5056         14.5056 
