# k  (h/Mpc)    Pcb(k)  (Mpc/h)^3    Pcb_linear(k) (Mpc/h)^3    Pcb_NL(k) (Mpc/h)^3   ShotnoiseSubtracted = false
     0.00783031         2112.99         2126.95         2126.95 
       0.013688         2655.59         2690.09         2690.09 
       0.019231         2756.93         2773.19         2773.19 
      0.0249154         2614.66         2612.07         2612.07 
      0.0312784         2309.73         2314.32         2314.32 
      0.0375637         2010.14         2019.45         2019.45 
      0.0433917         1798.45         1796.59         1796.59 
      0.0492413         1625.65         1630.48         1630.48 
      0.0555754          1502.5         1500.26         1500.26 
      0.0619321         1378.47         1395.38         1395.38 
       0.067871         1293.96         1299.77         1299.77 
      0.0738098         1193.55         1196.07         1196.07 
      0.0800417         1080.43         1079.18         1079.18 
      0.0862327         962.745         963.817         963.817 
      0.0921407         863.951         864.607         864.607 
      0.0982031         785.073          780.97          780.97 
       0.104506         713.198         715.442         715.442 
       0.110769         667.328         668.487         668.487 
       0.116806         638.512         633.969         633.969 
       0.122832         602.622         603.241         603.241 
       0.129052          571.91         570.041         570.041 
       0.135211         538.893         533.345         533.345 
       0.141259         497.412         494.499         494.499 
       0.147318         455.739         455.652         455.652 
       0.153489         422.825         419.458         419.458 
       0.159709         395.542         388.798         388.798 
       0.165845         366.214         364.929         364.929 
       0.171974         354.318         346.504         346.504 
       0.178125         339.124          331.54          331.54 
       0.184229         321.772         318.058         318.058 
        0.19034         311.177         304.252         304.252 
       0.196428         296.675         289.396         289.396 
       0.202534         276.931         273.537         273.537 
       0.208729         265.117         257.291         257.291 
       0.214876         252.195         242.053         242.053 
       0.220989         234.626          228.58          228.58 
       0.227147         227.533         217.058         217.058 
        0.23329          218.47         207.477         207.477 
       0.239377         211.435         199.371         199.371 
       0.245482         202.218         191.992         191.992 
       0.251667         193.679         184.713         184.713 
       0.257832         189.314         177.305         177.305 
       0.263955         179.218         169.735         169.735 
       0.270079         171.798         162.125         162.125 
        0.27624         163.523         154.715         154.715 
       0.282372         157.561         147.855         147.855 
        0.28843         154.502          141.74          141.74 
       0.294538         147.818         136.257         136.257 
       0.300721         141.576         131.302         131.302 
        0.30691         138.748         126.754         126.754 
       0.313033         133.387         122.479         122.479 
       0.319153         130.829         118.288         118.288 
       0.325316         125.077         114.096         114.096 
        0.33145         120.899          109.96          109.96 
       0.337538         117.051         105.958         105.958 
       0.343633         113.408          102.13          102.13 
       0.349808         109.629         98.4947         98.4947 
       0.355968         106.264         95.1378         95.1378 
       0.362074         104.097         92.0581         92.0581 
       0.368217          101.23         89.1692         89.1692 
       0.374374          99.043         86.4247         86.4247 
       0.380519         94.8701         83.7875         83.7875 
       0.386598         92.3055         81.2488         81.2488 
       0.392688         89.5755         78.7619         78.7619 
        0.39888         87.8165         76.3023         76.3023 
       0.405048         85.6423         73.9383         73.9383 
       0.411186         83.4416         71.6877         71.6877 
       0.417313         81.1215         69.5564         69.5564 
       0.423458         78.8855         67.5334         67.5334 
       0.429607         77.5007         65.6136         65.6136 
       0.435692         76.1199         63.8044         63.8044 
       0.441815         73.3749         62.0571         62.0571 
       0.447964         71.1478          60.361          60.361 
       0.454126         69.8979          58.714          58.714 
       0.460267         69.2036          57.123          57.123 
       0.466387         67.2857         55.5874         55.5874 
        0.47254         66.3036         54.0975         54.0975 
       0.478662         64.1246         52.6732         52.6732 
       0.484765          62.876         51.3118         51.3118 
       0.490885         61.1558         50.0021         50.0021 
       0.497035         60.3265         48.7379         48.7379 
       0.503198         58.8913         47.5194         47.5194 
       0.509342         57.3553         46.3474         46.3474 
       0.515458         56.6205         45.2183         45.2183 
       0.521598          55.269         44.1191         44.1191 
       0.527764         54.5557         43.0497         43.0497 
       0.533884         53.4581         42.0226         42.0226 
           0.54         52.2834         41.0303         41.0303 
       0.546137         50.7579         40.0677         40.0677 
       0.552299         49.9464         39.1339         39.1339 
       0.558452         48.9232         38.2336         38.2336 
       0.564573         48.5134         37.3681         37.3681 
       0.570708         47.1488         36.5288         36.5288 
       0.576825         46.5854         35.7181         35.7181 
       0.582926         45.8328         34.9338         34.9338 
       0.589034         44.9373         34.1714         34.1714 
       0.595184         44.3211         33.4264         33.4264 
       0.601379         43.1327         32.6987         32.6987 
       0.607522         42.4943          31.999          31.999 
       0.613639         41.8681         31.3233         31.3233 
       0.619772         41.1314         30.6662         30.6662 
       0.625918          40.343         30.0271         30.0271 
       0.632068         39.9996         29.4063         29.4063 
       0.638161         39.1538         28.8089         28.8089 
         0.6443         38.6132         28.2241         28.2241 
       0.650464         37.6649         27.6536         27.6536 
       0.656582         37.4355         27.1032         27.1032 
       0.662703         36.9793         26.5678         26.5678 
       0.668861         36.0309         26.0441         26.0441 
       0.675024         35.6387         25.5341         25.5341 
       0.681124         35.3468         25.0432         25.0432 
       0.687237         34.6375         24.5644         24.5644 
       0.693381         33.9991         24.0961         24.0961 
       0.699536         33.8093         23.6393         23.6393 
       0.705665         33.1754         23.1966         23.1966 
       0.711789         32.5958         22.7658         22.7658 
       0.717957         31.9695         22.3432         22.3432 
        0.72409         31.6855         21.9338         21.9338 
       0.730186          31.517         21.5374         21.5374 
       0.736317         30.8821         21.1487         21.1487 
       0.742472         30.5081         20.7684         20.7684 
       0.748622         30.0051         20.3978         20.3978 
        0.75476         29.2935         20.0372         20.0372 
       0.760888         29.2154          19.686          19.686 
       0.767043         28.7104          19.342          19.342 
       0.773185         28.4232          19.007          19.007 
       0.779291         28.1084         18.6819         18.6819 
       0.785407         27.6452         18.3641         18.3641 
       0.791564         27.4842         18.0517         18.0517 
       0.797719         26.8974         17.7469         17.7469 
       0.803834         26.7676         17.4512         17.4512 
       0.809972          26.276         17.1612         17.1612 
       0.816124         25.9912         16.8772         16.8772 
       0.822261         25.7048         16.6006         16.6006 
       0.828378         25.4435          16.331          16.331 
       0.834502         25.1738         16.0673         16.0673 
       0.840667         24.9126         15.8078         15.8078 
       0.846816         24.3745         15.5548         15.5548 
       0.852925         24.3037          15.309          15.309 
       0.859047         24.0155         15.0681         15.0681 
       0.865192         23.6705         14.8316         14.8316 
       0.871341         23.3785         14.6002         14.6002 
       0.877463         23.1361         14.3747         14.3747 
       0.883569         23.0035         14.1547         14.1547 
       0.889708         22.6334         13.9382         13.9382 
       0.895864         22.3554         13.7258         13.7258 
       0.902008         22.0834         13.5182         13.5182 
       0.908149         21.8325         13.3152         13.3152 
       0.914301         21.7211          13.116          13.116 
       0.920448         21.3929         12.9211         12.9211 
       0.926574         21.2039          12.731          12.731 
       0.932687          20.943         12.5451         12.5451 
       0.938823          20.682         12.3623         12.3623 
       0.944975         20.5137         12.1828         12.1828 
       0.951105         20.2968         12.0075         12.0075 
       0.957225         20.1751          11.836          11.836 
       0.963368         19.8531         11.6673         11.6673 
       0.969511         19.6705          11.502          11.502 
       0.975621         19.4875         11.3407         11.3407 
       0.981748         19.2425         11.1822         11.1822 
       0.987916          19.119         11.0258         11.0258 
        0.99406            18.9         10.8729         10.8729 
        1.00019         18.7524         10.7233         10.7233 
        1.00632          18.582         10.5767         10.5767 
        1.01246         18.4197         10.4327         10.4327 
        1.01859         18.1831         10.2915         10.2915 
        1.02471         17.9937         10.1532         10.1532 
        1.03085         17.9227          10.017          10.017 
        1.03698         17.7477         9.88363         9.88363 
        1.04314         17.5268         9.75213         9.75213 
        1.04929         17.3138         9.62335         9.62335 
        1.05541          17.242         9.49744         9.49744 
        1.06154         17.1014          9.3735          9.3735 
        1.06769         16.9329          9.2516          9.2516 
        1.07382          16.697         9.13229         9.13229 
        1.07993         16.5632         9.01537         9.01537 
        1.08607         16.4819         8.90004         8.90004 
        1.09222          16.277         8.78663         8.78663 
        1.09836         16.1968         8.67535         8.67535 
        1.10449         15.9988         8.56615         8.56615 
        1.11063         15.9235         8.45872         8.45872 
        1.11677         15.8165          8.3532          8.3532 
         1.1229         15.6561         8.24968         8.24968 
        1.12903         15.5331         8.14784         8.14784 
        1.13518         15.3436         8.04765         8.04765 
        1.14131         15.2604         7.94922         7.94922 
        1.14745         15.0422         7.85252         7.85252 
        1.15359         14.9253         7.75742         7.75742 
        1.15973          14.807         7.66387         7.66387 
        1.16584         14.6903          7.5723          7.5723 
        1.17197         14.5533         7.48211         7.48211 
        1.17811         14.4447         7.39312         7.39312 
        1.18424         14.3443         7.30586         7.30586 
        1.19038          14.261         7.21977         7.21977 
        1.19652         14.1194         7.13511         7.13511 
        1.20267          14.027         7.05183         7.05183 
        1.20881          13.867          6.9699          6.9699 
        1.21495          13.772         6.88942         6.88942 
        1.22108         13.7202         6.81024         6.81024 
         1.2272          13.594          6.7325          6.7325 
        1.23334         13.5146         6.65581         6.65581 
        1.23949         13.3854         6.58014         6.58014 
        1.24562         13.2635         6.50587         6.50587 
        1.25174         13.1967         6.43287         6.43287 
        1.25789         13.0502         6.36077         6.36077 
        1.26402         13.0034         6.28992         6.28992 
        1.27014         12.9291         6.22033         6.22033 
        1.27628         12.7585         6.15159         6.15159 
        1.28244          12.748         6.08377         6.08377 
        1.28858           12.62         6.01707         6.01707 
        1.29471         12.4552         5.95153         5.95153 
        1.30084         12.3825         5.88702         5.88702 
        1.30697         12.3669         5.82339         5.82339 
        1.31312         12.2302         5.76061         5.76061 
        1.31925         12.1622         5.69897         5.69897 
        1.32537         12.0709         5.63829         5.63829 
        1.33151         11.9833         5.57829         5.57829 
        1.33765         11.8947          5.5192          5.5192 
        1.34378         11.8655          5.4611          5.4611 
        1.34992         11.7387          5.4038          5.4038 
        1.35606         11.6406          5.3472          5.3472 
         1.3622          11.552         5.29153         5.29153 
        1.36833         11.5118         5.23678         5.23678 
        1.37445         11.4378         5.18285         5.18285 
        1.38059         11.3597         5.12952         5.12952 
        1.38675         11.2766         5.07681         5.07681 
        1.39288         11.1644         5.02507         5.02507 
        1.39901         11.1111         4.97407         4.97407 
        1.40515          11.029         4.92367         4.92367 
         1.4113         10.9492           4.874           4.874 
        1.41742         10.9053         4.82521         4.82521 
        1.42355         10.7963           4.777           4.777 
         1.4297         10.7532         4.72931         4.72931 
        1.43585         10.6914         4.68229         4.68229 
        1.44198         10.6248          4.6361          4.6361 
        1.44809         10.5531         4.59062         4.59062 
        1.45423         10.4667          4.5456          4.5456 
        1.46036         10.4151         4.50126         4.50126 
        1.46649         10.3442          4.4575          4.4575 
        1.47263         10.2928          4.4143          4.4143 
        1.47877         10.2194         4.37169         4.37169 
        1.48491         10.1683         4.32958         4.32958 
        1.49104         10.0791         4.28812         4.28812 
        1.49718         10.0468         4.24718         4.24718 
        1.50333         9.97505         4.20671         4.20671 
        1.50947         9.90108         4.16686         4.16686 
         1.5156         9.87335         4.12758         4.12758 
        1.52172         9.79868         4.08882         4.08882 
        1.52787         9.74459         4.05048         4.05048 
          1.534         9.68652         4.01267         4.01267 
        1.54013         9.63908          3.9754          3.9754 
        1.54627         9.57032         3.93853         3.93853 
        1.55241         9.48945         3.90213         3.90213 
        1.55855         9.47382         3.86624         3.86624 
        1.56467         9.40525         3.83091         3.83091 
         1.5708         9.35915         3.79592         3.79592 
        1.57695         9.28511         3.76132         3.76132 
        1.58308         9.21693         3.72723         3.72723 
        1.58922         9.19024         3.69354         3.69354 
        1.59535         9.12946         3.66029         3.66029 
         1.6015         9.04626          3.6274          3.6274 
        1.60764         9.01826         3.59494         3.59494 
        1.61376         8.98512         3.56296         3.56296 
        1.61989         8.89989         3.53135         3.53135 
        1.62604          8.8788         3.50006         3.50006 
        1.63218          8.8339         3.46917         3.46917 
        1.63831         8.77109         3.43872         3.43872 
        1.64444         8.70355         3.40863         3.40863 
        1.65059         8.65672         3.37884         3.37884 
        1.65673         8.63639         3.34943         3.34943 
        1.66285          8.5811         3.32046         3.32046 
        1.66898         8.53797         3.29183         3.29183 
        1.67512          8.4835         3.26348         3.26348 
        1.68127         8.41707         3.23543         3.23543 
         1.6874         8.39581         3.20779         3.20779 
        1.69353         8.33459         3.18048         3.18048 
        1.69967         8.30251         3.15343         3.15343 
        1.70581         8.24307         3.12671         3.12671 
        1.71193         8.22636         3.10041         3.10041 
        1.71806         8.17471         3.07435         3.07435 
        1.72421         8.11538         3.04854         3.04854 
        1.73035         8.08025         3.02305         3.02305 
        1.73649         8.04759         2.99787         2.99787 
        1.74262         7.97087           2.973           2.973 
        1.74876         7.97502         2.94839         2.94839 
        1.75489         7.91942         2.92412         2.92412 
        1.76101         7.85904         2.90013         2.90013 
        1.76715         7.84553         2.87637         2.87637 
        1.77329         7.80439         2.85286         2.85286 
        1.77943         7.73605          2.8296          2.8296 
        1.78557         7.73514         2.80663         2.80663 
        1.79171         7.68793         2.78392         2.78392 
        1.79785         7.65507         2.76146         2.76146 
        1.80399         7.58211         2.73925         2.73925 
        1.81012         7.56653         2.71732         2.71732 
        1.81625         7.51293         2.69564         2.69564 
        1.82239         7.48068         2.67416         2.67416 
        1.82853         7.43554         2.65293         2.65293 
        1.83466         7.38442         2.63196         2.63196 
        1.84078         7.36988         2.61123         2.61123 
        1.84692         7.33381         2.59069         2.59069 
        1.85306         7.29806         2.57036         2.57036 
         1.8592         7.27657         2.55027         2.55027 
        1.86533         7.23722         2.53041         2.53041 
        1.87147         7.19142         2.51074         2.51074 
