# k  (h/Mpc)    P(k)  (Mpc/h)^3    P_linear(k)  (Mpc/h)^3     P_NL(k)  ShotnoiseSubtracted = false
     0.00783031         15118.9           15194           15194 
       0.013688         18775.6         19297.2         19297.2 
       0.019231         19581.2         19910.7         19910.7 
      0.0249154         18755.9           18760           18760 
      0.0312784         16391.2         16624.1         16624.1 
      0.0375637         14175.9           14507           14507 
      0.0433917         12756.3         12906.6         12906.6 
      0.0492413         11466.9         11713.5         11713.5 
      0.0555754         10608.9         10778.2         10778.2 
      0.0619321         9551.41         10024.7         10024.7 
       0.067871         9023.47         9337.92         9337.92 
      0.0738098          8390.7         8592.94         8592.94 
      0.0800417         7597.14         7753.19         7753.19 
      0.0862327         6778.42         6924.39         6924.39 
      0.0921407          6133.6         6211.65         6211.65 
      0.0982031         5633.43         5610.77         5610.77 
       0.104506         5092.33            5140            5140 
       0.110769         4777.97         4802.66         4802.66 
       0.116806         4601.49         4554.67         4554.67 
       0.122832         4334.61         4333.92         4333.92 
       0.129052         4087.17          4095.4          4095.4 
       0.135211          3933.8         3831.75         3831.75 
       0.141259         3619.79         3552.67         3552.67 
       0.147318         3338.72         3273.58         3273.58 
       0.153489         3143.39         3013.55         3013.55 
       0.159709         3024.35         2793.28         2793.28 
       0.165845         2780.43          2621.8          2621.8 
       0.171974         2719.45         2489.42         2489.42 
       0.178125         2644.62         2381.92         2381.92 
       0.184229         2444.08         2285.05         2285.05 
        0.19034         2407.45         2185.86         2185.86 
       0.196428         2335.21         2079.14         2079.14 
       0.202534         2192.67         1965.19         1965.19 
       0.208729         2142.76         1848.48         1848.48 
       0.214876         2046.03            1739            1739 
       0.220989         1949.19          1642.2          1642.2 
       0.227147         1898.71         1559.43         1559.43 
        0.23329         1827.91         1490.59         1490.59 
       0.239377         1819.76         1432.36         1432.36 
       0.245482         1738.67         1379.34         1379.34 
       0.251667         1675.48         1327.05         1327.05 
       0.257832         1649.02         1273.83         1273.83 
       0.263955          1576.6         1219.44         1219.44 
       0.270079          1537.7         1164.77         1164.77 
        0.27624         1473.67         1111.53         1111.53 
       0.282372         1458.36         1062.25         1062.25 
        0.28843            1431         1018.32         1018.32 
       0.294538         1369.03         978.921         978.921 
       0.300721         1345.24         943.325         943.325 
        0.30691         1312.23          910.65          910.65 
       0.313033         1264.91         879.935         879.935 
       0.319153         1252.38         849.828         849.828 
       0.325316         1236.99         819.708         819.708 
        0.33145         1210.24         789.994         789.994 
       0.337538         1172.47         761.245         761.245 
       0.343633         1145.95         733.744         733.744 
       0.349808         1126.67         707.624         707.624 
       0.355968         1103.58         683.508         683.508 
       0.362074         1072.27          661.38          661.38 
       0.368217         1069.06         640.626         640.626 
       0.374374         1052.94         620.909         620.909 
       0.380519         1017.58         601.962         601.962 
       0.386598         1013.04         583.724         583.724 
       0.392688         987.642         565.856         565.856 
        0.39888         968.577         548.186         548.186 
       0.405048         949.947         531.202         531.202 
       0.411186         946.834         515.032         515.032 
       0.417313         942.673          499.72          499.72 
       0.423458         914.357         485.186         485.186 
       0.429607         890.494         471.394         471.394 
       0.435692         883.524         458.396         458.396 
       0.441815         866.997         445.842         445.842 
       0.447964         857.146         433.657         433.657 
       0.454126         846.237         421.824         421.824 
       0.460267         836.012         410.394         410.394 
       0.466387         822.161         399.361         399.361 
        0.47254         808.761         388.657         388.657 
       0.478662         798.592         378.425         378.425 
       0.484765         789.922         368.644         368.644 
       0.490885         781.796         359.234         359.234 
       0.497035         767.413         350.152         350.152 
       0.503198         766.285         341.398         341.398 
       0.509342         752.261         332.978         332.978 
       0.515458         737.525         324.865         324.865 
       0.521598          736.22         316.969         316.969 
       0.527764         719.175         309.286         309.286 
       0.533884         712.212         301.907         301.907 
           0.54         706.997         294.778         294.778 
       0.546137         697.486         287.862         287.862 
       0.552299         692.734         281.153         281.153 
       0.558452         684.884         274.685         274.685 
       0.564573         680.323         268.467         268.467 
       0.570708         673.223         262.437         262.437 
       0.576825         659.574         256.613         256.613 
       0.582926         658.049         250.978         250.978 
       0.589034         649.473           245.5           245.5 
       0.595184         642.661         240.148         240.148 
       0.601379         632.864          234.92          234.92 
       0.607522         623.852         229.893         229.893 
       0.613639         622.984         225.039         225.039 
       0.619772         617.977         220.318         220.318 
       0.625918         608.239         215.726         215.726 
       0.632068         605.569         211.266         211.266 
       0.638161         597.448         206.974         206.974 
         0.6443         591.415         202.773         202.773 
       0.650464         586.723         198.674         198.674 
       0.656582         582.149          194.72          194.72 
       0.662703         575.207         190.874         190.874 
       0.668861         569.028         187.111         187.111 
       0.675024         565.825         183.447         183.447 
       0.681124         555.414          179.92          179.92 
       0.687237         555.704          176.48          176.48 
       0.693381         546.191         173.115         173.115 
       0.699536         547.144         169.834         169.834 
       0.705665         539.052         166.653         166.653 
       0.711789         537.872         163.558         163.558 
       0.717957         530.748         160.522         160.522 
        0.72409         526.262         157.581         157.581 
       0.730186         525.033         154.733         154.733 
       0.736317         517.675         151.941         151.941 
       0.742472          511.93         149.208         149.208 
       0.748622         510.318         146.546         146.546 
        0.75476         503.899         143.955         143.955 
       0.760888         501.498         141.432         141.432 
       0.767043         498.846          138.96          138.96 
       0.773185         494.804         136.553         136.553 
       0.779291         489.398         134.218         134.218 
       0.785407         485.486         131.935         131.935 
       0.791564         483.055         129.691         129.691 
       0.797719         475.673         127.501         127.501 
       0.803834         476.762         125.376         125.376 
       0.809972         469.329         123.292         123.292 
       0.816124         465.876         121.253         121.253 
       0.822261         463.307         119.265         119.265 
       0.828378         460.952         117.328         117.328 
       0.834502         453.781         115.434         115.434 
       0.840667         453.148         113.569         113.569 
       0.846816         447.933         111.752         111.752 
       0.852925         447.669         109.986         109.986 
       0.859047         442.792         108.255         108.255 
       0.865192         440.326         106.556         106.556 
       0.871341         434.737         104.893         104.893 
       0.877463          433.84         103.274         103.274 
       0.883569         429.506         101.693         101.693 
       0.889708         425.042         100.138         100.138 
       0.895864           420.7         98.6111         98.6111 
       0.902008         420.097         97.1201         97.1201 
       0.908149         416.011         95.6613         95.6613 
       0.914301         414.612         94.2304         94.2304 
       0.920448         409.533         92.8304         92.8304 
       0.926574         407.439         91.4642         91.4642 
       0.932687         406.292         90.1287         90.1287 
       0.938823         401.199         88.8154         88.8154 
       0.944975         399.914         87.5256         87.5256 
       0.951105         396.526         86.2663         86.2663 
       0.957225         391.288         85.0343         85.0343 
       0.963368         391.961         83.8225         83.8225 
       0.969511         385.919         82.6345         82.6345 
       0.975621         384.395         81.4762         81.4762 
       0.981748         382.598         80.3374         80.3374 
       0.987916         380.166         79.2134         79.2134 
        0.99406         376.164         78.1154         78.1154 
        1.00019         372.664         77.0406         77.0406 
        1.00632         371.777         75.9872         75.9872 
        1.01246         368.693         74.9522         74.9522 
        1.01859         365.205         73.9384         73.9384 
        1.02471         363.366         72.9447         72.9447 
        1.03085         361.423         71.9662         71.9662 
        1.03698         359.387         71.0078         71.0078 
        1.04314         356.852          70.063          70.063 
        1.04929         355.139         69.1378         69.1378 
        1.05541         350.637         68.2332         68.2332 
        1.06154          349.05         67.3428         67.3428 
        1.06769         345.928          66.467          66.467 
        1.07382         343.386         65.6099         65.6099 
        1.07993         342.564         64.7699         64.7699 
        1.08607         340.196         63.9413         63.9413 
        1.09222          337.05         63.1265         63.1265 
        1.09836         335.395          62.327          62.327 
        1.10449         332.764         61.5425         61.5425 
        1.11063         331.255         60.7707         60.7707 
        1.11677         327.256         60.0126         60.0126 
         1.1229         326.562         59.2688         59.2688 
        1.12903         323.566         58.5372         58.5372 
        1.13518         321.661         57.8174         57.8174 
        1.14131          320.07         57.1103         57.1103 
        1.14745         316.616         56.4155         56.4155 
        1.15359         314.229         55.7322         55.7322 
        1.15973         312.802         55.0602         55.0602 
        1.16584         311.253         54.4023         54.4023 
        1.17197         308.904         53.7543         53.7543 
        1.17811         305.542          53.115          53.115 
        1.18424         304.624         52.4881         52.4881 
        1.19038         302.861         51.8696         51.8696 
        1.19652         299.531         51.2614         51.2614 
        1.20267         298.763          50.663          50.663 
        1.20881         296.927         50.0745         50.0745 
        1.21495          294.28         49.4963         49.4963 
        1.22108         293.052         48.9274         48.9274 
         1.2272         288.929         48.3688         48.3688 
        1.23334         288.131         47.8179         47.8179 
        1.23949         286.225         47.2742         47.2742 
        1.24562         285.231         46.7406         46.7406 
        1.25174         282.999         46.2162         46.2162 
        1.25789         280.544         45.6982         45.6982 
        1.26402         279.413         45.1892         45.1892 
        1.27014         277.903         44.6892         44.6892 
        1.27628         275.572         44.1954         44.1954 
        1.28244         273.288         43.7081         43.7081 
        1.28858         272.339         43.2289         43.2289 
        1.29471         270.609          42.758          42.758 
        1.30084         269.667         42.2946         42.2946 
        1.30697         266.476         41.8375         41.8375 
        1.31312         264.935         41.3864         41.3864 
        1.31925         263.624         40.9435         40.9435 
        1.32537         262.497         40.5076         40.5076 
        1.33151         259.792         40.0765         40.0765 
        1.33765         257.726         39.6521         39.6521 
        1.34378         256.767         39.2346         39.2346 
        1.34992         254.122         38.8229         38.8229 
        1.35606         252.918         38.4163         38.4163 
         1.3622         251.138         38.0163         38.0163 
        1.36833         250.399          37.623          37.623 
        1.37445         249.251         37.2356         37.2356 
        1.38059         246.078         36.8524         36.8524 
        1.38675         244.823         36.4738         36.4738 
        1.39288         243.948          36.102          36.102 
        1.39901          241.63         35.7356         35.7356 
        1.40515         240.555         35.3735         35.3735 
         1.4113         238.694         35.0167         35.0167 
        1.41742         236.735         34.6661         34.6661 
        1.42355         236.235         34.3198         34.3198 
         1.4297         234.232         33.9771         33.9771 
        1.43585         232.408         33.6394         33.6394 
        1.44198         231.072         33.3075         33.3075 
        1.44809         229.926         32.9808         32.9808 
        1.45423         228.433         32.6573         32.6573 
        1.46036         227.429         32.3388         32.3388 
        1.46649          225.72         32.0244         32.0244 
        1.47263         223.913          31.714          31.714 
        1.47877         222.584         31.4079         31.4079 
        1.48491         220.868         31.1054         31.1054 
        1.49104         219.008         30.8075         30.8075 
        1.49718         218.308         30.5134         30.5134 
        1.50333         216.351         30.2226         30.2226 
        1.50947         215.294         29.9363         29.9363 
         1.5156         213.943         29.6541         29.6541 
        1.52172         212.516         29.3756         29.3756 
        1.52787         210.883         29.1001         29.1001 
          1.534         210.586         28.8286         28.8286 
        1.54013         208.546         28.5608         28.5608 
        1.54627         207.362         28.2959         28.2959 
        1.55241         206.317         28.0344         28.0344 
        1.55855         204.904         27.7765         27.7765 
        1.56467         203.712         27.5227         27.5227 
         1.5708         202.105         27.2713         27.2713 
        1.57695         201.219         27.0227         27.0227 
        1.58308          200.07         26.7778         26.7778 
        1.58922         198.306         26.5358         26.5358 
        1.59535         196.867         26.2969         26.2969 
         1.6015         196.137         26.0606         26.0606 
        1.60764         194.492         25.8274         25.8274 
        1.61376         193.089         25.5977         25.5977 
        1.61989         191.819         25.3706         25.3706 
        1.62604         190.853         25.1457         25.1457 
        1.63218         189.461         24.9238         24.9238 
        1.63831         188.827         24.7051         24.7051 
        1.64444         187.026         24.4889         24.4889 
        1.65059         186.162         24.2748         24.2748 
        1.65673         184.908         24.0636         24.0636 
        1.66285          183.81         23.8554         23.8554 
        1.66898         182.691         23.6497         23.6497 
        1.67512         181.447          23.446          23.446 
        1.68127         180.529         23.2446         23.2446 
         1.6874         179.167          23.046          23.046 
        1.69353         178.528         22.8498         22.8498 
        1.69967         176.998         22.6555         22.6555 
        1.70581         176.262         22.4635         22.4635 
        1.71193         174.939         22.2745         22.2745 
        1.71806          173.44         22.0873         22.0873 
        1.72421         172.676         21.9018         21.9018 
        1.73035         171.463         21.7188         21.7188 
        1.73649         170.111         21.5378         21.5378 
        1.74262         169.394         21.3591         21.3591 
        1.74876         168.429         21.1824         21.1824 
        1.75489         167.638          21.008          21.008 
        1.76101         166.475         20.8356         20.8356 
        1.76715         165.273         20.6649         20.6649 
        1.77329         163.962          20.496          20.496 
        1.77943         162.973         20.3289         20.3289 
        1.78557         162.019         20.1639         20.1639 
        1.79171         161.398         20.0007         20.0007 
        1.79785         160.065         19.8394         19.8394 
        1.80399         159.152         19.6798         19.6798 
        1.81012         158.572         19.5222         19.5222 
        1.81625         156.885         19.3665         19.3665 
        1.82239         156.428         19.2122         19.2122 
        1.82853         155.438         19.0597         19.0597 
        1.83466         153.958          18.909          18.909 
        1.84078         153.411         18.7601         18.7601 
        1.84692         152.649         18.6125         18.6125 
        1.85306         151.366         18.4664         18.4664 
         1.8592          150.78         18.3221         18.3221 
        1.86533         149.246         18.1794         18.1794 
        1.87147         148.437         18.0381         18.0381 
        1.87761         147.809         17.8982         17.8982 
