# k  (h/Mpc)    P(k)  (Mpc/h)^3    P_linear(k)  (Mpc/h)^3     P_NL(k)  ShotnoiseSubtracted = false
     0.00783031         4725.28          4753.1          4753.1 
       0.013688         5909.72         6010.43         6010.43 
       0.019231         6142.65         6195.55         6195.55 
      0.0249154         5843.69         5835.32         5835.32 
      0.0312784         5147.08         5169.98         5169.98 
      0.0375637         4471.08         4511.18         4511.18 
      0.0433917         4008.72         4013.29         4013.29 
      0.0492413         3617.14         3642.18         3642.18 
      0.0555754         3347.25         3351.28         3351.28 
      0.0619321         3052.29         3116.97         3116.97 
       0.067871         2873.47          2903.4          2903.4 
      0.0738098          2655.4         2671.74         2671.74 
      0.0800417         2405.56         2410.63         2410.63 
      0.0862327         2142.74         2152.93         2152.93 
      0.0921407         1926.01         1931.32         1931.32 
      0.0982031         1755.59         1744.49         1744.49 
       0.104506         1590.81         1598.12         1598.12 
       0.110769         1489.88         1493.23         1493.23 
       0.116806         1430.88         1416.12         1416.12 
       0.122832         1346.79         1347.48         1347.48 
       0.129052         1278.22         1273.32         1273.32 
       0.135211         1211.44         1191.35         1191.35 
       0.141259          1116.6         1104.58         1104.58 
       0.147318         1022.11         1017.81         1017.81 
       0.153489         952.597         936.957         936.957 
       0.159709         898.527         868.471         868.471 
       0.165845         827.727         815.154         815.154 
       0.171974         807.031         773.997         773.997 
       0.178125         774.926         740.572         740.572 
       0.184229         728.933         710.456         710.456 
        0.19034         708.692         679.616         679.616 
       0.196428         679.197         646.433         646.433 
       0.202534         632.081         611.007         611.007 
       0.208729         611.447         574.717         574.717 
       0.214876         583.399          540.68          540.68 
       0.220989         542.964         510.584         510.584 
       0.227147          529.79         484.849         484.849 
        0.23329         510.034         463.447         463.447 
       0.239377         497.598          445.34          445.34 
       0.245482         474.064         428.857         428.857 
       0.251667         454.903         412.598         412.598 
       0.257832         448.076          396.05          396.05 
       0.263955         422.913          379.14          379.14 
       0.270079         406.792         362.143         362.143 
        0.27624         388.235          345.59          345.59 
       0.282372         377.036         330.269         330.269 
        0.28843         373.077         316.608         316.608 
       0.294538         355.308          304.36          304.36 
       0.300721         342.068         293.293         293.293 
        0.30691         336.592         283.134         283.134 
       0.313033         322.662         273.584         273.584 
       0.319153         316.855         264.223         264.223 
       0.325316         307.014         254.858         254.858 
        0.33145         298.479          245.62          245.62 
       0.337538         288.349         236.681         236.681 
       0.343633         279.115         228.131         228.131 
       0.349808         271.189          220.01          220.01 
       0.355968          264.75         212.512         212.512 
       0.362074         258.514         205.632         205.632 
       0.368217         253.924         199.179         199.179 
       0.374374         248.192         193.049         193.049 
       0.380519         238.011         187.158         187.158 
       0.386598         233.515         181.488         181.488 
       0.392688         227.445         175.932         175.932 
        0.39888         222.631         170.438         170.438 
       0.405048         217.973         165.158         165.158 
       0.411186         214.855          160.13          160.13 
       0.417313         209.851          155.37          155.37 
       0.423458         204.485         150.851         150.851 
       0.429607           200.3         146.563         146.563 
       0.435692         196.646         142.521         142.521 
       0.441815         191.936         138.618         138.618 
       0.447964         186.327          134.83          134.83 
       0.454126         183.099         131.151         131.151 
       0.460267         181.364         127.597         127.597 
       0.466387         177.443         124.167         124.167 
        0.47254         175.308         120.839         120.839 
       0.478662         169.554         117.657         117.657 
       0.484765         167.316         114.616         114.616 
       0.490885         164.197         111.691         111.691 
       0.497035         162.714         108.867         108.867 
       0.503198         159.461         106.145         106.145 
       0.509342         155.352         103.527         103.527 
       0.515458         153.564         101.005         101.005 
       0.521598         149.864         98.5498         98.5498 
       0.527764         148.322         96.1612         96.1612 
       0.533884         147.439         93.8669         93.8669 
           0.54         143.532         91.6503         91.6503 
       0.546137         140.212         89.5002         89.5002 
       0.552299         138.572         87.4143         87.4143 
       0.558452         136.032         85.4033         85.4033 
       0.564573         135.414           83.47           83.47 
       0.570708          131.72         81.5952         81.5952 
       0.576825         130.245         79.7844         79.7844 
       0.582926         128.849         78.0324         78.0324 
       0.589034         126.769         76.3293         76.3293 
       0.595184         125.363         74.6653         74.6653 
       0.601379         122.337         73.0398         73.0398 
       0.607522         120.511         71.4768         71.4768 
       0.613639         119.457         69.9676         69.9676 
       0.619772           117.6         68.4997         68.4997 
       0.625918         116.489         67.0722         67.0722 
       0.632068         114.327         65.6855         65.6855 
       0.638161         112.536         64.3511         64.3511 
         0.6443         111.983         63.0448         63.0448 
       0.650464         109.721         61.7705         61.7705 
       0.656582          109.28         60.5411         60.5411 
       0.662703         107.857         59.3452         59.3452 
       0.668861         105.567         58.1752         58.1752 
       0.675024          105.46         57.0362         57.0362 
       0.681124         103.753         55.9396         55.9396 
       0.687237         101.817           54.87           54.87 
       0.693381         101.313         53.8239         53.8239 
       0.699536         100.025         52.8037         52.8037 
       0.705665         98.5065         51.8147         51.8147 
       0.711789         97.1973         50.8525         50.8525 
       0.717957         96.0896         49.9085         49.9085 
        0.72409         95.3405         48.9941         48.9941 
       0.730186          94.704         48.1085         48.1085 
       0.736317         93.0168         47.2404         47.2404 
       0.742472         91.9582         46.3907         46.3907 
       0.748622         90.5542         45.5631         45.5631 
        0.75476         89.9493         44.7576         44.7576 
       0.760888         89.5396         43.9731         43.9731 
       0.767043         87.8384         43.2046         43.2046 
       0.773185         86.8431         42.4563         42.4563 
       0.779291         85.8796         41.7302         41.7302 
       0.785407         84.7467         41.0202         41.0202 
       0.791564         84.6867         40.3226         40.3226 
       0.797719         83.5874         39.6417         39.6417 
       0.803834         82.8063          38.981          38.981 
       0.809972         82.1533         38.3333         38.3333 
       0.816124            81.2          37.699          37.699 
       0.822261         80.1236          37.081          37.081 
       0.828378         79.8909          36.479          36.479 
       0.834502         78.6937         35.8899         35.8899 
       0.840667          78.229         35.3102         35.3102 
       0.846816         77.3477         34.7451         34.7451 
       0.852925         76.6551         34.1961         34.1961 
       0.859047           76.32         33.6579         33.6579 
       0.865192          75.097         33.1298         33.1298 
       0.871341         74.3233         32.6127         32.6127 
       0.877463         73.8619         32.1092         32.1092 
       0.883569         73.6097         31.6177         31.6177 
       0.889708          72.866         31.1341         31.1341 
       0.895864         72.2001         30.6595         30.6595 
       0.902008          71.477          30.196          30.196 
       0.908149         70.7584         29.7424         29.7424 
       0.914301         70.3861         29.2975         29.2975 
       0.920448         70.0263         28.8622         28.8622 
       0.926574         68.6674         28.4374         28.4374 
       0.932687         68.3937         28.0222         28.0222 
       0.938823         67.7884         27.6139         27.6139 
       0.944975         67.0332         27.2129         27.2129 
       0.951105         66.5313         26.8214         26.8214 
       0.957225          66.355         26.4383         26.4383 
       0.963368         65.6303         26.0615         26.0615 
       0.969511         65.0593         25.6922         25.6922 
       0.975621         64.6077          25.332          25.332 
       0.981748         63.9216          24.978          24.978 
       0.987916         63.4718         24.6285         24.6285 
        0.99406         63.0676         24.2871         24.2871 
        1.00019          62.434          23.953          23.953 
        1.00632         61.9992         23.6254         23.6254 
        1.01246         61.5433         23.3036         23.3036 
        1.01859         61.2074         22.9884         22.9884 
        1.02471         60.4855         22.6795         22.6795 
        1.03085         60.1693         22.3752         22.3752 
        1.03698         59.7574         22.0773         22.0773 
        1.04314         59.3474         21.7835         21.7835 
        1.04929         58.7625         21.4959         21.4959 
        1.05541         58.4659         21.2146         21.2146 
        1.06154         58.1495         20.9378         20.9378 
        1.06769         57.3469         20.6655         20.6655 
        1.07382         57.1059          20.399          20.399 
        1.07993         56.7675         20.1378         20.1378 
        1.08607         56.3206         19.8802         19.8802 
        1.09222         56.0622         19.6269         19.6269 
        1.09836         55.5539         19.3783         19.3783 
        1.10449         55.2675         19.1344         19.1344 
        1.11063         54.7383         18.8944         18.8944 
        1.11677           54.65         18.6587         18.6587 
         1.1229          54.052         18.4275         18.4275 
        1.12903         53.8622            18.2            18.2 
        1.13518         53.7033         17.9762         17.9762 
        1.14131         53.0842         17.7563         17.7563 
        1.14745         52.5928         17.5403         17.5403 
        1.15359         52.1152         17.3279         17.3279 
        1.15973         52.0401         17.1189         17.1189 
        1.16584         51.6566         16.9144         16.9144 
        1.17197         51.0489         16.7129         16.7129 
        1.17811         50.8696         16.5142         16.5142 
        1.18424         50.2324         16.3193         16.3193 
        1.19038         50.1371          16.127          16.127 
        1.19652         49.9009         15.9379         15.9379 
        1.20267         49.5642         15.7518         15.7518 
        1.20881         49.2066         15.5688         15.5688 
        1.21495         48.9978         15.3891         15.3891 
        1.22108          48.803         15.2122         15.2122 
         1.2272         48.3803         15.0385         15.0385 
        1.23334         48.0733         14.8672         14.8672 
        1.23949         47.7779         14.6982         14.6982 
        1.24562         47.3932         14.5323         14.5323 
        1.25174          47.103         14.3692         14.3692 
        1.25789         47.1027         14.2082         14.2082 
        1.26402         46.6879         14.0499         14.0499 
        1.27014         46.4218         13.8945         13.8945 
        1.27628         45.9653         13.7409         13.7409 
        1.28244         45.8892         13.5894         13.5894 
        1.28858         45.5216         13.4405         13.4405 
        1.29471         45.2912          13.294          13.294 
        1.30084          44.897           13.15           13.15 
        1.30697         44.8103         13.0078         13.0078 
        1.31312         44.4053         12.8676         12.8676 
        1.31925         44.0681         12.7299         12.7299 
        1.32537         43.8753         12.5944         12.5944 
        1.33151         43.5951         12.4603         12.4603 
        1.33765         43.4198         12.3284         12.3284 
        1.34378         43.2632         12.1986         12.1986 
        1.34992         42.9048         12.0706         12.0706 
        1.35606         42.6581         11.9442         11.9442 
         1.3622         42.3745         11.8198         11.8198 
        1.36833         42.1848         11.6975         11.6975 
        1.37445         41.8551          11.577          11.577 
        1.38059         41.7195         11.4579         11.4579 
        1.38675         41.3017         11.3402         11.3402 
        1.39288         41.2578         11.2246         11.2246 
        1.39901         40.9513         11.1107         11.1107 
        1.40515         40.7562         10.9981         10.9981 
         1.4113         40.7331         10.8872         10.8872 
        1.41742         40.4395         10.7782         10.7782 
        1.42355         40.0493         10.6705         10.6705 
         1.4297         39.8522         10.5639         10.5639 
        1.43585         39.5815         10.4589         10.4589 
        1.44198         39.4084         10.3558         10.3558 
        1.44809         39.1766         10.2542         10.2542 
        1.45423         39.0498         10.1536         10.1536 
        1.46036         38.8326         10.0546         10.0546 
        1.46649          38.642         9.95682         9.95682 
        1.47263         38.3609         9.86031         9.86031 
        1.47877         38.2114         9.76513         9.76513 
        1.48491         38.0726         9.67108         9.67108 
        1.49104         37.7471         9.57847         9.57847 
        1.49718         37.6344         9.48701         9.48701 
        1.50333         37.5187         9.39662         9.39662 
        1.50947         37.2016         9.30759         9.30759 
         1.5156         37.0434         9.21986         9.21986 
        1.52172         36.7694         9.13327         9.13327 
        1.52787         36.6294         9.04763         9.04763 
          1.534          36.435         8.96319         8.96319 
        1.54013         36.3425         8.87993         8.87993 
        1.54627          35.997         8.79758         8.79758 
        1.55241         35.8551         8.71627         8.71627 
        1.55855         35.7543          8.6361          8.6361 
        1.56467         35.5901         8.55718         8.55718 
         1.5708         35.3813         8.47902         8.47902 
        1.57695         35.2058         8.40173         8.40173 
        1.58308         34.9029         8.32559         8.32559 
        1.58922         34.7317         8.25034         8.25034 
        1.59535         34.6357         8.17606         8.17606 
         1.6015         34.5204          8.1026          8.1026 
        1.60764         34.3259         8.03008         8.03008 
        1.61376         34.0924         7.95866         7.95866 
        1.61989         33.8808         7.88805         7.88805 
        1.62604         33.7505         7.81815         7.81815 
        1.63218         33.5936         7.74915         7.74915 
        1.63831         33.4695         7.68114         7.68114 
        1.64444         33.2707         7.61393         7.61393 
        1.65059         33.1014         7.54738         7.54738 
        1.65673         32.9544         7.48169         7.48169 
        1.66285          32.858         7.41698         7.41698 
        1.66898         32.5855         7.35302         7.35302 
        1.67512         32.5326         7.28969         7.28969 
        1.68127         32.3449         7.22706         7.22706 
         1.6874         32.1719          7.1653          7.1653 
        1.69353         32.0725         7.10431         7.10431 
        1.69967          31.907         7.04389         7.04389 
        1.70581          31.624          6.9842          6.9842 
        1.71193         31.4824         6.92544         6.92544 
        1.71806          31.429         6.86723         6.86723 
        1.72421         31.2908         6.80958         6.80958 
        1.73035         31.0915         6.75266         6.75266 
        1.73649         30.8951         6.69641         6.69641 
        1.74262         30.7141         6.64085         6.64085 
        1.74876         30.6129         6.58588         6.58588 
        1.75489         30.4761         6.53166         6.53166 
        1.76101          30.373         6.47807         6.47807 
        1.76715         30.2517         6.42501         6.42501 
        1.77329         30.0161         6.37249         6.37249 
        1.77943         29.9775         6.32053         6.32053 
        1.78557         29.8099         6.26924         6.26924 
        1.79171         29.6719          6.2185          6.2185 
        1.79785         29.5217         6.16833         6.16833 
        1.80399         29.3917         6.11872         6.11872 
        1.81012         29.2895         6.06973         6.06973 
        1.81625         29.0567          6.0213          6.0213 
        1.82239         28.9654         5.97333         5.97333 
        1.82853         28.8302         5.92591         5.92591 
        1.83466         28.6792         5.87905         5.87905 
        1.84078         28.5443         5.83276         5.83276 
        1.84692          28.457         5.78688         5.78688 
        1.85306          28.257         5.74145         5.74145 
         1.8592         28.1998         5.69658         5.69658 
        1.86533         28.0058         5.65222         5.65222 
        1.87147         27.8762         5.60829         5.60829 
        1.87761         27.7606          5.5648          5.5648 
