# k  (h/Mpc)    Pcb(k)  (Mpc/h)^3    Pcb_linear(k) (Mpc/h)^3    Pcb_NL(k) (Mpc/h)^3   ShotnoiseSubtracted = false
     0.00783031         106.693          107.54          107.54 
       0.013688         135.128         136.111         136.111 
       0.019231         139.991         140.353         140.353 
      0.0249154         132.073         132.216         132.216 
      0.0312784         117.135         117.155         117.155 
      0.0375637         102.229         102.233         102.233 
      0.0433917         91.0984         90.9538         90.9538 
      0.0492413         82.5824         82.5458         82.5458 
      0.0555754         76.0637         75.9546         75.9546 
      0.0619321         70.4812         70.6453         70.6453 
       0.067871         65.7638         65.8055         65.8055 
      0.0738098         60.5365         60.5557         60.5557 
      0.0800417         54.6788          54.638          54.638 
      0.0862327         48.8149         48.7975         48.7975 
      0.0921407         43.7816         43.7748         43.7748 
      0.0982031          39.607         39.5404         39.5404 
       0.104506          36.197         36.2228         36.2228 
       0.110769         33.8198         33.8455         33.8455 
       0.116806         32.1235         32.0979         32.0979 
       0.122832         30.4998         30.5422         30.5422 
       0.129052          28.855         28.8613         28.8613 
       0.135211          27.023         27.0034         27.0034 
       0.141259          25.025         25.0367         25.0367 
       0.147318         23.0289         23.0699         23.0699 
       0.153489          21.235         21.2374         21.2374 
       0.159709         19.6992          19.685          19.685 
       0.165845         18.4296         18.4766         18.4766 
       0.171974         17.5635         17.5437         17.5437 
       0.178125         16.7931         16.7861         16.7861 
       0.184229         16.0797         16.1035         16.1035 
        0.19034         15.4216         15.4044         15.4044 
       0.196428         14.6544         14.6523         14.6523 
       0.202534         13.8081         13.8494         13.8494 
       0.208729         13.0263         13.0268         13.0268 
       0.214876         12.2857         12.2553         12.2553 
       0.220989         11.5517         11.5732         11.5732 
       0.227147         11.0212         10.9898         10.9898 
        0.23329         10.5372         10.5047         10.5047 
       0.239377          10.127         10.0943         10.0943 
       0.245482         9.74804         9.72068         9.72068 
       0.251667         9.35692         9.35216         9.35216 
       0.257832         9.00568         8.97707         8.97707 
       0.263955         8.60674          8.5938          8.5938 
       0.270079         8.22086         8.20854         8.20854 
        0.27624         7.82971         7.83334         7.83334 
       0.282372         7.48767         7.48604         7.48604 
        0.28843         7.20363         7.17641         7.17641 
       0.294538         6.92124          6.8988          6.8988 
       0.300721         6.65303         6.64794         6.64794 
        0.30691          6.4425         6.41766         6.41766 
       0.313033          6.2201          6.2012          6.2012 
       0.319153         6.03529         5.98904         5.98904 
       0.325316         5.78355         5.77676         5.77676 
        0.33145         5.57681         5.56736         5.56736 
       0.337538         5.38129         5.36476         5.36476 
       0.343633         5.19574         5.17095         5.17095 
       0.349808         5.00563         4.98687         4.98687 
       0.355968          4.8316         4.81691         4.81691 
       0.362074         4.68558         4.66098         4.66098 
       0.368217         4.53716         4.51472         4.51472 
       0.374374         4.41348         4.37576         4.37576 
       0.380519         4.26343         4.24224         4.24224 
       0.386598         4.12993          4.1137          4.1137 
       0.392688         3.99989         3.98779         3.98779 
        0.39888          3.8831         3.86326         3.86326 
       0.405048         3.76521         3.74357         3.74357 
       0.411186         3.64852         3.62961         3.62961 
       0.417313         3.54362         3.52171         3.52171 
       0.423458         3.43223         3.41928         3.41928 
       0.429607         3.34608         3.32208         3.32208 
       0.435692         3.25662         3.23048         3.23048 
       0.441815         3.16245         3.14201         3.14201 
       0.447964         3.06768         3.05613         3.05613 
       0.454126         2.99471         2.97274         2.97274 
       0.460267         2.92148         2.89219         2.89219 
       0.466387         2.83988         2.81444         2.81444 
        0.47254         2.76734         2.73901         2.73901 
       0.478662         2.69234          2.6669          2.6669 
       0.484765         2.62499         2.59797         2.59797 
       0.490885         2.55459         2.53165         2.53165 
       0.497035         2.48396         2.46764         2.46764 
       0.503198         2.42878         2.40595         2.40595 
       0.509342         2.36322         2.34661         2.34661 
       0.515458         2.31207         2.28944         2.28944 
       0.521598         2.25666         2.23379         2.23379 
       0.527764         2.20849         2.17965         2.17965 
       0.533884         2.14578         2.12765         2.12765 
           0.54         2.09867          2.0774          2.0774 
       0.546137         2.04556         2.02867         2.02867 
       0.552299         2.00153         1.98139         1.98139 
       0.558452         1.95656         1.93581         1.93581 
       0.564573         1.91347         1.89198         1.89198 
       0.570708         1.87067         1.84949         1.84949 
       0.576825         1.82986         1.80844         1.80844 
       0.582926         1.78676         1.76873         1.76873 
       0.589034         1.75425         1.73013         1.73013 
       0.595184         1.71789         1.69241         1.69241 
       0.601379         1.67699         1.65557         1.65557 
       0.607522         1.64018         1.62014         1.62014 
       0.613639         1.60209         1.58593         1.58593 
       0.619772          1.5744         1.55266         1.55266 
       0.625918         1.54134          1.5203          1.5203 
       0.632068         1.51009         1.48887         1.48887 
       0.638161         1.47898         1.45862         1.45862 
         0.6443         1.44856         1.42901         1.42901 
       0.650464         1.42063         1.40013         1.40013 
       0.656582         1.39515         1.37226         1.37226 
       0.662703         1.36689         1.34516         1.34516 
       0.668861         1.33522         1.31864         1.31864 
       0.675024         1.31181         1.29282         1.29282 
       0.681124         1.29453         1.26796         1.26796 
       0.687237          1.2652         1.24372         1.24372 
       0.693381         1.23739         1.22001         1.22001 
       0.699536         1.21976         1.19688         1.19688 
       0.705665         1.19663         1.17447         1.17447 
       0.711789         1.17084         1.15266         1.15266 
       0.717957          1.1509         1.13126         1.13126 
        0.72409         1.12957         1.11053         1.11053 
       0.730186         1.11294         1.09046         1.09046 
       0.736317         1.08976         1.07078         1.07078 
       0.742472         1.07266         1.05152         1.05152 
       0.748622         1.05433         1.03276         1.03276 
        0.75476         1.03385         1.01451         1.01451 
       0.760888         1.01895        0.996723        0.996723 
       0.767043        0.993836        0.979303        0.979303 
       0.773185         0.98033        0.962341        0.962341 
       0.779291        0.967259        0.945883        0.945883 
       0.785407        0.949165        0.929791        0.929791 
       0.791564        0.933078        0.913977        0.913977 
       0.797719        0.917129        0.898544        0.898544 
       0.803834        0.901564        0.883569        0.883569 
       0.809972        0.887443        0.868887        0.868887 
       0.816124        0.872552        0.854511        0.854511 
       0.822261        0.859682        0.840503        0.840503 
       0.828378        0.844442        0.826856        0.826856 
       0.834502        0.831065        0.813504        0.813504 
       0.840667        0.819328        0.800364        0.800364 
       0.846816        0.806092        0.787555        0.787555 
       0.852925        0.791674        0.775111        0.775111 
       0.859047        0.779847        0.762913        0.762913 
       0.865192        0.768334        0.750941        0.750941 
       0.871341        0.757674        0.739221        0.739221 
       0.877463        0.743677        0.727807        0.727807 
       0.883569        0.733154        0.716667        0.716667 
       0.889708        0.723244        0.705706        0.705706 
       0.895864        0.712422        0.694949        0.694949 
       0.902008        0.700497        0.684441        0.684441 
       0.908149        0.691435         0.67416         0.67416 
       0.914301        0.682584        0.664076        0.664076 
       0.920448        0.672273         0.65421         0.65421 
       0.926574        0.663554        0.644582        0.644582 
       0.932687        0.653733         0.63517         0.63517 
       0.938823        0.642247        0.625915        0.625915 
       0.944975        0.634554        0.616825        0.616825 
       0.951105        0.623608        0.607951        0.607951 
       0.957225        0.614819        0.599268        0.599268 
       0.963368        0.607567        0.590728        0.590728 
       0.969511        0.600035        0.582356        0.582356 
       0.975621        0.590253        0.574193        0.574193 
       0.981748        0.580584        0.566167        0.566167 
       0.987916        0.573354        0.558246        0.558246 
        0.99406        0.566657        0.550508        0.550508 
        1.00019        0.558585        0.542933        0.542933 
        1.00632        0.552734         0.53551         0.53551 
        1.01246        0.544882        0.528216        0.528216 
        1.01859        0.537403        0.521071        0.521071 
        1.02471        0.529173        0.514069        0.514069 
        1.03085        0.521608        0.507172        0.507172 
        1.03698        0.516076        0.500418        0.500418 
        1.04314        0.509253         0.49376         0.49376 
        1.04929        0.503764         0.48724         0.48724 
        1.05541        0.495342        0.480865        0.480865 
        1.06154        0.489922         0.47459         0.47459 
        1.06769        0.484091        0.468418        0.468418 
        1.07382        0.477884        0.462377        0.462377 
        1.07993        0.472203        0.456457        0.456457 
        1.08607        0.465698        0.450618        0.450618 
        1.09222        0.459652        0.444876        0.444876 
        1.09836        0.454149        0.439242        0.439242 
        1.10449        0.448094        0.433713        0.433713 
        1.11063        0.442545        0.428274        0.428274 
        1.11677        0.438085        0.422931        0.422931 
         1.1229        0.431236        0.417689        0.417689 
        1.12903        0.426966        0.412533        0.412533 
        1.13518        0.421557        0.407461        0.407461 
        1.14131        0.416967        0.402477        0.402477 
        1.14745         0.41328        0.397581        0.397581 
        1.15359        0.407166        0.392766        0.392766 
        1.15973        0.403067        0.388029        0.388029 
        1.16584        0.397618        0.383393        0.383393 
        1.17197        0.392607        0.378827        0.378827 
        1.17811        0.387817        0.374321        0.374321 
        1.18424         0.38353        0.369903        0.369903 
        1.19038         0.37852        0.365544        0.365544 
        1.19652        0.375729        0.361258        0.361258 
        1.20267        0.371211        0.357041        0.357041 
        1.20881        0.365429        0.352893        0.352893 
        1.21495        0.362017        0.348819        0.348819 
        1.22108         0.35828        0.344809        0.344809 
         1.2272        0.353578        0.340873        0.340873 
        1.23334        0.349894         0.33699         0.33699 
        1.23949        0.346775        0.333159        0.333159 
        1.24562        0.342663        0.329399        0.329399 
        1.25174        0.338876        0.325703        0.325703 
        1.25789        0.334134        0.322052        0.322052 
        1.26402        0.331554        0.318465        0.318465 
        1.27014        0.326953        0.314942        0.314942 
        1.27628        0.324228        0.311461        0.311461 
        1.28244        0.320734        0.308028        0.308028 
        1.28858        0.316679         0.30465         0.30465 
        1.29471        0.313512        0.301332        0.301332 
        1.30084         0.31004        0.298066        0.298066 
        1.30697        0.307565        0.294844        0.294844 
        1.31312        0.304239        0.291666        0.291666 
        1.31925        0.300776        0.288544        0.288544 
        1.32537        0.297683        0.285472        0.285472 
        1.33151        0.294562        0.282434        0.282434 
        1.33765        0.291272        0.279443        0.279443 
        1.34378         0.28789        0.276501        0.276501 
        1.34992        0.286012          0.2736          0.2736 
        1.35606        0.282533        0.270734        0.270734 
         1.3622        0.279742        0.267915        0.267915 
        1.36833        0.277407        0.265144        0.265144 
        1.37445        0.274765        0.262413        0.262413 
        1.38059         0.27161        0.259713        0.259713 
        1.38675        0.268479        0.257044        0.257044 
        1.39288        0.265365        0.254424        0.254424 
        1.39901        0.263701        0.251842        0.251842 
        1.40515        0.260694        0.249291        0.249291 
         1.4113        0.258685        0.246776        0.246776 
        1.41742        0.256094        0.244305        0.244305 
        1.42355        0.252576        0.241864        0.241864 
         1.4297        0.251223         0.23945         0.23945 
        1.43585        0.248128        0.237069        0.237069 
        1.44198        0.246148        0.234731        0.234731 
        1.44809        0.243464        0.232428        0.232428 
        1.45423         0.24129        0.230148        0.230148 
        1.46036        0.238942        0.227903        0.227903 
        1.46649        0.236628        0.225688        0.225688 
        1.47263        0.233686        0.223501        0.223501 
        1.47877        0.232915        0.221343        0.221343 
        1.48491        0.229538        0.219211        0.219211 
        1.49104        0.228551        0.217112        0.217112 
        1.49718        0.225887        0.215039        0.215039 
        1.50333        0.223925         0.21299         0.21299 
        1.50947        0.222013        0.210972        0.210972 
         1.5156         0.21967        0.208984        0.208984 
        1.52172        0.217904        0.207021        0.207021 
        1.52787         0.21525         0.20508         0.20508 
          1.534        0.213931        0.203166        0.203166 
        1.54013        0.211787        0.201279        0.201279 
        1.54627        0.210174        0.199412        0.199412 
        1.55241        0.208045        0.197569        0.197569 
        1.55855        0.206257        0.195752        0.195752 
        1.56467        0.204543        0.193963        0.193963 
         1.5708        0.202483        0.192191        0.192191 
        1.57695         0.20076        0.190439        0.190439 
        1.58308        0.198298        0.188713        0.188713 
        1.58922        0.197278        0.187008        0.187008 
        1.59535        0.195258        0.185324        0.185324 
         1.6015        0.193846        0.183659        0.183659 
        1.60764         0.19188        0.182015        0.182015 
        1.61376         0.19034        0.180396        0.180396 
        1.61989        0.188503        0.178796        0.178796 
        1.62604        0.187028        0.177212        0.177212 
        1.63218        0.185601        0.175648        0.175648 
        1.63831        0.183856        0.174106        0.174106 
        1.64444        0.182298        0.172583        0.172583 
        1.65059        0.180363        0.171074        0.171074 
        1.65673        0.179156        0.169585        0.169585 
        1.66285        0.177905        0.168118        0.168118 
        1.66898        0.175918        0.166669        0.166669 
        1.67512        0.174605        0.165233        0.165233 
        1.68127        0.173063        0.163813        0.163813 
         1.6874        0.171852        0.162414        0.162414 
        1.69353        0.170364        0.161031        0.161031 
        1.69967        0.168646        0.159662        0.159662 
        1.70581        0.167768        0.158309        0.158309 
        1.71193        0.166455        0.156977        0.156977 
        1.71806        0.164779        0.155657        0.155657 
        1.72421        0.163386        0.154351        0.154351 
        1.73035         0.16215         0.15306         0.15306 
        1.73649        0.160896        0.151785        0.151785 
        1.74262        0.159446        0.150526        0.150526 
        1.74876        0.158435         0.14928         0.14928 
        1.75489         0.15697        0.148051        0.148051 
        1.76101        0.155766        0.146836        0.146836 
        1.76715        0.154689        0.145634        0.145634 
        1.77329        0.153142        0.144443        0.144443 
        1.77943         0.15194        0.143266        0.143266 
        1.78557        0.151137        0.142103        0.142103 
        1.79171        0.149852        0.140953        0.140953 
        1.79785        0.148392        0.139816        0.139816 
        1.80399        0.147099        0.138691        0.138691 
        1.81012        0.146283        0.137581        0.137581 
        1.81625        0.145201        0.136483        0.136483 
        1.82239        0.144294        0.135396        0.135396 
        1.82853        0.142841        0.134321        0.134321 
        1.83466        0.141749        0.133259        0.133259 
        1.84078        0.140758        0.132209        0.132209 
        1.84692        0.139706         0.13117         0.13117 
        1.85306         0.13867         0.13014         0.13014 
         1.8592        0.137676        0.129123        0.129123 
        1.86533        0.136683        0.128117        0.128117 
        1.87147        0.135544        0.127121        0.127121 
