# k  (h/Mpc)    P(k)  (Mpc/h)^3    P_linear(k)  (Mpc/h)^3     P_NL(k)  ShotnoiseSubtracted = false
     0.00783031          164.97         166.262         166.262 
       0.013688          208.81         210.412         210.412 
       0.019231         216.356          216.96          216.96 
      0.0249154         204.197         204.379         204.379 
      0.0312784         181.051         181.095         181.095 
      0.0375637         157.979         158.029         158.029 
      0.0433917         140.822         140.593         140.593 
      0.0492413         127.629         127.596         127.596 
      0.0555754          117.59         117.407         117.407 
      0.0619321         108.879           109.2           109.2 
       0.067871          101.64         101.719         101.719 
      0.0738098         93.5704          93.604          93.604 
      0.0800417         84.5313         84.4567         84.4567 
      0.0862327         75.4508         75.4287         75.4287 
      0.0921407         67.6664         67.6647         67.6647 
      0.0982031          61.232         61.1194         61.1194 
       0.104506         55.9304         55.9912         55.9912 
       0.110769         52.2616         52.3166         52.3166 
       0.116806         49.6662         49.6152         49.6152 
       0.122832         47.1336         47.2105         47.2105 
       0.129052         44.6057         44.6123         44.6123 
       0.135211         41.7853         41.7404         41.7404 
       0.141259         38.6834         38.7003         38.7003 
       0.147318         35.5838         35.6601         35.6601 
       0.153489         32.8238         32.8275         32.8275 
       0.159709         30.4593         30.4281         30.4281 
       0.165845         28.4733         28.5601         28.5601 
       0.171974         27.1633         27.1181         27.1181 
       0.178125         25.9697          25.947          25.947 
       0.184229         24.8543         24.8919         24.8919 
        0.19034         23.8522         23.8113         23.8113 
       0.196428         22.6633         22.6487         22.6487 
       0.202534         21.3375         21.4075         21.4075 
       0.208729         20.1457         20.1361         20.1361 
       0.214876         19.0122         18.9436         18.9436 
       0.220989         17.8571         17.8891         17.8891 
       0.227147         17.0581         16.9875         16.9875 
        0.23329         16.3114         16.2376         16.2376 
       0.239377         15.6795         15.6032         15.6032 
       0.245482         15.0888         15.0257         15.0257 
       0.251667         14.4768          14.456          14.456 
       0.257832         13.9454         13.8763         13.8763 
       0.263955         13.3201         13.2838         13.2838 
       0.270079         12.7238         12.6883         12.6883 
        0.27624         12.1136         12.1083         12.1083 
       0.282372         11.5874         11.5715         11.5715 
        0.28843         11.1599         11.0929         11.0929 
       0.294538         10.7206         10.6638         10.6638 
       0.300721         10.2992          10.276          10.276 
        0.30691         9.98173         9.92006         9.92006 
       0.313033         9.63473         9.58547         9.58547 
       0.319153         9.35882         9.25751         9.25751 
       0.325316         8.95622         8.92939         8.92939 
        0.33145         8.63659         8.60571         8.60571 
       0.337538         8.33721         8.29253         8.29253 
       0.343633         8.05319         7.99296         7.99296 
       0.349808         7.75747         7.70843         7.70843 
       0.355968         7.48681         7.44571         7.44571 
       0.362074         7.26596         7.20467         7.20467 
       0.368217         7.03545         6.97859         6.97859 
       0.374374         6.84977          6.7638          6.7638 
       0.380519         6.61076         6.55741         6.55741 
       0.386598         6.40248         6.35874         6.35874 
       0.392688         6.20022         6.16409         6.16409 
        0.39888         6.02306         5.97161         5.97161 
       0.405048         5.84203         5.78659         5.78659 
       0.411186         5.66042         5.61045         5.61045 
       0.417313         5.49824         5.44365         5.44365 
       0.423458         5.32293         5.28532         5.28532 
       0.429607         5.19414         5.13508         5.13508 
       0.435692         5.05755         4.99349         4.99349 
       0.441815         4.90788         4.85674         4.85674 
       0.447964         4.75836           4.724           4.724 
       0.454126         4.64929          4.5951          4.5951 
       0.460267         4.54008         4.47058         4.47058 
       0.466387         4.41126          4.3504          4.3504 
        0.47254         4.30117          4.2338          4.2338 
       0.478662         4.18365         4.12233         4.12233 
       0.484765         4.07957         4.01579         4.01579 
       0.490885          3.9687         3.91328         3.91328 
       0.497035         3.85837         3.81434         3.81434 
       0.503198         3.77495         3.71899         3.71899 
       0.509342         3.67114         3.62726         3.62726 
       0.515458         3.59437         3.53889         3.53889 
       0.521598         3.50874         3.45287         3.45287 
       0.527764         3.43644         3.36918         3.36918 
       0.533884         3.33549         3.28879         3.28879 
           0.54         3.26375         3.21113         3.21113 
       0.546137         3.17932          3.1358          3.1358 
       0.552299         3.11251         3.06272         3.06272 
       0.558452         3.04258         2.99226         2.99226 
       0.564573         2.97697         2.92452         2.92452 
       0.570708         2.91054         2.85884         2.85884 
       0.576825         2.84737         2.79539         2.79539 
       0.582926         2.77991           2.734           2.734 
       0.589034         2.73046         2.67433         2.67433 
       0.595184         2.67564         2.61603         2.61603 
       0.601379         2.61021         2.55908         2.55908 
       0.607522         2.55343         2.50432         2.50432 
       0.613639         2.49322         2.45144         2.45144 
       0.619772          2.4517         2.40001         2.40001 
       0.625918         2.40009         2.34999         2.34999 
       0.632068         2.35279         2.30141         2.30141 
       0.638161         2.30383         2.25466         2.25466 
         0.6443         2.25639         2.20889         2.20889 
       0.650464         2.21233         2.16424         2.16424 
       0.656582         2.17501         2.12117         2.12117 
       0.662703         2.13109         2.07927         2.07927 
       0.668861         2.08003         2.03827         2.03827 
       0.675024          2.0442         1.99837         1.99837 
       0.681124         2.02074         1.95994         1.95994 
       0.687237         1.97358         1.92247         1.92247 
       0.693381         1.92841         1.88582         1.88582 
       0.699536         1.90293         1.85007         1.85007 
       0.705665         1.86686         1.81542         1.81542 
       0.711789         1.82561         1.78171         1.78171 
       0.717957          1.7944         1.74863         1.74863 
        0.72409         1.76214          1.7166          1.7166 
       0.730186         1.73762         1.68557         1.68557 
       0.736317         1.70057         1.65515         1.65515 
       0.742472         1.67482         1.62538         1.62538 
       0.748622         1.64655         1.59638         1.59638 
        0.75476         1.61307         1.56816         1.56816 
       0.760888         1.59108         1.54068         1.54068 
       0.767043         1.55014         1.51375         1.51375 
       0.773185         1.52995         1.48753         1.48753 
       0.779291         1.51158         1.46209         1.46209 
       0.785407         1.48245         1.43722         1.43722 
       0.791564         1.45755         1.41277         1.41277 
       0.797719         1.43267         1.38892         1.38892 
       0.803834         1.40855         1.36577         1.36577 
       0.809972          1.3863         1.34308         1.34308 
       0.816124         1.36326         1.32085         1.32085 
       0.822261         1.34355          1.2992          1.2992 
       0.828378         1.31952         1.27811         1.27811 
       0.834502         1.29894         1.25747         1.25747 
       0.840667         1.28118         1.23716         1.23716 
       0.846816         1.26017         1.21736         1.21736 
       0.852925         1.23759         1.19812         1.19812 
       0.859047         1.21929         1.17927         1.17927 
       0.865192         1.20121         1.16076         1.16076 
       0.871341         1.18482         1.14265         1.14265 
       0.877463         1.16286           1.125           1.125 
       0.883569         1.14648         1.10778         1.10778 
       0.889708         1.13159         1.09084         1.09084 
       0.895864         1.11471         1.07421         1.07421 
       0.902008         1.09537         1.05797         1.05797 
       0.908149         1.08171         1.04208         1.04208 
       0.914301         1.06812         1.02649         1.02649 
       0.920448         1.05228         1.01124         1.01124 
       0.926574         1.03935        0.996358        0.996358 
       0.932687         1.02354         0.98181         0.98181 
       0.938823         1.00511        0.967503        0.967503 
       0.944975        0.993743        0.953453        0.953453 
       0.951105        0.975823        0.939735        0.939735 
       0.957225        0.962672        0.926315        0.926315 
       0.963368        0.951814        0.913114        0.913114 
       0.969511        0.940121        0.900172        0.900172 
       0.975621         0.92436        0.887555        0.887555 
       0.981748        0.908731        0.875149        0.875149 
       0.987916        0.897858        0.862905        0.862905 
        0.99406        0.887964        0.850944        0.850944 
        1.00019         0.87529        0.839236        0.839236 
        1.00632         0.86654        0.827761        0.827761 
        1.01246        0.853926        0.816486        0.816486 
        1.01859        0.842455        0.805442        0.805442 
        1.02471        0.828972        0.794618        0.794618 
        1.03085        0.817549        0.783958        0.783958 
        1.03698        0.809034        0.773518        0.773518 
        1.04314        0.798489        0.763226        0.763226 
        1.04929        0.790112        0.753148        0.753148 
        1.05541        0.776476        0.743293        0.743293 
        1.06154        0.768455        0.733593        0.733593 
        1.06769         0.75949        0.724053        0.724053 
        1.07382        0.749495        0.714716        0.714716 
        1.07993        0.740524        0.705566        0.705566 
        1.08607        0.730943         0.69654         0.69654 
        1.09222        0.720899        0.687664        0.687664 
        1.09836        0.713045        0.678955        0.678955 
        1.10449        0.702851        0.670408        0.670408 
        1.11063        0.694226        0.662001        0.662001 
        1.11677         0.68745        0.653742        0.653742 
         1.1229        0.676408        0.645641        0.645641 
        1.12903        0.670304         0.63767         0.63767 
        1.13518        0.661405         0.62983         0.62983 
        1.14131        0.654463        0.622126        0.622126 
        1.14745         0.64868        0.614558        0.614558 
        1.15359         0.63913        0.607115        0.607115 
        1.15973        0.632745        0.599794        0.599794 
        1.16584         0.62405        0.592627        0.592627 
        1.17197        0.616278        0.585569        0.585569 
        1.17811        0.608834        0.578605        0.578605 
        1.18424        0.602175        0.571775        0.571775 
        1.19038        0.594224        0.565038        0.565038 
        1.19652        0.590067        0.558412        0.558412 
        1.20267        0.583371        0.551894        0.551894 
        1.20881        0.573873        0.545482        0.545482 
        1.21495        0.568861        0.539184        0.539184 
        1.22108        0.562868        0.532987        0.532987 
         1.2272        0.555218        0.526902        0.526902 
        1.23334        0.549735          0.5209          0.5209 
        1.23949        0.544936        0.514978        0.514978 
        1.24562        0.538417        0.509166        0.509166 
        1.25174         0.53255        0.503452        0.503452 
        1.25789        0.525029         0.49781         0.49781 
        1.26402        0.520805        0.492265        0.492265 
        1.27014        0.513535        0.486819        0.486819 
        1.27628        0.509612        0.481439        0.481439 
        1.28244        0.504125        0.476131        0.476131 
        1.28858        0.497628        0.470911        0.470911 
        1.29471        0.492633        0.465781        0.465781 
        1.30084        0.487398        0.460734        0.460734 
        1.30697        0.483735        0.455753        0.455753 
        1.31312        0.478233         0.45084         0.45084 
        1.31925         0.47289        0.446016        0.446016 
        1.32537        0.468095        0.441267        0.441267 
        1.33151        0.463123        0.436571        0.436571 
        1.33765        0.458059        0.431947        0.431947 
        1.34378        0.452584        0.427399        0.427399 
        1.34992        0.449886        0.422915        0.422915 
        1.35606        0.444296        0.418486        0.418486 
         1.3622            0.44        0.414128        0.414128 
        1.36833        0.436328        0.409844        0.409844 
        1.37445        0.432096        0.405623        0.405623 
        1.38059        0.427266        0.401449        0.401449 
        1.38675        0.422476        0.397324        0.397324 
        1.39288        0.417585        0.393274        0.393274 
        1.39901        0.414835        0.389283        0.389283 
        1.40515        0.410179        0.385339        0.385339 
         1.4113         0.40734        0.381452        0.381452 
        1.41742         0.40292        0.377633        0.377633 
        1.42355         0.39731         0.37386         0.37386 
         1.4297        0.395449        0.370128        0.370128 
        1.43585        0.390458        0.366448        0.366448 
        1.44198        0.387393        0.362833        0.362833 
        1.44809        0.383054        0.359274        0.359274 
        1.45423        0.379867         0.35575         0.35575 
        1.46036        0.376088         0.35228         0.35228 
        1.46649        0.372544        0.348856        0.348856 
        1.47263        0.367941        0.345474        0.345474 
        1.47877        0.366822         0.34214         0.34214 
        1.48491        0.361228        0.338844        0.338844 
        1.49104        0.359962          0.3356          0.3356 
        1.49718        0.355411        0.332395        0.332395 
        1.50333        0.352645        0.329228        0.329228 
        1.50947         0.34965        0.326109        0.326109 
         1.5156        0.345983        0.323035        0.323035 
        1.52172        0.343249        0.320001        0.320001 
        1.52787        0.338966        0.317001        0.317001 
          1.534        0.337031        0.314042        0.314042 
        1.54013        0.333715        0.311125        0.311125 
        1.54627        0.330975         0.30824         0.30824 
        1.55241        0.327605        0.305391        0.305391 
        1.55855        0.324814        0.302582        0.302582 
        1.56467         0.32223        0.299817        0.299817 
         1.5708        0.318921        0.297078        0.297078 
        1.57695        0.316115         0.29437         0.29437 
        1.58308        0.312326        0.291702        0.291702 
        1.58922        0.310809        0.289066        0.289066 
        1.59535        0.307542        0.286464        0.286464 
         1.6015        0.305207         0.28389         0.28389 
        1.60764        0.302324        0.281349        0.281349 
        1.61376        0.299838        0.278846        0.278846 
        1.61989        0.296975        0.276373        0.276373 
        1.62604        0.294556        0.273924        0.273924 
        1.63218        0.292468        0.271506        0.271506 
        1.63831        0.289531        0.269123        0.269123 
        1.64444        0.287284        0.266768        0.266768 
        1.65059        0.284223        0.264437        0.264437 
        1.65673        0.282265        0.262135        0.262135 
        1.66285        0.280278        0.259868        0.259868 
        1.66898        0.277322        0.257627        0.257627 
        1.67512        0.275003        0.255408        0.255408 
        1.68127        0.272533        0.253213        0.253213 
         1.6874        0.270794         0.25105         0.25105 
        1.69353         0.26837        0.248913        0.248913 
        1.69967        0.265846        0.246796        0.246796 
        1.70581        0.264298        0.244705        0.244705 
        1.71193        0.262366        0.242646        0.242646 
        1.71806        0.259754        0.240606        0.240606 
        1.72421        0.257501        0.238586        0.238586 
        1.73035        0.255369        0.236592        0.236592 
        1.73649        0.253768        0.234621        0.234621 
        1.74262        0.251187        0.232675        0.232675 
        1.74876        0.249728        0.230749        0.230749 
        1.75489        0.247525        0.228849        0.228849 
        1.76101        0.245433        0.226971        0.226971 
        1.76715        0.243734        0.225112        0.225112 
        1.77329        0.241391        0.223272        0.223272 
        1.77943        0.239494        0.221452        0.221452 
        1.78557        0.238332        0.219654        0.219654 
        1.79171        0.236278        0.217877        0.217877 
        1.79785        0.233992        0.216119        0.216119 
        1.80399         0.23176        0.214381        0.214381 
        1.81012        0.230605        0.212664        0.212664 
        1.81625        0.229026        0.210968        0.210968 
        1.82239        0.227535        0.209287        0.209287 
        1.82853        0.225195        0.207625        0.207625 
        1.83466        0.223452        0.205984        0.205984 
        1.84078        0.221734        0.204362        0.204362 
        1.84692        0.220178        0.202754        0.202754 
        1.85306        0.218564        0.201163        0.201163 
         1.8592        0.216988        0.199591        0.199591 
        1.86533        0.215501        0.198036        0.198036 
        1.87147        0.213584        0.196497        0.196497 
        1.87761        0.211838        0.194973        0.194973 
