# k  (h/Mpc)    Pcb(k)  (Mpc/h)^3    Pcb_linear(k) (Mpc/h)^3    Pcb_NL(k) (Mpc/h)^3   ShotnoiseSubtracted = false
     0.00783031         3984.38         4008.53         4008.53 
       0.013688         4989.34         5069.06         5069.06 
       0.019231         5184.47         5225.28         5225.28 
      0.0249154         4928.36         4921.51         4921.51 
      0.0312784         4344.25          4360.4          4360.4 
      0.0375637         3775.52         3804.78         3804.78 
      0.0433917         3383.38         3384.86         3384.86 
      0.0492413         3054.26         3071.87         3071.87 
      0.0555754          2825.7         2826.53         2826.53 
      0.0619321         2580.65         2628.91         2628.91 
       0.067871         2427.86         2448.78         2448.78 
      0.0738098         2242.46          2253.4          2253.4 
      0.0800417          2031.2         2033.17         2033.17 
      0.0862327         1809.35         1815.83         1815.83 
      0.0921407         1625.53         1628.91         1628.91 
      0.0982031         1480.52         1471.34         1471.34 
       0.104506         1342.31         1347.88         1347.88 
       0.110769         1256.86         1259.42         1259.42 
       0.116806         1206.09         1194.39         1194.39 
       0.122832         1135.84          1136.5          1136.5 
       0.129052         1078.19         1073.95         1073.95 
       0.135211         1020.24         1004.81         1004.81 
       0.141259         940.684         931.627         931.627 
       0.147318         861.115          858.44          858.44 
       0.153489         801.614         790.251         790.251 
       0.159709         754.453         732.487         732.487 
       0.165845         695.756          687.52          687.52 
       0.171974         677.241         652.806         652.806 
       0.178125         649.634         624.615         624.615 
       0.184229         612.519         599.215         599.215 
        0.19034         594.682         573.203         573.203 
       0.196428          569.12         545.216         545.216 
       0.202534          529.89         515.337         515.337 
       0.208729         511.303          484.73          484.73 
       0.214876         487.604         456.022         456.022 
       0.220989         453.469         430.639         430.639 
       0.227147         441.982         408.933         408.933 
        0.23329         425.281         390.881         390.881 
       0.239377         413.972          375.61          375.61 
       0.245482         394.706         361.708         361.708 
       0.251667         378.525         347.995         347.995 
       0.257832         372.282         334.038         334.038 
       0.263955         351.456         319.776         319.776 
       0.270079         337.746          305.44          305.44 
        0.27624         322.112         291.479         291.479 
       0.282372          312.15         278.556         278.556 
        0.28843         308.378         267.034         267.034 
       0.294538         294.024         256.705         256.705 
       0.300721         282.535          247.37          247.37 
        0.30691         277.848         238.801         238.801 
       0.313033         266.517         230.747         230.747 
       0.319153         261.687         222.852         222.852 
       0.325316         252.597         214.953         214.953 
        0.33145         245.151         207.162         207.162 
       0.337538         237.001         199.623         199.623 
       0.343633          229.44         192.411         192.411 
       0.349808          222.63         185.561         185.561 
       0.355968         216.961         179.237         179.237 
       0.362074         212.213         173.435         173.435 
       0.368217         207.827         167.992         167.992 
       0.374374         203.137         162.822         162.822 
       0.380519         194.686         157.854         157.854 
       0.386598         190.609         153.071         153.071 
       0.392688         185.435         148.385         148.385 
        0.39888         181.735         143.752         143.752 
       0.405048         177.727         139.298         139.298 
       0.411186         174.635         135.058         135.058 
       0.417313         170.299         131.042         131.042 
       0.423458          165.98         127.231         127.231 
       0.429607         162.764         123.614         123.614 
       0.435692         159.852         120.206         120.206 
       0.441815         155.431         116.914         116.914 
       0.447964         150.829         113.719         113.719 
       0.454126          148.11         110.616         110.616 
       0.460267          146.84         107.618         107.618 
       0.466387          143.45         104.725         104.725 
        0.47254         141.714         101.918         101.918 
       0.478662         136.921          99.235          99.235 
       0.484765         134.943         96.6701         96.6701 
       0.490885         132.054         94.2026         94.2026 
       0.497035         130.951         91.8209         91.8209 
       0.503198         127.981         89.5254         89.5254 
       0.509342         124.741         87.3173         87.3173 
       0.515458         123.264           85.19           85.19 
       0.521598         120.274         83.1192         83.1192 
       0.527764         118.991         81.1046         81.1046 
       0.533884         117.978         79.1696         79.1696 
           0.54         114.856            77.3            77.3 
       0.546137         112.068         75.4865         75.4865 
       0.552299         110.565         73.7273         73.7273 
       0.558452         108.491         72.0312         72.0312 
       0.564573         108.007         70.4006         70.4006 
       0.570708         104.882         68.8194         68.8194 
       0.576825         103.796          67.292          67.292 
       0.582926         102.617         65.8143         65.8143 
       0.589034         100.844         64.3779         64.3779 
       0.595184         99.5789         62.9744         62.9744 
       0.601379         97.0895         61.6035         61.6035 
       0.607522          95.693         60.2852         60.2852 
       0.613639         94.7963         59.0123         59.0123 
       0.619772         93.1628         57.7742         57.7742 
       0.625918         92.0712         56.5702         56.5702 
       0.632068         90.6816         55.4007         55.4007 
       0.638161         89.0627         54.2753         54.2753 
         0.6443         88.4774         53.1735         53.1735 
       0.650464         86.6156         52.0987         52.0987 
       0.656582         86.2434         51.0618         51.0618 
       0.662703         85.1044         50.0531         50.0531 
       0.668861         83.2227         49.0663         49.0663 
       0.675024         82.9785         48.1056         48.1056 
       0.681124          81.746         47.1807         47.1807 
       0.687237         80.1228         46.2787         46.2787 
       0.693381         79.5851         45.3963         45.3963 
       0.699536         78.6933         44.5358         44.5358 
       0.705665         77.4117         43.7018         43.7018 
       0.711789          76.314         42.8902         42.8902 
       0.717957         75.3343          42.094          42.094 
        0.72409         74.6878         41.3228         41.3228 
       0.730186         74.1822         40.5759         40.5759 
       0.736317         72.8422         39.8436         39.8436 
       0.742472         72.0432          39.127          39.127 
       0.748622         70.9336         38.4289         38.4289 
        0.75476           70.08         37.7496         37.7496 
       0.760888         69.8999          37.088          37.088 
       0.767043         68.5545         36.4398         36.4398 
       0.773185         67.8428         35.8086         35.8086 
       0.779291         67.0388         35.1962         35.1962 
       0.785407         66.0797         34.5974         34.5974 
       0.791564         66.0807          34.009          34.009 
       0.797719         65.0975         33.4347         33.4347 
       0.803834         64.4737         32.8775         32.8775 
       0.809972         63.8038         32.3312         32.3312 
       0.816124           63.12         31.7962         31.7962 
       0.822261         62.2887          31.275          31.275 
       0.828378         62.0309         30.7672         30.7672 
       0.834502         61.1777         30.2704         30.2704 
       0.840667         60.7489         29.7815         29.7815 
       0.846816         59.8814         29.3048         29.3048 
       0.852925         59.5008         28.8418         28.8418 
       0.859047         59.1789         28.3879         28.3879 
       0.865192         58.1794         27.9424         27.9424 
       0.871341         57.5803         27.5063         27.5063 
       0.877463         57.1745         27.0816         27.0816 
       0.883569         56.9407         26.6671         26.6671 
       0.889708         56.3104         26.2592         26.2592 
       0.895864         55.7489          25.859          25.859 
       0.902008         55.1492          25.468          25.468 
       0.908149         54.6961         25.0854         25.0854 
       0.914301         54.3051         24.7102         24.7102 
       0.920448         53.9163         24.3431         24.3431 
       0.926574         52.9621         23.9848         23.9848 
       0.932687          52.681         23.6346         23.6346 
       0.938823         52.1449         23.2902         23.2902 
       0.944975         51.6331          22.952          22.952 
       0.951105         51.2275         22.6218         22.6218 
       0.957225         51.0089         22.2987         22.2987 
       0.963368         50.4263         21.9809         21.9809 
       0.969511          50.011         21.6694         21.6694 
       0.975621         49.6316         21.3656         21.3656 
       0.981748         49.0863          21.067          21.067 
       0.987916         48.7534         20.7723         20.7723 
        0.99406         48.3155         20.4843         20.4843 
        1.00019         47.9461         20.2025         20.2025 
        1.00632         47.5713         19.9263         19.9263 
        1.01246         47.2012         19.6548         19.6548 
        1.01859         46.8282          19.389          19.389 
        1.02471         46.3158         19.1284         19.1284 
        1.03085         46.1424         18.8718         18.8718 
        1.03698          45.785         18.6205         18.6205 
        1.04314         45.4474         18.3727         18.3727 
        1.04929         44.9259         18.1301         18.1301 
        1.05541         44.7475         17.8929         17.8929 
        1.06154         44.5024         17.6594         17.6594 
        1.06769         43.8274         17.4298         17.4298 
        1.07382         43.6875          17.205          17.205 
        1.07993         43.3235         16.9847         16.9847 
        1.08607         43.0124         16.7674         16.7674 
        1.09222         42.7626         16.5538         16.5538 
        1.09836         42.3655         16.3441         16.3441 
        1.10449         42.1757         16.1384         16.1384 
        1.11063         41.7636          15.936          15.936 
        1.11677          41.713         15.7372         15.7372 
         1.1229         41.2564         15.5422         15.5422 
        1.12903         41.0286         15.3503         15.3503 
        1.13518         40.8938         15.1616         15.1616 
        1.14131         40.4475         14.9761         14.9761 
        1.14745         40.0298         14.7939         14.7939 
        1.15359         39.6909         14.6148         14.6148 
        1.15973         39.5465         14.4385         14.4385 
        1.16584         39.2765          14.266          14.266 
        1.17197         38.8017         14.0961         14.0961 
        1.17811         38.6655         13.9284         13.9284 
        1.18424         38.2039          13.764          13.764 
        1.19038         38.1018         13.6019         13.6019 
        1.19652         37.8605         13.4424         13.4424 
        1.20267         37.6533         13.2855         13.2855 
        1.20881         37.3805         13.1311         13.1311 
        1.21495         37.1781         12.9795         12.9795 
        1.22108          37.057         12.8303         12.8303 
         1.2272         36.7665         12.6838         12.6838 
        1.23334         36.5117         12.5394         12.5394 
        1.23949         36.2429         12.3968         12.3968 
        1.24562         35.9148         12.2569         12.2569 
        1.25174         35.7402         12.1193         12.1193 
        1.25789         35.6697         11.9835         11.9835 
        1.26402         35.4066           11.85           11.85 
        1.27014         35.1635         11.7189         11.7189 
        1.27628         34.8318         11.5894         11.5894 
        1.28244         34.7869         11.4617         11.4617 
        1.28858         34.4618          11.336          11.336 
        1.29471         34.2694         11.2125         11.2125 
        1.30084         34.0006          11.091          11.091 
        1.30697         33.8693         10.9711         10.9711 
        1.31312         33.5803         10.8528         10.8528 
        1.31925         33.3499         10.7367         10.7367 
        1.32537          33.166         10.6224         10.6224 
        1.33151         32.9527         10.5093         10.5093 
        1.33765         32.8699          10.398          10.398 
        1.34378         32.6919         10.2886         10.2886 
        1.34992         32.4496         10.1806         10.1806 
        1.35606         32.2611          10.074          10.074 
         1.3622         32.0117         9.96909         9.96909 
        1.36833         31.8854         9.86595         9.86595 
        1.37445         31.6724         9.76434         9.76434 
        1.38059         31.5019         9.66387         9.66387 
        1.38675         31.2334         9.56458         9.56458 
        1.39288          31.128         9.46709         9.46709 
        1.39901         30.9199         9.37101         9.37101 
        1.40515         30.7849         9.27607         9.27607 
         1.4113         30.7096         9.18248         9.18248 
        1.41742         30.5243         9.09056         9.09056 
        1.42355         30.2405         8.99973         8.99973 
         1.4297         30.0618         8.90988         8.90988 
        1.43585         29.8757         8.82131         8.82131 
        1.44198         29.7749         8.73429         8.73429 
        1.44809         29.5973         8.64861         8.64861 
        1.45423         29.4616         8.56378         8.56378 
        1.46036         29.2935         8.48025         8.48025 
        1.46649         29.1264         8.39781         8.39781 
        1.47263         28.9365         8.31642         8.31642 
        1.47877         28.8321         8.23614         8.23614 
        1.48491         28.6968         8.15682         8.15682 
        1.49104         28.4747         8.07871         8.07871 
        1.49718         28.3865         8.00157         8.00157 
        1.50333         28.2826         7.92533         7.92533 
        1.50947          28.077         7.85024         7.85024 
         1.5156         27.9251         7.77625         7.77625 
        1.52172         27.7289         7.70322         7.70322 
        1.52787         27.6045         7.63098         7.63098 
          1.534         27.4979         7.55977         7.55977 
        1.54013         27.4032         7.48954         7.48954 
        1.54627         27.1549         7.42009         7.42009 
        1.55241         27.0401          7.3515          7.3515 
        1.55855         26.9327         7.28389         7.28389 
        1.56467         26.8531         7.21732         7.21732 
         1.5708         26.6741          7.1514          7.1514 
        1.57695         26.5446         7.08622         7.08622 
        1.58308         26.3045         7.02199         7.02199 
        1.58922         26.1844         6.95853         6.95853 
        1.59535         26.0968         6.89588         6.89588 
         1.6015          25.961         6.83392         6.83392 
        1.60764          25.855         6.77276         6.77276 
        1.61376         25.7233         6.71252         6.71252 
        1.61989         25.5278         6.65297         6.65297 
        1.62604         25.4412         6.59401         6.59401 
        1.63218         25.3265         6.53581         6.53581 
        1.63831         25.1924         6.47846         6.47846 
        1.64444         25.0696         6.42177         6.42177 
        1.65059         24.9381         6.36564         6.36564 
        1.65673         24.8548         6.31024         6.31024 
        1.66285         24.7066         6.25566         6.25566 
        1.66898         24.5944         6.20171         6.20171 
        1.67512         24.5296          6.1483          6.1483 
        1.68127          24.387         6.09547         6.09547 
         1.6874         24.2718         6.04339         6.04339 
        1.69353         24.1151         5.99194         5.99194 
        1.69967         24.0075         5.94098         5.94098 
        1.70581         23.8714         5.89064         5.89064 
        1.71193         23.7073         5.84108         5.84108 
        1.71806         23.6748         5.79198         5.79198 
        1.72421         23.5864         5.74336         5.74336 
        1.73035         23.4254         5.69535         5.69535 
        1.73649         23.3114         5.64791         5.64791 
        1.74262         23.1865         5.60105         5.60105 
        1.74876         23.0817         5.55469         5.55469 
        1.75489         23.0016         5.50896         5.50896 
        1.76101         22.8813         5.46376         5.46376 
        1.76715         22.7957         5.41901         5.41901 
        1.77329         22.6541         5.37471         5.37471 
        1.77943         22.5801         5.33089         5.33089 
        1.78557         22.4794         5.28762         5.28762 
        1.79171         22.3392         5.24483         5.24483 
        1.79785         22.2525         5.20251         5.20251 
        1.80399         22.1476         5.16067         5.16067 
        1.81012         22.0804         5.11935         5.11935 
        1.81625         21.9249         5.07851         5.07851 
        1.82239         21.8397         5.03805         5.03805 
        1.82853         21.7463         4.99805         4.99805 
        1.83466         21.6241         4.95853         4.95853 
        1.84078         21.5589         4.91948         4.91948 
        1.84692         21.4972          4.8808          4.8808 
        1.85306         21.3596         4.84248         4.84248 
         1.8592         21.2973         4.80463         4.80463 
        1.86533         21.0995         4.76722         4.76722 
        1.87147          21.029         4.73016         4.73016 
