# k  (h/Mpc)    P(k)  (Mpc/h)^3    P_linear(k)  (Mpc/h)^3     P_NL(k)  ShotnoiseSubtracted = false
     0.00783031         9133.55         9181.07         9181.07 
       0.013688         11359.9         11611.1         11611.1 
       0.019231         11822.4         11968.6         11968.6 
      0.0249154         11284.5         11272.5         11272.5 
      0.0312784         9901.69         9987.04         9987.04 
      0.0375637         8582.14          8714.3          8714.3 
      0.0433917         7710.05         7752.44         7752.44 
      0.0492413         6943.24         7035.53         7035.53 
      0.0555754         6427.75         6473.57         6473.57 
      0.0619321         5822.41         6020.93         6020.93 
       0.067871         5493.87         5608.36         5608.36 
      0.0738098          5090.6         5160.87         5160.87 
      0.0800417         4612.28         4656.49         4656.49 
      0.0862327         4109.68         4158.69         4158.69 
      0.0921407         3704.62         3730.61         3730.61 
      0.0982031         3389.22         3369.72         3369.72 
       0.104506         3065.79         3086.98         3086.98 
       0.110769         2873.87         2884.37         2884.37 
       0.116806         2766.84         2735.43         2735.43 
       0.122832          2601.6         2602.84         2602.84 
       0.129052         2463.64         2459.59         2459.59 
       0.135211            2353         2301.25         2301.25 
       0.141259          2166.1         2133.64         2133.64 
       0.147318          1986.5         1966.02         1966.02 
       0.153489         1860.99         1809.85         1809.85 
       0.159709         1773.19         1677.56         1677.56 
       0.165845         1628.87         1574.57         1574.57 
       0.171974         1594.95         1495.07         1495.07 
       0.178125         1540.46         1430.51         1430.51 
       0.184229         1434.23         1372.33         1372.33 
        0.19034          1403.4         1312.76         1312.76 
       0.196428         1353.74         1248.66         1248.66 
       0.202534         1261.46         1180.23         1180.23 
       0.208729         1230.42         1110.14         1110.14 
       0.214876         1174.64         1044.39         1044.39 
       0.220989         1102.76         986.255         986.255 
       0.227147         1077.22         936.544         936.544 
        0.23329         1037.69         895.203         895.203 
       0.239377         1023.85         860.229         860.229 
       0.245482         974.503         828.388         828.388 
       0.251667         937.649         796.983         796.983 
       0.257832         925.513         765.018         765.018 
       0.263955         877.004         732.355         732.355 
       0.270079         848.237         699.523         699.523 
        0.27624         811.666         667.549         667.549 
       0.282372         795.996         637.953         637.953 
        0.28843         788.042         611.566         611.566 
       0.294538         748.746         587.907         587.907 
       0.300721         728.627         566.529         566.529 
        0.30691         715.982         546.906         546.906 
       0.313033         685.858         528.459         528.459 
       0.319153         675.351         510.378         510.378 
       0.325316         663.815         492.289         492.289 
        0.33145         649.076         474.444         474.444 
       0.337538         625.998         457.178         457.178 
       0.343633         608.007         440.662         440.662 
       0.349808         593.937         424.975         424.975 
       0.355968         582.748         410.491         410.491 
       0.362074         564.329         397.202         397.202 
       0.368217         560.904         384.738         384.738 
       0.374374         550.757         372.897         372.897 
       0.380519         529.501         361.518         361.518 
       0.386598         523.615         350.565         350.565 
       0.392688         512.143         339.834         339.834 
        0.39888         498.694         329.222         329.222 
       0.405048         490.049         319.022         319.022 
       0.411186         487.815         309.311         309.311 
       0.417313         481.498         300.115         300.115 
       0.423458         467.526         291.386         291.386 
       0.429607         455.383         283.103         283.103 
       0.435692         448.323         275.297         275.297 
       0.441815         441.301         267.757         267.757 
       0.447964         431.473          260.44          260.44 
       0.454126          426.31         253.333         253.333 
       0.460267         419.591         246.468         246.468 
       0.466387         412.631         239.843         239.843 
        0.47254         406.648         233.414         233.414 
       0.478662         397.413         227.269         227.269 
       0.484765         393.114         221.395         221.395 
       0.490885         389.062         215.744         215.744 
       0.497035         381.729         210.289         210.289 
       0.503198          380.47         205.032         205.032 
       0.509342         371.116         199.975         199.975 
       0.515458         365.509         195.103         195.103 
       0.521598         359.264          190.36          190.36 
       0.527764         354.311         185.747         185.747 
       0.533884         352.927         181.315         181.315 
           0.54         347.206         177.033         177.033 
       0.546137          339.75          172.88          172.88 
       0.552299          338.88         168.851         168.851 
       0.558452         333.246         164.966         164.966 
       0.564573         330.153         161.232         161.232 
       0.570708         325.324         157.611         157.611 
       0.576825         319.662         154.113         154.113 
       0.582926         317.113         150.729         150.729 
       0.589034         312.607         147.439         147.439 
       0.595184         310.504         144.225         144.225 
       0.601379         305.195         141.085         141.085 
       0.607522         299.539         138.066         138.066 
       0.613639         297.949          135.15          135.15 
       0.619772         296.438         132.315         132.315 
       0.625918         291.984         129.558         129.558 
       0.632068         287.739         126.879         126.879 
       0.638161         285.261         124.302         124.302 
         0.6443         283.002         121.778         121.778 
       0.650464         278.384         119.317         119.317 
       0.656582         275.996         116.942         116.942 
       0.662703         274.028         114.632         114.632 
       0.668861         269.239         112.372         112.372 
       0.675024         268.188         110.172         110.172 
       0.681124         264.957         108.054         108.054 
       0.687237         262.528         105.988         105.988 
       0.693381         259.455         103.967         103.967 
       0.699536         257.117         101.996         101.996 
       0.705665         254.422         100.086         100.086 
       0.711789         252.121         98.2275         98.2275 
       0.717957          249.34          96.404          96.404 
        0.72409         246.662         94.6378         94.6378 
       0.730186          247.75         92.9272         92.9272 
       0.736317         243.403         91.2503         91.2503 
       0.742472         240.378         89.6091         89.6091 
       0.748622         237.185         88.0103         88.0103 
        0.75476         237.756         86.4545         86.4545 
       0.760888         234.694         84.9392         84.9392 
       0.767043         231.654         83.4547         83.4547 
       0.773185         230.216         82.0092         82.0092 
       0.779291         226.857         80.6067         80.6067 
       0.785407         225.944         79.2353         79.2353 
       0.791564         223.777         77.8877         77.8877 
       0.797719         220.396         76.5725         76.5725 
       0.803834         221.627         75.2964         75.2964 
       0.809972         219.047         74.0452         74.0452 
       0.816124         215.922         72.8201         72.8201 
       0.822261         214.064         71.6263         71.6263 
       0.828378          213.93         70.4633         70.4633 
       0.834502         210.612         69.3255         69.3255 
       0.840667         210.395         68.2058         68.2058 
       0.846816         207.138         67.1142         67.1142 
       0.852925         206.203         66.0537         66.0537 
       0.859047         204.054         65.0142         65.0142 
       0.865192         203.675          63.994          63.994 
       0.871341         200.917         62.9952         62.9952 
       0.877463         199.274         62.0226         62.0226 
       0.883569         199.043         61.0732         61.0732 
       0.889708         197.107         60.1391         60.1391 
       0.895864         195.352         59.2224         59.2224 
       0.902008         193.376          58.327          58.327 
       0.908149         191.638         57.4508         57.4508 
       0.914301         190.963         56.5915         56.5915 
       0.920448         190.309         55.7507         55.7507 
       0.926574         187.741         54.9302         54.9302 
       0.932687          187.06         54.1282         54.1282 
       0.938823          185.58         53.3394         53.3394 
       0.944975         184.167         52.5648         52.5648 
       0.951105         182.513         51.8086         51.8086 
       0.957225         181.624         51.0687         51.0687 
       0.963368         180.296         50.3409         50.3409 
       0.969511         178.024         49.6274         49.6274 
       0.975621         176.847         48.9318         48.9318 
       0.981748          175.74         48.2479         48.2479 
       0.987916         174.975         47.5728         47.5728 
        0.99406          173.63         46.9134         46.9134 
        1.00019         172.476         46.2679         46.2679 
        1.00632         171.591         45.6353         45.6353 
        1.01246         170.169         45.0137         45.0137 
        1.01859         168.756         44.4048         44.4048 
        1.02471         167.482         43.8081         43.8081 
        1.03085         166.412         43.2204         43.2204 
        1.03698         165.143         42.6448         42.6448 
        1.04314         164.747         42.0774         42.0774 
        1.04929         163.733         41.5218         41.5218 
        1.05541         162.503         40.9785         40.9785 
        1.06154         161.191         40.4437         40.4437 
        1.06769         160.025         39.9178         39.9178 
        1.07382         159.409          39.403          39.403 
        1.07993         157.985         38.8985         38.8985 
        1.08607         156.947         38.4009         38.4009 
        1.09222         156.019         37.9116         37.9116 
        1.09836         155.011         37.4315         37.4315 
        1.10449         153.682         36.9603         36.9603 
        1.11063          152.73         36.4968         36.4968 
        1.11677         152.086         36.0415         36.0415 
         1.1229         150.768         35.5948         35.5948 
        1.12903         150.114         35.1554         35.1554 
        1.13518         148.968         34.7231         34.7231 
        1.14131         148.107         34.2984         34.2984 
        1.14745         147.035         33.8812         33.8812 
        1.15359          145.57         33.4708         33.4708 
        1.15973         145.253         33.0672         33.0672 
        1.16584         144.445         32.6721         32.6721 
        1.17197         143.604          32.283          32.283 
        1.17811         142.211          31.899          31.899 
        1.18424         141.552         31.5225         31.5225 
        1.19038         140.739         31.1511         31.1511 
        1.19652         139.713         30.7858         30.7858 
        1.20267         138.848         30.4265         30.4265 
        1.20881         137.867          30.073          30.073 
        1.21495          137.47         29.7257         29.7257 
        1.22108         136.395         29.3841         29.3841 
         1.2272         135.379         29.0486         29.0486 
        1.23334         134.952         28.7177         28.7177 
        1.23949         134.344         28.3913         28.3913 
        1.24562         133.204         28.0708         28.0708 
        1.25174         132.237         27.7558         27.7558 
        1.25789         131.494         27.4448         27.4448 
        1.26402         131.163         27.1391         27.1391 
        1.27014         130.154         26.8388         26.8388 
        1.27628         128.766         26.5422         26.5422 
        1.28244         128.621         26.2496         26.2496 
        1.28858         127.488         25.9618         25.9618 
        1.29471         126.768          25.679          25.679 
        1.30084         125.987         25.4007         25.4007 
        1.30697         125.427         25.1261         25.1261 
        1.31312         124.501         24.8553         24.8553 
        1.31925         123.558         24.5893         24.5893 
        1.32537         123.131         24.3275         24.3275 
        1.33151         122.616         24.0686         24.0686 
        1.33765         121.323         23.8136         23.8136 
        1.34378         121.259         23.5629         23.5629 
        1.34992         120.657         23.3157         23.3157 
        1.35606         119.672         23.0715         23.0715 
         1.3622         119.478         22.8313         22.8313 
        1.36833         117.993         22.5951         22.5951 
        1.37445         117.792         22.3624         22.3624 
        1.38059         117.115         22.1323         22.1323 
        1.38675         116.208         21.9049         21.9049 
        1.39288         115.491         21.6816         21.6816 
        1.39901          114.72         21.4616         21.4616 
        1.40515         114.383         21.2441         21.2441 
         1.4113         113.697         21.0298         21.0298 
        1.41742         112.872         20.8193         20.8193 
        1.42355         112.553         20.6113         20.6113 
         1.4297         111.646         20.4055         20.4055 
        1.43585         110.909         20.2026         20.2026 
        1.44198         110.156         20.0033         20.0033 
        1.44809         109.404         19.8071         19.8071 
        1.45423         109.192         19.6128         19.6128 
        1.46036         108.258         19.4215         19.4215 
        1.46649         107.616         19.2327         19.2327 
        1.47263         107.305         19.0463         19.0463 
        1.47877         106.394         18.8625         18.8625 
        1.48491         105.895         18.6808         18.6808 
        1.49104         104.755         18.5019         18.5019 
        1.49718         104.724         18.3253         18.3253 
        1.50333         104.196         18.1507         18.1507 
        1.50947         103.646         17.9787         17.9787 
         1.5156         103.051         17.8092         17.8092 
        1.52172         102.306          17.642          17.642 
        1.52787         101.757         17.4765         17.4765 
          1.534         101.221         17.3134         17.3134 
        1.54013         100.749         17.1526         17.1526 
        1.54627         99.9033         16.9935         16.9935 
        1.55241         99.5656         16.8365         16.8365 
        1.55855         98.8673         16.6816         16.6816 
        1.56467         98.1108         16.5292         16.5292 
         1.5708         97.6568         16.3782         16.3782 
        1.57695          97.305         16.2289         16.2289 
        1.58308         96.6736         16.0818         16.0818 
        1.58922         96.5757         15.9365         15.9365 
        1.59535         95.9844          15.793          15.793 
         1.6015         95.1515         15.6511         15.6511 
        1.60764         94.5494          15.511          15.511 
        1.61376         94.0545         15.3731         15.3731 
        1.61989         93.5542         15.2367         15.2367 
        1.62604          93.067         15.1017         15.1017 
        1.63218         92.7315         14.9684         14.9684 
        1.63831         92.0127          14.837          14.837 
        1.64444         91.5374         14.7072         14.7072 
        1.65059         90.9731         14.5786         14.5786 
        1.65673          90.513         14.4518         14.4518 
        1.66285         89.9553         14.3268         14.3268 
        1.66898         89.4033         14.2032         14.2032 
        1.67512         88.9975         14.0809         14.0809 
        1.68127          88.561         13.9599         13.9599 
         1.6874         87.9442         13.8406         13.8406 
        1.69353         87.3872         13.7228         13.7228 
        1.69967         87.0846         13.6061         13.6061 
        1.70581         86.6734         13.4908         13.4908 
        1.71193         86.0484         13.3773         13.3773 
        1.71806         85.5361         13.2648         13.2648 
        1.72421         85.0766         13.1535         13.1535 
        1.73035         84.8122         13.0435         13.0435 
        1.73649         84.2095         12.9349         12.9349 
        1.74262         83.6325         12.8276         12.8276 
        1.74876         83.2258         12.7214         12.7214 
        1.75489         82.7258         12.6167         12.6167 
        1.76101         82.2181         12.5131         12.5131 
        1.76715         81.8591         12.4106         12.4106 
        1.77329         81.4175         12.3092         12.3092 
        1.77943         81.0339         12.2088         12.2088 
        1.78557         80.6461         12.1097         12.1097 
        1.79171         80.1744         12.0118         12.0118 
        1.79785         79.5581         11.9148         11.9148 
        1.80399         79.3444          11.819          11.819 
        1.81012         78.7264         11.7244         11.7244 
        1.81625         78.3645         11.6308         11.6308 
        1.82239         78.0633         11.5382         11.5382 
        1.82853         77.4577         11.4466         11.4466 
        1.83466          76.989         11.3561         11.3561 
        1.84078         76.7307         11.2666         11.2666 
        1.84692         76.4854          11.178          11.178 
        1.85306         75.9141         11.0903         11.0903 
         1.8592          75.589         11.0036         11.0036 
        1.86533         75.1581         10.9179         10.9179 
        1.87147         74.6571          10.833          10.833 
        1.87761         74.1408          10.749          10.749 
