# k  (h/Mpc)    P(k)  (Mpc/h)^3    P_linear(k)  (Mpc/h)^3     P_NL(k)  ShotnoiseSubtracted = false
     0.00783031         1103.36         1111.13         1111.13 
       0.013688          1390.4         1405.55         1405.55 
       0.019231         1442.42         1449.07         1449.07 
      0.0249154         1365.52         1364.93         1364.93 
      0.0312784         1208.04         1209.37         1209.37 
      0.0375637          1052.4         1055.29         1055.29 
      0.0433917         940.322         938.843         938.843 
      0.0492413         850.812         852.041         852.041 
      0.0555754         785.551         783.999         783.999 
      0.0619321         723.188         729.191         729.191 
       0.067871         677.534         679.231         679.231 
      0.0738098         624.427         625.041         625.041 
      0.0800417         564.863         563.957         563.957 
      0.0862327         503.575         503.671         503.671 
      0.0921407         451.663         451.827         451.827 
      0.0982031         409.746          408.12          408.12 
       0.104506         372.905         373.877         373.877 
       0.110769         348.729         349.339         349.339 
       0.116806         332.835         331.301         331.301 
       0.122832         314.741         315.243         315.243 
       0.129052         298.475         297.894         297.894 
       0.135211         280.496         278.717         278.717 
       0.141259         259.148         258.417         258.417 
       0.147318         237.731         238.116         238.116 
       0.153489         220.037         219.202         219.202 
       0.159709         205.051         203.179         203.179 
       0.165845         190.505         190.706         190.706 
       0.171974         183.346         181.077         181.077 
       0.178125         175.324         173.258         173.258 
       0.184229         166.998         166.212         166.212 
        0.19034         161.038         158.997         158.997 
       0.196428         153.202         151.234         151.234 
       0.202534         143.411         142.946         142.946 
       0.208729         136.497         134.456         134.456 
       0.214876         129.484         126.493         126.493 
       0.220989         120.763         119.452         119.452 
       0.227147         116.501         113.431         113.431 
        0.23329         111.656         108.424         108.424 
       0.239377         107.693         104.188         104.188 
       0.245482         103.273         100.332         100.332 
       0.251667         98.8979         96.5281         96.5281 
       0.257832         96.1133         92.6567         92.6567 
       0.263955          91.295         88.7006         88.7006 
       0.270079         87.3665         84.7242         84.7242 
        0.27624         83.0864         80.8516         80.8516 
       0.282372         79.7791          77.267          77.267 
        0.28843         77.6718         74.0711         74.0711 
       0.294538         74.4635         71.2056         71.2056 
       0.300721         71.3118         68.6164         68.6164 
        0.30691         69.6147         66.2397         66.2397 
       0.313033         67.0363         64.0055         64.0055 
       0.319153         65.5928         61.8156         61.8156 
       0.325316         62.4943         59.6247         59.6247 
        0.33145          60.312         57.4633         57.4633 
       0.337538         58.3809         55.3721         55.3721 
       0.343633         56.5479         53.3718         53.3718 
       0.349808         54.5393         51.4718         51.4718 
       0.355968         52.7042         49.7176         49.7176 
       0.362074         51.5029         48.1081         48.1081 
       0.368217         49.9324         46.5984         46.5984 
       0.374374         48.8457         45.1642         45.1642 
       0.380519         46.8628         43.7861         43.7861 
       0.386598          45.438         42.4595         42.4595 
       0.392688         44.0378         41.1597         41.1597 
        0.39888         43.0491         39.8745         39.8745 
       0.405048         41.9016          38.639          38.639 
       0.411186         40.6625         37.4629         37.4629 
       0.417313         39.5015         36.3491         36.3491 
       0.423458         38.2852         35.2919         35.2919 
       0.429607         37.5807         34.2887         34.2887 
       0.435692         36.8129         33.3432         33.3432 
       0.441815         35.4817         32.4301         32.4301 
       0.447964          34.373         31.5438         31.5438 
       0.454126         33.7613          30.683          30.683 
       0.460267         33.2809         29.8516         29.8516 
       0.466387         32.2849         29.0491         29.0491 
        0.47254         31.6928         28.2705         28.2705 
       0.478662         30.7318         27.5262         27.5262 
       0.484765         30.0339         26.8148         26.8148 
       0.490885         29.1725         26.1303         26.1303 
       0.497035         28.5522         25.4697         25.4697 
       0.503198         27.9465         24.8329         24.8329 
       0.509342         27.1675         24.2205         24.2205 
       0.515458         26.7623         23.6304         23.6304 
       0.521598         26.1369          23.056          23.056 
       0.527764         25.7407         22.4971         22.4971 
       0.533884         25.0037         21.9604         21.9604 
           0.54         24.5159         21.4418         21.4418 
       0.546137         23.7837         20.9388         20.9388 
       0.552299         23.3702         20.4508         20.4508 
       0.558452         22.8629         19.9803         19.9803 
       0.564573         22.5376          19.528          19.528 
       0.570708         21.9932         19.0894         19.0894 
       0.576825         21.6209         18.6658         18.6658 
       0.582926         21.1798         18.2559         18.2559 
       0.589034         20.7728         17.8574         17.8574 
       0.595184         20.4787         17.4681         17.4681 
       0.601379         19.9176         17.0878         17.0878 
       0.607522         19.5755         16.7222         16.7222 
       0.613639         19.1699         16.3691         16.3691 
       0.619772         18.8654         16.0257         16.0257 
       0.625918         18.4592         15.6917         15.6917 
       0.632068         18.2543         15.3673         15.3673 
       0.638161         17.8621         15.0551         15.0551 
         0.6443         17.5398         14.7495         14.7495 
       0.650464         17.1097         14.4514         14.4514 
       0.656582          16.973         14.1637         14.1637 
       0.662703         16.7263          13.884          13.884 
       0.668861         16.2703         13.6102         13.6102 
       0.675024         16.0244         13.3438         13.3438 
       0.681124         15.9494         13.0872         13.0872 
       0.687237         15.5966          12.837          12.837 
       0.693381         15.2119         12.5922         12.5922 
       0.699536         15.1172         12.3536         12.3536 
       0.705665         14.8242         12.1222         12.1222 
       0.711789         14.5237         11.8971         11.8971 
       0.717957         14.2213         11.6762         11.6762 
        0.72409         14.0889         11.4623         11.4623 
       0.730186         13.9753         11.2551         11.2551 
       0.736317         13.6614          11.052          11.052 
       0.742472         13.4855         10.8532         10.8532 
       0.748622         13.2645         10.6596         10.6596 
        0.75476         12.9244         10.4712         10.4712 
       0.760888         12.8376         10.2876         10.2876 
       0.767043         12.5765         10.1078         10.1078 
       0.773185         12.4176         9.93276         9.93276 
       0.779291         12.3364         9.76288         9.76288 
       0.785407         12.0881         9.59679         9.59679 
       0.791564         11.9436         9.43357         9.43357 
       0.797719         11.7015         9.27427         9.27427 
       0.803834           11.61         9.11971         9.11971 
       0.809972         11.3874         8.96817         8.96817 
       0.816124         11.2433         8.81979         8.81979 
       0.822261         11.1009         8.67521         8.67521 
       0.828378         10.9408         8.53435         8.53435 
       0.834502         10.8097         8.39653         8.39653 
       0.840667         10.6948         8.26091         8.26091 
       0.846816         10.4698         8.12871         8.12871 
       0.852925         10.3728         8.00027         8.00027 
       0.859047         10.2339         7.87436         7.87436 
       0.865192         10.0827         7.75079         7.75079 
       0.871341         9.93589         7.62983         7.62983 
       0.877463         9.81424         7.51202         7.51202 
       0.883569         9.72027         7.39704         7.39704 
       0.889708         9.56312          7.2839          7.2839 
       0.895864         9.43975         7.17288         7.17288 
       0.902008         9.30418         7.06442         7.06442 
       0.908149         9.17923         6.95831         6.95831 
       0.914301         9.10455         6.85422         6.85422 
       0.920448         8.97307         6.75239         6.75239 
       0.926574         8.91115         6.65301         6.65301 
       0.932687         8.75769         6.55587         6.55587 
       0.938823         8.62592         6.46034         6.46034 
       0.944975         8.55854         6.36653         6.36653 
       0.951105         8.42059         6.27493         6.27493 
       0.957225         8.36417         6.18531         6.18531 
       0.963368         8.25368         6.09717         6.09717 
       0.969511         8.15416         6.01075         6.01075 
       0.975621         8.05064          5.9265          5.9265 
       0.981748          7.9197         5.84366         5.84366 
       0.987916         7.85188         5.76191         5.76191 
        0.99406         7.79138         5.68204         5.68204 
        1.00019         7.70516         5.60386         5.60386 
        1.00632         7.62613         5.52724         5.52724 
        1.01246         7.52219         5.45195         5.45195 
        1.01859         7.42968          5.3782          5.3782 
        1.02471         7.32063         5.30593         5.30593 
        1.03085         7.28785         5.23475         5.23475 
        1.03698         7.20138         5.16504         5.16504 
        1.04314          7.1198         5.09632         5.09632 
        1.04929         7.01108         5.02902         5.02902 
        1.05541         6.95347         4.96322         4.96322 
        1.06154         6.88879         4.89845         4.89845 
        1.06769          6.8488         4.83475         4.83475 
        1.07382         6.72439          4.7724          4.7724 
        1.07993         6.64986          4.7113          4.7113 
        1.08607         6.61152         4.65103         4.65103 
        1.09222         6.51468         4.59176         4.59176 
        1.09836          6.5019         4.53361         4.53361 
        1.10449         6.36125         4.47654         4.47654 
        1.11063         6.33707          4.4204          4.4204 
        1.11677         6.27439         4.36526         4.36526 
         1.1229         6.21079         4.31116         4.31116 
        1.12903         6.16058         4.25794         4.25794 
        1.13518         6.06353         4.20558         4.20558 
        1.14131         6.00655         4.15415         4.15415 
        1.14745         5.93145         4.10361         4.10361 
        1.15359         5.88336         4.05391         4.05391 
        1.15973         5.82157         4.00502         4.00502 
        1.16584         5.77448         3.95717         3.95717 
        1.17197         5.71068         3.91004         3.91004 
        1.17811         5.65233         3.86354         3.86354 
        1.18424         5.60045         3.81793         3.81793 
        1.19038         5.55341         3.77294         3.77294 
        1.19652         5.50958          3.7287          3.7287 
        1.20267         5.45786         3.68518         3.68518 
        1.20881         5.39567         3.64237         3.64237 
        1.21495         5.34895         3.60031         3.60031 
        1.22108         5.30183         3.55893         3.55893 
         1.2272          5.2369          3.5183          3.5183 
        1.23334         5.22534         3.47823         3.47823 
        1.23949         5.15472         3.43868         3.43868 
        1.24562         5.11263         3.39987         3.39987 
        1.25174         5.07737         3.36172         3.36172 
        1.25789         4.99889         3.32404         3.32404 
        1.26402         4.96941         3.28702         3.28702 
        1.27014         4.93012         3.25065         3.25065 
        1.27628         4.87244         3.21473         3.21473 
        1.28244         4.84673         3.17929         3.17929 
        1.28858         4.81252         3.14443         3.14443 
        1.29471         4.74194         3.11018         3.11018 
        1.30084         4.70092         3.07647         3.07647 
        1.30697         4.67695         3.04322         3.04322 
        1.31312         4.63271         3.01041         3.01041 
        1.31925         4.58992         2.97819         2.97819 
        1.32537         4.55794         2.94649         2.94649 
        1.33151         4.51103         2.91513         2.91513 
        1.33765         4.47407         2.88425         2.88425 
        1.34378         4.45309         2.85389         2.85389 
        1.34992         4.40756         2.82394         2.82394 
        1.35606         4.37366         2.79437         2.79437 
         1.3622         4.33604         2.76527         2.76527 
        1.36833         4.29117         2.73666         2.73666 
        1.37445         4.25031         2.70848         2.70848 
        1.38059         4.21902         2.68061         2.68061 
        1.38675         4.18497         2.65307         2.65307 
        1.39288         4.16159         2.62602         2.62602 
        1.39901         4.11129         2.59938         2.59938 
        1.40515         4.08433         2.57304         2.57304 
         1.4113         4.05479         2.54708         2.54708 
        1.41742         4.01837         2.52158         2.52158 
        1.42355         3.98457         2.49639         2.49639 
         1.4297         3.96164         2.47147         2.47147 
        1.43585          3.9306          2.4469          2.4469 
        1.44198         3.89464         2.42276         2.42276 
        1.44809         3.87398         2.39899         2.39899 
        1.45423         3.83923         2.37546         2.37546 
        1.46036         3.81289         2.35229         2.35229 
        1.46649         3.77201         2.32942         2.32942 
        1.47263         3.75833         2.30685         2.30685 
        1.47877         3.72778         2.28458         2.28458 
        1.48491         3.69661         2.26258         2.26258 
        1.49104         3.66735         2.24091         2.24091 
        1.49718         3.64489         2.21951         2.21951 
        1.50333         3.61326         2.19837         2.19837 
        1.50947           3.579         2.17754         2.17754 
         1.5156         3.56218         2.15701         2.15701 
        1.52172         3.53742         2.13675         2.13675 
        1.52787           3.511         2.11672         2.11672 
          1.534         3.48393         2.09696         2.09696 
        1.54013         3.45818         2.07748         2.07748 
        1.54627         3.43265         2.05822         2.05822 
        1.55241          3.4024          2.0392          2.0392 
        1.55855         3.38623         2.02044         2.02044 
        1.56467         3.36212         2.00198         2.00198 
         1.5708         3.33524         1.98369         1.98369 
        1.57695         3.30257         1.96561         1.96561 
        1.58308         3.27848         1.94779         1.94779 
        1.58922           3.269         1.93019         1.93019 
        1.59535         3.23908         1.91281         1.91281 
         1.6015         3.21153         1.89563         1.89563 
        1.60764         3.19757         1.87866         1.87866 
        1.61376         3.16981         1.86195         1.86195 
        1.61989         3.14302         1.84543         1.84543 
        1.62604         3.12278         1.82908         1.82908 
        1.63218         3.10867         1.81294         1.81294 
        1.63831         3.09265         1.79703         1.79703 
        1.64444         3.06552          1.7813          1.7813 
        1.65059         3.04998         1.76573         1.76573 
        1.65673         3.02165         1.75036         1.75036 
        1.66285         3.00205         1.73522         1.73522 
        1.66898         2.98229         1.72026         1.72026 
        1.67512         2.95876         1.70544         1.70544 
        1.68127         2.93831         1.69079         1.69079 
         1.6874         2.93012         1.67634         1.67634 
        1.69353         2.89595         1.66207         1.66207 
        1.69967         2.88292         1.64794         1.64794 
        1.70581         2.86789         1.63397         1.63397 
        1.71193         2.83958         1.62023         1.62023 
        1.71806         2.82584         1.60661         1.60661 
        1.72421         2.80998         1.59312         1.59312 
        1.73035         2.78728          1.5798          1.5798 
        1.73649          2.7736         1.56664         1.56664 
        1.74262         2.75562         1.55365         1.55365 
        1.74876         2.73841         1.54079         1.54079 
        1.75489         2.72014          1.5281          1.5281 
        1.76101         2.69913         1.51556         1.51556 
        1.76715         2.69023         1.50315         1.50315 
        1.77329         2.66708         1.49086         1.49086 
        1.77943          2.6508         1.47871         1.47871 
        1.78557         2.63489         1.46671         1.46671 
        1.79171         2.62235         1.45484         1.45484 
        1.79785         2.60496          1.4431          1.4431 
        1.80399         2.58632         1.43149         1.43149 
        1.81012         2.56979         1.42003         1.42003 
        1.81625         2.55135          1.4087          1.4087 
        1.82239         2.54005         1.39748         1.39748 
        1.82853         2.52246         1.38638         1.38638 
        1.83466         2.50065         1.37542         1.37542 
        1.84078         2.48824         1.36459         1.36459 
        1.84692         2.47419         1.35386         1.35386 
        1.85306         2.46063         1.34323         1.34323 
         1.8592         2.44632         1.33273         1.33273 
        1.86533         2.43079         1.32235         1.32235 
        1.87147         2.41816         1.31207         1.31207 
        1.87761          2.4055          1.3019          1.3019 
