# k  (h/Mpc)    P(k)  (Mpc/h)^3    P_linear(k)  (Mpc/h)^3     P_NL(k)  ShotnoiseSubtracted = false
     0.00783031         7502.23         7542.82         7542.82 
       0.013688         9347.65         9538.19         9538.19 
       0.019231         9724.28         9831.71         9831.71 
      0.0249154         9271.79         9259.85         9259.85 
      0.0312784         8146.25         8203.93         8203.93 
      0.0375637         7065.88         7158.44         7158.44 
      0.0433917         6343.97         6368.32         6368.32 
      0.0492413         5716.67         5779.42         5779.42 
      0.0555754         5292.19          5317.8          5317.8 
      0.0619321         4804.15         4945.98         4945.98 
       0.067871         4530.19         4607.07         4607.07 
      0.0738098         4193.58         4239.48         4239.48 
      0.0800417         3799.68         3825.14         3825.14 
      0.0862327         3384.97         3416.22         3416.22 
      0.0921407         3048.11         3064.57         3064.57 
      0.0982031         2785.16         2768.11         2768.11 
       0.104506         2520.48         2535.85         2535.85 
       0.110769         2362.04         2369.41         2369.41 
       0.116806         2272.78         2247.06         2247.06 
       0.122832         2137.12         2138.15         2138.15 
       0.129052          2025.8         2020.47         2020.47 
       0.135211         1929.76          1890.4          1890.4 
       0.141259         1777.14         1752.71         1752.71 
       0.147318         1628.11         1615.02         1615.02 
       0.153489         1522.69         1486.73         1486.73 
       0.159709         1446.01         1378.06         1378.06 
       0.165845         1329.02         1293.46         1293.46 
       0.171974         1300.29         1228.15         1228.15 
       0.178125         1253.22         1175.11         1175.11 
       0.184229         1170.56         1127.33         1127.33 
        0.19034         1142.91         1078.39         1078.39 
       0.196428         1100.18         1025.74         1025.74 
       0.202534         1024.05         969.524         969.524 
       0.208729         996.778         911.941         911.941 
       0.214876         951.636         857.932         857.932 
       0.220989         890.061         810.177         810.177 
       0.227147         869.646         769.341         769.341 
        0.23329         837.803          735.38          735.38 
       0.239377         823.522          706.65          706.65 
       0.245482         783.625         680.494         680.494 
       0.251667         753.397         654.696         654.696 
       0.257832         743.757         628.438         628.438 
       0.263955         703.249         601.606         601.606 
       0.270079         678.771         574.636         574.636 
        0.27624          648.99          548.37          548.37 
       0.282372         634.446         524.058         524.058 
        0.28843         628.745         502.382         502.382 
       0.294538         597.398         482.947         482.947 
       0.300721         579.205         465.386         465.386 
        0.30691         569.828         449.266         449.266 
       0.313033         545.729         434.112         434.112 
       0.319153         536.589          419.26          419.26 
       0.325316         525.374           404.4           404.4 
        0.33145         513.072         389.741         389.741 
       0.337538         494.821         375.557         375.557 
       0.343633         479.733          361.99          361.99 
       0.349808         467.828         349.104         349.104 
       0.355968         458.545         337.206         337.206 
       0.362074         445.038         326.289         326.289 
       0.368217         440.892          316.05          316.05 
       0.374374         431.984         306.323         306.323 
       0.380519         414.986         296.976         296.976 
       0.386598         409.432         287.978         287.978 
       0.392688         400.153         279.163         279.163 
        0.39888         389.949         270.445         270.445 
       0.405048         382.959         262.066         262.066 
       0.411186         380.393         254.089         254.089 
       0.417313          373.95         246.535         246.535 
       0.423458         363.599         239.364         239.364 
       0.429607         354.788          232.56          232.56 
       0.435692         348.551         226.148         226.148 
       0.441815         342.854         219.954         219.954 
       0.447964         334.127         213.943         213.943 
       0.454126         329.623         208.105         208.105 
       0.460267         324.979         202.466         202.466 
       0.466387         319.111         197.023         197.023 
        0.47254         314.839         191.742         191.742 
       0.478662          306.48         186.694         186.694 
       0.484765         303.021         181.869         181.869 
       0.490885         299.453         177.227         177.227 
       0.497035         294.695         172.746         172.746 
       0.503198         292.354         168.427         168.427 
       0.509342         284.726         164.273         164.273 
       0.515458          281.11         160.271         160.271 
       0.521598         275.254         156.375         156.375 
       0.527764         272.067         152.585         152.585 
       0.533884         271.239         148.944         148.944 
           0.54         265.662         145.427         145.427 
       0.546137          259.76         142.015         142.015 
       0.552299         258.466         138.706         138.706 
       0.558452         254.024         135.515         135.515 
       0.564573         252.061         132.447         132.447 
       0.570708         247.232         129.472         129.472 
       0.576825          243.48         126.599         126.599 
       0.582926          241.07         123.819         123.819 
       0.589034         237.787         121.116         121.116 
       0.595184         236.062         118.476         118.476 
       0.601379          231.53         115.897         115.897 
       0.607522         227.383         113.417         113.417 
       0.613639         225.826         111.022         111.022 
       0.619772         224.008         108.693         108.693 
       0.625918         221.597         106.428         106.428 
       0.632068         217.163         104.227         104.227 
       0.638161          215.11          102.11          102.11 
         0.6443         213.915         100.037         100.037 
       0.650464         209.962         98.0151         98.0151 
       0.656582         208.571         96.0643         96.0643 
       0.662703         206.716         94.1667         94.1667 
       0.668861         202.812         92.3101         92.3101 
       0.675024         202.526         90.5028         90.5028 
       0.681124         199.684         88.7628         88.7628 
       0.687237         197.338         87.0657         87.0657 
       0.693381         195.526         85.4057         85.4057 
       0.699536         193.333         83.7868         83.7868 
       0.705665         191.102         82.2176         82.2176 
       0.711789         188.955         80.6908         80.6908 
       0.717957          187.01         79.1929         79.1929 
        0.72409         185.311          77.742          77.742 
       0.730186         185.389         76.3368         76.3368 
       0.736317         182.281         74.9592         74.9592 
       0.742472         179.825          73.611          73.611 
       0.748622          177.17         72.2977         72.2977 
        0.75476         177.803         71.0197         71.0197 
       0.760888         175.731         69.7749         69.7749 
       0.767043         172.976         68.5554         68.5554 
       0.773185         171.387          67.368          67.368 
       0.779291         169.287         66.2158         66.2158 
       0.785407          168.15         65.0893         65.0893 
       0.791564         166.874         63.9823         63.9823 
       0.797719          164.61         62.9019         62.9019 
       0.803834         164.699         61.8536         61.8536 
       0.809972         163.339         60.8258         60.8258 
       0.816124         160.979         59.8194         59.8194 
       0.822261         159.495         58.8388         58.8388 
       0.828378         159.305         57.8834         57.8834 
       0.834502         156.705         56.9487         56.9487 
       0.840667         156.236         56.0289         56.0289 
       0.846816         154.526         55.1322         55.1322 
       0.852925         153.151         54.2611         54.2611 
       0.859047         151.729         53.4071         53.4071 
       0.865192         150.917          52.569          52.569 
       0.871341         149.145         51.7486         51.7486 
       0.877463         148.071         50.9496         50.9496 
       0.883569         147.868         50.1697         50.1697 
       0.889708         146.515         49.4024         49.4024 
       0.895864         145.072         48.6493         48.6493 
       0.902008         143.653         47.9138         47.9138 
       0.908149         141.991          47.194          47.194 
       0.914301          141.98         46.4881         46.4881 
       0.920448         141.275         45.7975         45.7975 
       0.926574         138.916         45.1234         45.1234 
       0.932687         138.686         44.4646         44.4646 
       0.938823         137.558         43.8167         43.8167 
       0.944975          136.14         43.1804         43.1804 
       0.951105         135.106         42.5591         42.5591 
       0.957225         134.849         41.9513         41.9513 
       0.963368         133.292         41.3534         41.3534 
       0.969511         132.145         40.7674         40.7674 
       0.975621         131.083         40.1959         40.1959 
       0.981748          130.08         39.6341         39.6341 
       0.987916         129.416         39.0796         39.0796 
        0.99406         128.735         38.5379         38.5379 
        1.00019         127.492         38.0076         38.0076 
        1.00632         126.778         37.4879         37.4879 
        1.01246         125.798         36.9773         36.9773 
        1.01859         125.032         36.4772         36.4772 
        1.02471         124.099          35.987          35.987 
        1.03085         123.034         35.5042         35.5042 
        1.03698         122.186         35.0314         35.0314 
        1.04314         121.508         34.5653         34.5653 
        1.04929          121.01         34.1088         34.1088 
        1.05541         120.113         33.6626         33.6626 
        1.06154         119.302         33.2233         33.2233 
        1.06769         118.296         32.7912         32.7912 
        1.07382         117.498         32.3683         32.3683 
        1.07993         116.929         31.9539         31.9539 
        1.08607         115.954         31.5452         31.5452 
        1.09222         115.513         31.1432         31.1432 
        1.09836         114.336         30.7488         30.7488 
        1.10449         113.678         30.3617         30.3617 
        1.11063         112.897          29.981          29.981 
        1.11677         112.231         29.6069         29.6069 
         1.1229          111.37           29.24           29.24 
        1.12903         110.941         28.8791         28.8791 
        1.13518         110.194          28.524          28.524 
        1.14131         109.492         28.1751         28.1751 
        1.14745         108.782         27.8323         27.8323 
        1.15359         107.593         27.4952         27.4952 
        1.15973         107.324         27.1637         27.1637 
        1.16584         106.639         26.8391         26.8391 
        1.17197         106.038         26.5194         26.5194 
        1.17811         105.169         26.2041         26.2041 
        1.18424         104.486         25.8948         25.8948 
        1.19038          104.27         25.5896         25.5896 
        1.19652         103.437         25.2896         25.2896 
        1.20267         102.677         24.9944         24.9944 
        1.20881          102.05          24.704          24.704 
        1.21495         101.569         24.4188         24.4188 
        1.22108         100.992         24.1381         24.1381 
         1.2272         100.076         23.8626         23.8626 
        1.23334         99.8295         23.5907         23.5907 
        1.23949          99.225         23.3225         23.3225 
        1.24562         98.3515         23.0593         23.0593 
        1.25174         97.7253         22.8005         22.8005 
        1.25789         97.5481          22.545          22.545 
        1.26402          96.837         22.2939         22.2939 
        1.27014         96.3026         22.0472         22.0472 
        1.27628         95.3709         21.8036         21.8036 
        1.28244         95.2246         21.5632         21.5632 
        1.28858         94.4057         21.3268         21.3268 
        1.29471         93.8945         21.0945         21.0945 
        1.30084         93.1997         20.8659         20.8659 
        1.30697         93.1154         20.6403         20.6403 
        1.31312         92.3162         20.4178         20.4178 
        1.31925         91.7254         20.1993         20.1993 
        1.32537         91.2485         19.9843         19.9843 
        1.33151         91.0511         19.7716         19.7716 
        1.33765         90.1805         19.5622         19.5622 
        1.34378         89.9442         19.3562         19.3562 
        1.34992         89.4904         19.1531         19.1531 
        1.35606         88.7944         18.9525         18.9525 
         1.3622         88.5642         18.7552         18.7552 
        1.36833         87.6996         18.5612         18.5612 
        1.37445         87.1854           18.37           18.37 
        1.38059         86.9132          18.181          18.181 
        1.38675         86.0499         17.9942         17.9942 
        1.39288         85.9204         17.8107         17.8107 
        1.39901         85.0681           17.63           17.63 
        1.40515         84.8549         17.4514         17.4514 
         1.4113          84.447         17.2753         17.2753 
        1.41742         83.8529         17.1024         17.1024 
        1.42355         83.4741         16.9315         16.9315 
         1.4297         82.9771         16.7625         16.7625 
        1.43585         82.3803         16.5958         16.5958 
        1.44198         82.0148         16.4321         16.4321 
        1.44809         81.4231         16.2709         16.2709 
        1.45423         81.0972         16.1113         16.1113 
        1.46036          80.473         15.9542         15.9542 
        1.46649         80.1317         15.7991         15.7991 
        1.47263          79.792          15.646          15.646 
        1.47877         79.3524         15.4949         15.4949 
        1.48491         78.8694         15.3457         15.3457 
        1.49104         78.2148         15.1987         15.1987 
        1.49718         78.0322         15.0536         15.0536 
        1.50333         77.5953         14.9102         14.9102 
        1.50947         77.2996         14.7689         14.7689 
         1.5156         76.9116         14.6297         14.6297 
        1.52172         76.3096         14.4923         14.4923 
        1.52787         75.8045         14.3564         14.3564 
          1.534         75.5395         14.2224         14.2224 
        1.54013         75.2612         14.0903         14.0903 
        1.54627         74.5551         13.9597         13.9597 
        1.55241         74.1901         13.8306         13.8306 
        1.55855         73.8843         13.7034         13.7034 
        1.56467         73.1981         13.5782         13.5782 
         1.5708         73.0614         13.4542         13.4542 
        1.57695         72.6661         13.3315         13.3315 
        1.58308         72.2632         13.2107         13.2107 
        1.58922         71.9264         13.0913         13.0913 
        1.59535         71.6332         12.9735         12.9735 
         1.6015         71.4113         12.8569         12.8569 
        1.60764         70.9189         12.7418         12.7418 
        1.61376         70.4259         12.6285         12.6285 
        1.61989         69.8769         12.5165         12.5165 
        1.62604         69.6771         12.4055         12.4055 
        1.63218         69.4039          12.296          12.296 
        1.63831         69.0428         12.1881         12.1881 
        1.64444         68.7391         12.0815         12.0815 
        1.65059         68.3117         11.9759         11.9759 
        1.65673         67.7567         11.8717         11.8717 
        1.66285          67.443          11.769          11.769 
        1.66898         67.0011         11.6675         11.6675 
        1.67512         66.8193          11.567          11.567 
        1.68127         66.4953         11.4676         11.4676 
         1.6874         66.0637         11.3696         11.3696 
        1.69353         65.7342         11.2728         11.2728 
        1.69967         65.4753          11.177          11.177 
        1.70581         65.0961         11.0823         11.0823 
        1.71193         64.6953          10.989          10.989 
        1.71806         64.2974         10.8967         10.8967 
        1.72421         64.0936         10.8052         10.8052 
        1.73035         63.8489         10.7149         10.7149 
        1.73649          63.396         10.6256         10.6256 
        1.74262         62.8794         10.5374         10.5374 
        1.74876         62.7815         10.4502         10.4502 
        1.75489         62.2652         10.3642         10.3642 
        1.76101         61.9718         10.2792         10.2792 
        1.76715         61.9191          10.195          10.195 
        1.77329         61.2906         10.1116         10.1116 
        1.77943         61.1847         10.0292         10.0292 
        1.78557         60.8975         9.94778         9.94778 
        1.79171         60.5361         9.86728         9.86728 
        1.79785         60.2131         9.78766         9.78766 
        1.80399         59.8502         9.70895         9.70895 
        1.81012         59.5884         9.63121         9.63121 
        1.81625         59.3051         9.55436         9.55436 
        1.82239         59.0226         9.47825         9.47825 
        1.82853         58.6351           9.403           9.403 
        1.83466         58.3864         9.32865         9.32865 
        1.84078         58.0369         9.25519         9.25519 
        1.84692         57.7925          9.1824          9.1824 
        1.85306         57.4945         9.11032         9.11032 
         1.8592         57.2713         9.03912         9.03912 
        1.86533         56.8865         8.96873         8.96873 
        1.87147         56.5987         8.89901         8.89901 
        1.87761         56.2822         8.83001         8.83001 
