# k  (h/Mpc)    Pcb(k)  (Mpc/h)^3    Pcb_linear(k) (Mpc/h)^3    Pcb_NL(k) (Mpc/h)^3   ShotnoiseSubtracted = false
     0.00783031         13433.2         13498.7         13498.7 
       0.013688         16658.4         17093.8         17093.8 
       0.019231         17355.7         17625.1         17625.1 
      0.0249154         16605.6         16601.8         16601.8 
      0.0312784         14527.5         14709.4         14709.4 
      0.0375637         12571.1         12835.1         12835.1 
      0.0433917         11307.2         11418.6         11418.6 
      0.0492413         10169.1         10362.7         10362.7 
      0.0555754         9410.63         9535.08         9535.08 
      0.0619321         8486.17         8868.41         8868.41 
       0.067871         8015.32         8260.74         8260.74 
      0.0738098         7445.07         7601.63         7601.63 
      0.0800417         6742.78         6858.71         6858.71 
      0.0862327         6013.07          6125.5          6125.5 
      0.0921407         5434.88         5494.97         5494.97 
      0.0982031          4986.1          4963.4          4963.4 
       0.104506         4507.59         4546.93         4546.93 
       0.110769         4228.11         4248.51         4248.51 
       0.116806         4072.36         4029.13         4029.13 
       0.122832         3833.23         3833.84         3833.84 
       0.129052         3619.35         3622.83         3622.83 
       0.135211         3476.19         3389.61         3389.61 
       0.141259         3198.63         3142.73         3142.73 
       0.147318         2944.43         2895.84         2895.84 
       0.153489         2768.38         2665.81         2665.81 
       0.159709         2656.64         2470.95         2470.95 
       0.165845         2440.85         2319.26         2319.26 
       0.171974         2389.41         2202.16         2202.16 
       0.178125         2319.09         2107.06         2107.06 
       0.184229         2146.66         2021.37         2021.37 
        0.19034         2110.72         1933.62         1933.62 
       0.196428         2044.36         1839.21         1839.21 
       0.202534          1914.3         1738.42         1738.42 
       0.208729         1871.06         1635.17         1635.17 
       0.214876         1786.12         1538.33         1538.33 
       0.220989         1694.17          1452.7          1452.7 
       0.227147         1651.77         1379.48         1379.48 
        0.23329         1590.52         1318.58         1318.58 
       0.239377         1580.28         1267.07         1267.07 
       0.245482         1507.65         1220.17         1220.17 
       0.251667         1452.39         1173.91         1173.91 
       0.257832          1430.8         1126.83         1126.83 
       0.263955         1364.35         1078.72         1078.72 
       0.270079         1327.33         1030.36         1030.36 
        0.27624         1271.66         983.263         983.263 
       0.282372         1255.39         939.669         939.669 
        0.28843         1235.58         900.802         900.802 
       0.294538         1178.74         865.956         865.956 
       0.300721         1155.46         834.467         834.467 
        0.30691         1129.82         805.562         805.562 
       0.313033         1086.31         778.391         778.391 
       0.319153         1073.89          751.76          751.76 
       0.325316          1060.3         725.114         725.114 
        0.33145          1037.5          698.83          698.83 
       0.337538         1003.21         673.398         673.398 
       0.343633         978.986         649.071         649.071 
       0.349808         960.532         625.965         625.965 
       0.355968         941.964         604.631         604.631 
       0.362074         912.897         585.058         585.058 
       0.368217         910.099         566.698         566.698 
       0.374374         896.592         549.256         549.256 
       0.380519         864.706         532.496         532.496 
       0.386598         859.211         516.362         516.362 
       0.392688         838.938         500.557         500.557 
        0.39888         820.065         484.925         484.925 
       0.405048         804.991         469.901         469.901 
       0.411186         802.743         455.598         455.598 
       0.417313         798.149         442.053         442.053 
       0.423458         773.656         429.196         429.196 
       0.429607         752.625         416.995         416.995 
       0.435692         745.785         405.497         405.497 
       0.441815         732.354         394.392         394.392 
       0.447964         721.894         383.613         383.613 
       0.454126         713.175         373.146         373.146 
       0.460267         703.229         363.034         363.034 
       0.466387         691.889         353.275         353.275 
        0.47254         680.531         343.806         343.806 
       0.478662         670.654         334.755         334.755 
       0.484765         663.463         326.103         326.103 
       0.490885         656.654         317.779         317.779 
       0.497035         644.054         309.744         309.744 
       0.503198         643.135         302.001         302.001 
       0.509342         630.933         294.552         294.552 
       0.515458         618.665         287.376         287.376 
       0.521598         614.931          280.39          280.39 
       0.527764         601.919         273.594         273.594 
       0.533884         597.261         267.067         267.067 
           0.54         591.551          260.76          260.76 
       0.546137         582.283         254.643         254.643 
       0.552299         579.685         248.708         248.708 
       0.558452         571.945         242.987         242.987 
       0.564573         566.999         237.486         237.486 
       0.570708         561.534         232.152         232.152 
       0.576825         550.222             227             227 
       0.582926         548.494         222.015         222.015 
       0.589034         540.508          217.17          217.17 
       0.595184         535.717         212.435         212.435 
       0.601379         527.364          207.81          207.81 
       0.607522         518.839         203.363         203.363 
       0.613639         517.733         199.069         199.069 
       0.619772          514.81         194.893         194.893 
       0.625918         505.342         190.831         190.831 
       0.632068         502.892         186.886         186.886 
       0.638161         497.105          183.09          183.09 
         0.6443         491.748         179.373         179.373 
       0.650464         486.951         175.747         175.747 
       0.656582         482.991         172.249         172.249 
       0.662703         478.158         168.847         168.847 
       0.668861         472.174         165.518         165.518 
       0.675024          469.31         162.277         162.277 
       0.681124         461.721         159.157         159.157 
       0.687237         460.763         156.114         156.114 
       0.693381         453.577         153.138         153.138 
       0.699536           452.8         150.235         150.235 
       0.705665         446.898         147.421         147.421 
       0.711789         445.656         144.684         144.684 
       0.717957         439.332         141.998         141.998 
        0.72409         435.129         139.396         139.396 
       0.730186         435.808         136.877         136.877 
       0.736317         428.579         134.407         134.407 
       0.742472         424.457         131.989         131.989 
       0.748622          421.72         129.634         129.634 
        0.75476          418.16         127.343         127.343 
       0.760888         415.064         125.111         125.111 
       0.767043         412.051         122.924         122.924 
       0.773185         409.272         120.795         120.795 
       0.779291           404.2         118.729         118.729 
       0.785407         401.517         116.709         116.709 
       0.791564         398.913         114.724         114.724 
       0.797719         392.792         112.787         112.787 
       0.803834         394.772         110.907         110.907 
       0.809972         388.277         109.064         109.064 
       0.816124         384.727          107.26          107.26 
       0.822261         382.214         105.502         105.502 
       0.828378         380.355         103.789         103.789 
       0.834502         374.576         102.113         102.113 
       0.840667          374.63         100.463         100.463 
       0.846816          368.71         98.8555         98.8555 
       0.852925         369.196         97.2935         97.2935 
       0.859047         365.533         95.7624         95.7624 
       0.865192         363.711         94.2596         94.2596 
       0.871341         358.608         92.7885         92.7885 
       0.877463         356.901         91.3559         91.3559 
       0.883569         354.058         89.9575         89.9575 
       0.889708         350.683         88.5816         88.5816 
       0.895864         347.367         87.2314         87.2314 
       0.902008          346.12         85.9124         85.9124 
       0.908149         342.938         84.6219         84.6219 
       0.914301         341.428         83.3561         83.3561 
       0.920448         338.415         82.1178         82.1178 
       0.926574         336.133         80.9092         80.9092 
       0.932687         334.729         79.7278         79.7278 
       0.938823         330.806         78.5661         78.5661 
       0.944975         329.955         77.4251         77.4251 
       0.951105         326.804         76.3112         76.3112 
       0.957225         322.767         75.2213         75.2213 
       0.963368         323.423         74.1493         74.1493 
       0.969511         317.414         73.0985         73.0985 
       0.975621         316.811         72.0738         72.0738 
       0.981748          315.27         71.0664         71.0664 
       0.987916         313.342         70.0721         70.0721 
        0.99406         310.161         69.1008         69.1008 
        1.00019         307.483         68.1501         68.1501 
        1.00632         307.107         67.2183         67.2183 
        1.01246         304.352         66.3027         66.3027 
        1.01859         300.863         65.4058         65.4058 
        1.02471         299.057         64.5269         64.5269 
        1.03085         297.982         63.6612         63.6612 
        1.03698         296.182         62.8135         62.8135 
        1.04314         294.957         61.9777         61.9777 
        1.04929         292.952         61.1593         61.1593 
        1.05541         289.549         60.3591         60.3591 
        1.06154         287.935         59.5714         59.5714 
        1.06769         285.313         58.7967         58.7967 
        1.07382         284.128         58.0385         58.0385 
        1.07993          281.99         57.2954         57.2954 
        1.08607         280.274         56.5625         56.5625 
        1.09222         278.035         55.8417         55.8417 
        1.09836         277.039         55.1345         55.1345 
        1.10449         274.986         54.4405         54.4405 
        1.11063         272.845         53.7577         53.7577 
        1.11677         270.201         53.0871         53.0871 
         1.1229         269.725         52.4292         52.4292 
        1.12903         267.371          51.782          51.782 
        1.13518         265.376         51.1453         51.1453 
        1.14131         264.489         50.5197         50.5197 
        1.14745         261.273         49.9051         49.9051 
        1.15359         259.468         49.3007         49.3007 
        1.15973         258.537         48.7062         48.7062 
        1.16584         257.066         48.1242         48.1242 
        1.17197         255.302          47.551          47.551 
        1.17811         252.931         46.9855         46.9855 
        1.18424         251.603          46.431          46.431 
        1.19038         250.397         45.8838         45.8838 
        1.19652         247.358         45.3458         45.3458 
        1.20267         246.984         44.8165         44.8165 
        1.20881         244.933         44.2958         44.2958 
        1.21495         244.078         43.7844         43.7844 
        1.22108         242.279         43.2811         43.2811 
         1.2272         239.422         42.7871         42.7871 
        1.23334         238.755         42.2997         42.2997 
        1.23949         237.432         41.8188         41.8188 
        1.24562         235.822         41.3467         41.3467 
        1.25174         234.322         40.8828         40.8828 
        1.25789         232.209         40.4246         40.4246 
        1.26402         231.852         39.9743         39.9743 
        1.27014         230.588         39.5321         39.5321 
        1.27628         228.255         39.0952         39.0952 
        1.28244          226.93         38.6642         38.6642 
        1.28858         225.628         38.2403         38.2403 
        1.29471         224.417         37.8237         37.8237 
        1.30084         223.238         37.4138         37.4138 
        1.30697         220.898         37.0094         37.0094 
        1.31312         219.664         36.6104         36.6104 
        1.31925         218.387         36.2186         36.2186 
        1.32537         217.649          35.833          35.833 
        1.33151         215.844         35.4517         35.4517 
        1.33765         214.143         35.0762         35.0762 
        1.34378         213.148         34.7069         34.7069 
        1.34992         211.311         34.3427         34.3427 
        1.35606         210.374         33.9831         33.9831 
         1.3622         208.955         33.6292         33.6292 
        1.36833         207.501         33.2813         33.2813 
        1.37445          207.17         32.9386         32.9386 
        1.38059         204.797         32.5996         32.5996 
        1.38675         203.455         32.2647         32.2647 
        1.39288         202.388         31.9358         31.9358 
        1.39901         200.865         31.6117         31.6117 
        1.40515         200.176         31.2914         31.2914 
         1.4113          198.52         30.9757         30.9757 
        1.41742         196.829         30.6656         30.6656 
        1.42355          196.92         30.3592         30.3592 
         1.4297         195.058         30.0562         30.0562 
        1.43585          194.02         29.7574         29.7574 
        1.44198         192.219         29.4638         29.4638 
        1.44809         191.534         29.1748         29.1748 
        1.45423         190.322         28.8886         28.8886 
        1.46036         189.208         28.6068         28.6068 
        1.46649         188.025         28.3288         28.3288 
        1.47263         187.215         28.0542         28.0542 
        1.47877         185.641         27.7834         27.7834 
        1.48491         184.142         27.5158         27.5158 
        1.49104         182.622         27.2523         27.2523 
        1.49718         182.037         26.9921         26.9921 
        1.50333         180.438         26.7349         26.7349 
        1.50947         179.698         26.4816         26.4816 
         1.5156         178.521          26.232          26.232 
        1.52172         177.576         25.9856         25.9856 
        1.52787         176.426          25.742          25.742 
          1.534          175.58         25.5017         25.5017 
        1.54013         174.225         25.2648         25.2648 
        1.54627          173.32         25.0305         25.0305 
        1.55241         172.414         24.7992         24.7992 
        1.55855         171.519         24.5711         24.5711 
        1.56467         170.289         24.3466         24.3466 
         1.5708         168.815         24.1242         24.1242 
        1.57695         168.106         23.9043         23.9043 
        1.58308          166.92         23.6876         23.6876 
        1.58922         165.967         23.4736         23.4736 
        1.59535         164.604         23.2622         23.2622 
         1.6015         164.021         23.0532         23.0532 
        1.60764         162.807         22.8469         22.8469 
        1.61376         161.547         22.6437         22.6437 
        1.61989          160.76         22.4428         22.4428 
        1.62604          159.67         22.2439         22.2439 
        1.63218         158.852         22.0476         22.0476 
        1.63831         158.054         21.8541         21.8541 
        1.64444         156.725         21.6629         21.6629 
        1.65059         155.966         21.4735         21.4735 
        1.65673         154.861         21.2866         21.2866 
        1.66285         154.251         21.1025         21.1025 
        1.66898         153.152         20.9205         20.9205 
        1.67512         152.121         20.7404         20.7404 
        1.68127         151.365         20.5621         20.5621 
         1.6874         150.288         20.3864         20.3864 
        1.69353          149.83         20.2129         20.2129 
        1.69967         148.472          20.041          20.041 
        1.70581         148.013         19.8712         19.8712 
        1.71193         146.785          19.704          19.704 
        1.71806         145.457         19.5384         19.5384 
        1.72421         144.981         19.3744         19.3744 
        1.73035         144.026         19.2124         19.2124 
        1.73649         142.983         19.0524         19.0524 
        1.74262         142.462         18.8943         18.8943 
        1.74876         141.575         18.7379         18.7379 
        1.75489         140.807         18.5836         18.5836 
        1.76101         139.549         18.4312         18.4312 
        1.76715         138.693         18.2802         18.2802 
        1.77329         137.935         18.1308         18.1308 
        1.77943         136.937         17.9829         17.9829 
        1.78557         136.366          17.837          17.837 
        1.79171         135.586         17.6926         17.6926 
        1.79785         134.546         17.5499         17.5499 
        1.80399         133.851         17.4088         17.4088 
        1.81012             133         17.2694         17.2694 
        1.81625         132.259         17.1316         17.1316 
        1.82239         131.427         16.9951         16.9951 
        1.82853          130.61         16.8602         16.8602 
        1.83466         129.546         16.7269         16.7269 
        1.84078         129.175         16.5951         16.5951 
        1.84692         128.519         16.4646         16.4646 
        1.85306         127.457         16.3354         16.3354 
         1.8592         126.944         16.2077         16.2077 
        1.86533         125.772         16.0815         16.0815 
        1.87147         125.248         15.9565         15.9565 
