# k  (h/Mpc)    P(k)  (Mpc/h)^3    P_linear(k)  (Mpc/h)^3     P_NL(k)  ShotnoiseSubtracted = false
     0.00783031         5131.18         5160.97         5160.97 
       0.013688         6413.43         6526.12         6526.12 
       0.019231         6667.15         6727.07         6727.07 
      0.0249154         6345.02          6335.9          6335.9 
      0.0312784         5586.47         5613.47         5613.47 
      0.0375637         4851.61         4898.15         4898.15 
      0.0433917         4350.94         4357.54         4357.54 
      0.0492413         3925.07         3954.59         3954.59 
      0.0555754         3632.55         3638.74         3638.74 
      0.0619321         3309.98         3384.33         3384.33 
       0.067871         3117.01         3152.43         3152.43 
      0.0738098          2881.2         2900.91         2900.91 
      0.0800417         2610.25          2617.4          2617.4 
      0.0862327         2325.07          2337.6          2337.6 
      0.0921407         2090.44         2096.97         2096.97 
      0.0982031         1906.22         1894.12         1894.12 
       0.104506         1726.87         1735.19         1735.19 
       0.110769         1617.48         1621.31         1621.31 
       0.116806            1554         1537.59         1537.59 
       0.122832         1462.33         1463.06         1463.06 
       0.129052         1387.71         1382.54         1382.54 
       0.135211         1316.25         1293.54         1293.54 
       0.141259         1213.03         1199.32         1199.32 
       0.147318         1110.41         1105.11         1105.11 
       0.153489         1035.49         1017.32         1017.32 
       0.159709         977.775         942.962         942.962 
       0.165845         900.305         885.072         885.072 
       0.171974         878.424         840.384         840.384 
       0.178125          843.94         804.093         804.093 
       0.184229         792.926         771.394         771.394 
        0.19034         771.437         737.908         737.908 
       0.196428         739.858         701.879         701.879 
       0.202534         688.434         663.414         663.414 
       0.208729         666.738         624.012         624.012 
       0.214876         636.273         587.055         587.055 
       0.220989         592.489         554.378         554.378 
       0.227147         578.354         526.436         526.436 
        0.23329         556.898         503.197         503.197 
       0.239377         543.951         483.538         483.538 
       0.245482         518.055         465.641         465.641 
       0.251667          497.27         447.988         447.988 
       0.257832         490.103          430.02          430.02 
       0.263955         462.598          411.66          411.66 
       0.270079          445.18         393.205         393.205 
        0.27624         425.013         375.232         375.232 
       0.282372         413.196         358.597         358.597 
        0.28843         409.095         343.764         343.764 
       0.294538         389.408         330.465         330.465 
       0.300721         375.287         318.449         318.449 
        0.30691         369.342         307.419         307.419 
       0.313033         353.966          297.05          297.05 
       0.319153         347.622         286.886         286.886 
       0.325316         337.449         276.718         276.718 
        0.33145         328.346         266.687         266.687 
       0.337538          317.09         256.982         256.982 
       0.343633          306.95         247.698         247.698 
       0.349808          298.42         238.881         238.881 
       0.355968         291.567         230.739         230.739 
       0.362074         284.427          223.27          223.27 
       0.368217         279.791         216.263         216.263 
       0.374374         273.508         209.607         209.607 
       0.380519         262.373         203.211         203.211 
       0.386598         257.671         197.054         197.054 
       0.392688         251.124         191.022         191.022 
        0.39888         245.632         185.057         185.057 
       0.405048         240.631         179.324         179.324 
       0.411186         237.539         173.865         173.865 
       0.417313          232.21         168.696         168.696 
       0.423458         226.218          163.79          163.79 
       0.429607         221.456         159.134         159.134 
       0.435692         217.391         154.746         154.746 
       0.441815         212.557         150.508         150.508 
       0.447964         206.407         146.394         146.394 
       0.454126         202.941           142.4           142.4 
       0.460267          200.89         138.541         138.541 
       0.466387         196.675         134.817         134.817 
        0.47254         194.294         131.203         131.203 
       0.478662         188.061         127.749         127.749 
       0.484765         185.668         124.447         124.447 
       0.490885         182.457         121.271         121.271 
       0.497035          180.67         118.205         118.205 
       0.503198         177.369          115.25          115.25 
       0.509342         172.755         112.407         112.407 
       0.515458         170.785         109.668         109.668 
       0.521598         166.706         107.003         107.003 
       0.527764         164.997         104.409         104.409 
       0.533884         164.171         101.918         101.918 
           0.54         159.886         99.5113         99.5113 
       0.546137         156.245         97.1768         97.1768 
       0.552299         154.572          94.912          94.912 
       0.558452         151.765         92.7285         92.7285 
       0.564573         151.034         90.6294         90.6294 
       0.570708         147.074         88.5938         88.5938 
       0.576825          145.35         86.6277         86.6277 
       0.582926          143.81         84.7254         84.7254 
       0.589034         141.574         82.8762         82.8762 
       0.595184         140.114         81.0695         81.0695 
       0.601379         136.809         79.3046         79.3046 
       0.607522         134.714         77.6075         77.6075 
       0.613639         133.566         75.9688         75.9688 
       0.619772          131.63          74.375          74.375 
       0.625918         130.486         72.8251         72.8251 
       0.632068         127.879         71.3195         71.3195 
       0.638161         126.026         69.8707         69.8707 
         0.6443         125.467         68.4523         68.4523 
       0.650464         122.972         67.0687         67.0687 
       0.656582         122.468         65.7338         65.7338 
       0.662703         120.917         64.4353         64.4353 
       0.668861         118.395          63.165          63.165 
       0.675024         118.345         61.9283         61.9283 
       0.681124         116.398         60.7376         60.7376 
       0.687237         114.333         59.5763         59.5763 
       0.693381         113.781         58.4405         58.4405 
       0.699536         112.294         57.3327         57.3327 
       0.705665         110.656          56.259          56.259 
       0.711789         109.223         55.2142         55.2142 
       0.717957         108.027         54.1892         54.1892 
        0.72409         107.213         53.1964         53.1964 
       0.730186         106.549         52.2349         52.2349 
       0.736317         104.669         51.2923         51.2923 
       0.742472          103.44         50.3698         50.3698 
       0.748622         101.859         49.4711         49.4711 
        0.75476         101.438         48.5966         48.5966 
       0.760888          100.85         47.7448         47.7448 
       0.767043         98.9689         46.9103         46.9103 
       0.773185         97.8246         46.0978         46.0978 
       0.779291         96.7596         45.3095         45.3095 
       0.785407         95.5584         44.5386         44.5386 
       0.791564         95.4091         43.7811         43.7811 
       0.797719         94.2216         43.0418         43.0418 
       0.803834          93.421         42.3245         42.3245 
       0.809972         92.7569         41.6212         41.6212 
       0.816124         91.6334         40.9326         40.9326 
       0.822261         90.4508         40.2616         40.2616 
       0.828378          90.222         39.6078         39.6078 
       0.834502         88.8312         38.9682         38.9682 
       0.840667         88.3423         38.3388         38.3388 
       0.846816         87.4442         37.7253         37.7253 
       0.852925         86.5809         37.1292         37.1292 
       0.859047         86.1871         36.5449         36.5449 
       0.865192         84.9021         35.9714         35.9714 
       0.871341         84.0275           35.41           35.41 
       0.877463         83.5175         34.8632         34.8632 
       0.883569         83.2593         34.3296         34.3296 
       0.889708         82.4525         33.8045         33.8045 
       0.895864         81.7079         33.2892         33.2892 
       0.902008         80.9132         32.7859         32.7859 
       0.908149         80.0225         32.2934         32.2934 
       0.914301         79.7122         31.8104         31.8104 
       0.920448         79.3355         31.3378         31.3378 
       0.926574         77.7711         30.8766         30.8766 
       0.932687         77.5116         30.4257         30.4257 
       0.938823         76.8564         29.9824         29.9824 
       0.944975         75.9726          29.547          29.547 
       0.951105         75.4069         29.1219         29.1219 
       0.957225         75.2698          28.706          28.706 
       0.963368         74.4296         28.2969         28.2969 
       0.969511          73.787         27.8958         27.8958 
       0.975621         73.2751         27.5048         27.5048 
       0.981748         72.5205         27.1204         27.1204 
       0.987916         72.0133         26.7409         26.7409 
        0.99406         71.6333         26.3703         26.3703 
        1.00019         70.8366         26.0074         26.0074 
        1.00632         70.3682         25.6518         25.6518 
        1.01246         69.8718         25.3024         25.3024 
        1.01859         69.5418         24.9602         24.9602 
        1.02471         68.7339         24.6248         24.6248 
        1.03085         68.3048         24.2944         24.2944 
        1.03698         67.8642         23.9709         23.9709 
        1.04314         67.3866          23.652          23.652 
        1.04929         66.8184         23.3396         23.3396 
        1.05541         66.4357         23.0343         23.0343 
        1.06154         66.0658         22.7337         22.7337 
        1.06769         65.2295          22.438          22.438 
        1.07382         64.8742         22.1486         22.1486 
        1.07993         64.5726         21.8651         21.8651 
        1.08607         64.0523         21.5854         21.5854 
        1.09222         63.7867         21.3103         21.3103 
        1.09836         63.1909         21.0404         21.0404 
        1.10449         62.8545         20.7756         20.7756 
        1.11063         62.2722          20.515          20.515 
        1.11677         62.1261         20.2591         20.2591 
         1.1229         61.4747          20.008          20.008 
        1.12903         61.2947          19.761          19.761 
        1.13518         61.1032         19.5181         19.5181 
        1.14131         60.4173         19.2793         19.2793 
        1.14745         59.8855         19.0448         19.0448 
        1.15359         59.3132         18.8141         18.8141 
        1.15973           59.27         18.5873         18.5873 
        1.16584         58.8201         18.3652         18.3652 
        1.17197         58.1727         18.1464         18.1464 
        1.17811         57.9475         17.9306         17.9306 
        1.18424         57.2422          17.719          17.719 
        1.19038         57.1567         17.5102         17.5102 
        1.19652         56.8912         17.3049         17.3049 
        1.20267          56.466         17.1029         17.1029 
        1.20881         56.0703         16.9042         16.9042 
        1.21495         55.8415          16.709          16.709 
        1.22108         55.6079          16.517          16.517 
         1.2272         55.0996         16.3284         16.3284 
        1.23334         54.7804         16.1424         16.1424 
        1.23949          54.459         15.9589         15.9589 
        1.24562         54.0409         15.7788         15.7788 
        1.25174         53.6917         15.6017         15.6017 
        1.25789         53.7195         15.4269         15.4269 
        1.26402         53.2214          15.255          15.255 
        1.27014         52.9458         15.0862         15.0862 
        1.27628         52.4195         14.9195         14.9195 
        1.28244         52.3213          14.755          14.755 
        1.28858         51.9358         14.5933         14.5933 
        1.29471         51.6645         14.4343         14.4343 
        1.30084         51.1985         14.2779         14.2779 
        1.30697         51.1569         14.1235         14.1235 
        1.31312         50.6805         13.9713         13.9713 
        1.31925         50.2935         13.8218         13.8218 
        1.32537         50.0785         13.6746         13.6746 
        1.33151         49.7748         13.5291         13.5291 
        1.33765         49.5334         13.3858         13.3858 
        1.34378         49.3758         13.2449         13.2449 
        1.34992         48.9712         13.1059         13.1059 
        1.35606          48.664         12.9686         12.9686 
         1.3622         48.3722         12.8336         12.8336 
        1.36833         48.1456         12.7008         12.7008 
        1.37445         47.7473           12.57           12.57 
        1.38059         47.6413         12.4407         12.4407 
        1.38675         47.1297         12.3129         12.3129 
        1.39288         47.1131         12.1873         12.1873 
        1.39901         46.7407         12.0637         12.0637 
        1.40515         46.5265         11.9414         11.9414 
         1.4113         46.4981          11.821          11.821 
        1.41742         46.1461         11.7026         11.7026 
        1.42355         45.7258         11.5857         11.5857 
         1.4297         45.5113           11.47           11.47 
        1.43585          45.195          11.356          11.356 
        1.44198         44.9618          11.244          11.244 
        1.44809         44.7056         11.1337         11.1337 
        1.45423         44.5647         11.0245         11.0245 
        1.46036         44.3181          10.917          10.917 
        1.46649         44.1344         10.8108         10.8108 
        1.47263         43.8102          10.706          10.706 
        1.47877          43.631         10.6027         10.6027 
        1.48491         43.4692         10.5006         10.5006 
        1.49104         43.0835            10.4            10.4 
        1.49718         42.9468         10.3007         10.3007 
        1.50333         42.8176         10.2026         10.2026 
        1.50947         42.4563         10.1059         10.1059 
         1.5156         42.2839         10.0107         10.0107 
        1.52172         41.9759         9.91665         9.91665 
        1.52787         41.8107         9.82366         9.82366 
          1.534           41.59         9.73198         9.73198 
        1.54013         41.4869         9.64158         9.64158 
        1.54627         41.0855         9.55216         9.55216 
        1.55241         40.9057         9.46388         9.46388 
        1.55855         40.8224         9.37684         9.37684 
        1.56467         40.5867         9.29114         9.29114 
         1.5708          40.396         9.20628         9.20628 
        1.57695         40.1749         9.12236         9.12236 
        1.58308         39.8453         9.03969         9.03969 
        1.58922         39.6587         8.95799         8.95799 
        1.59535         39.5381         8.87734         8.87734 
         1.6015         39.4414         8.79757         8.79757 
        1.60764         39.1798         8.71884         8.71884 
        1.61376         38.9117         8.64129         8.64129 
        1.61989         38.6913         8.56463         8.56463 
        1.62604         38.5283         8.48873         8.48873 
        1.63218         38.3342         8.41381         8.41381 
        1.63831          38.208         8.33997         8.33997 
        1.64444         37.9698           8.267           8.267 
        1.65059         37.7884         8.19473         8.19473 
        1.65673         37.5869         8.12341         8.12341 
        1.66285         37.5149         8.05315         8.05315 
        1.66898          37.152          7.9837          7.9837 
        1.67512         37.1063         7.91494         7.91494 
        1.68127         36.8915         7.84694         7.84694 
         1.6874         36.6939         7.77988         7.77988 
        1.69353         36.6016         7.71366         7.71366 
        1.69967         36.4229         7.64806         7.64806 
        1.70581         36.0804         7.58325         7.58325 
        1.71193         35.9313         7.51945         7.51945 
        1.71806         35.8529         7.45624         7.45624 
        1.72421         35.6704         7.39365         7.39365 
        1.73035         35.4652         7.33185         7.33185 
        1.73649         35.2226         7.27077         7.27077 
        1.74262         35.0068         7.21045         7.21045 
        1.74876         34.9117         7.15077         7.15077 
        1.75489         34.7383          7.0919          7.0919 
        1.76101         34.6249         7.03371         7.03371 
        1.76715         34.5039          6.9761          6.9761 
        1.77329         34.2071         6.91907         6.91907 
        1.77943         34.1879         6.86266         6.86266 
        1.78557         33.9877         6.80696         6.80696 
        1.79171         33.8467         6.75188         6.75188 
        1.79785         33.6552          6.6974          6.6974 
        1.80399         33.5067         6.64354         6.64354 
        1.81012         33.3861         6.59034         6.59034 
        1.81625         33.1015         6.53776         6.53776 
        1.82239          32.994         6.48567         6.48567 
        1.82853         32.8605         6.43419         6.43419 
        1.83466         32.6773         6.38331         6.38331 
        1.84078         32.5233         6.33304         6.33304 
        1.84692         32.3993         6.28324         6.28324 
        1.85306          32.174         6.23391         6.23391 
         1.8592         32.1152         6.18519         6.18519 
        1.86533          31.928         6.13703         6.13703 
        1.87147         31.7713         6.08932         6.08932 
        1.87761         31.6018          6.0421          6.0421 
