# k  (h/Mpc)    Pcb(k)  (Mpc/h)^3    Pcb_linear(k) (Mpc/h)^3    Pcb_NL(k) (Mpc/h)^3   ShotnoiseSubtracted = false
     0.00783031         5977.84         6011.67         6011.67 
       0.013688         7463.24         7601.78         7601.78 
       0.019231         7760.47         7835.77         7835.77 
      0.0249154         7390.54         7380.07         7380.07 
      0.0312784         6502.22         6538.55         6538.55 
      0.0375637         5644.39         5705.32         5705.32 
      0.0433917         5064.07         5075.61         5075.61 
      0.0492413         4566.56         4606.26         4606.26 
      0.0555754         4226.85         4238.35         4238.35 
      0.0619321         3846.26         3942.01         3942.01 
       0.067871         3623.93          3671.9          3671.9 
      0.0738098         3351.44         3378.93         3378.93 
      0.0800417         3036.48          3048.7          3048.7 
      0.0862327         2704.78         2722.79         2722.79 
      0.0921407          2433.1         2442.52         2442.52 
      0.0982031         2220.29         2206.24         2206.24 
       0.104506         2010.54         2021.12         2021.12 
       0.110769         1883.54         1888.47         1888.47 
       0.116806         1810.75         1790.95         1790.95 
       0.122832         1703.32         1704.14         1704.14 
       0.129052         1615.89         1610.35         1610.35 
       0.135211            1535         1506.69         1506.69 
       0.141259         1414.24         1396.95         1396.95 
       0.147318         1294.81          1287.2          1287.2 
       0.153489         1208.72         1184.96         1184.96 
       0.159709         1143.67         1098.34         1098.34 
       0.165845         1052.24         1030.91         1030.91 
       0.171974         1027.87         978.861         978.861 
       0.178125          988.58          936.59          936.59 
       0.184229          926.83         898.503         898.503 
        0.19034         902.859         859.499         859.499 
       0.196428         867.051         817.534         817.534 
       0.202534         806.711         772.731         772.731 
       0.208729         782.853         726.836         726.836 
       0.214876         747.269         683.789         683.789 
       0.220989         696.732         645.728         645.728 
       0.227147         680.491         613.181         613.181 
        0.23329         655.428         586.113         586.113 
       0.239377         641.611         563.215         563.215 
       0.245482         610.772         542.368         542.368 
       0.251667         586.612         521.806         521.806 
       0.257832         578.662         500.878         500.878 
       0.263955         546.369         479.493         479.493 
       0.270079         526.309         457.997         457.997 
        0.27624         502.755         437.062         437.062 
       0.282372         489.752         417.685         417.685 
        0.28843         485.242         400.408         400.408 
       0.294538         461.502         384.919         384.919 
       0.300721         445.682         370.922         370.922 
        0.30691         438.669         358.074         358.074 
       0.313033         420.254         345.996         345.996 
       0.319153          412.82         334.159         334.159 
       0.325316         402.063         322.315         322.315 
        0.33145         391.801         310.631         310.631 
       0.337538         378.137         299.327         299.327 
       0.343633         366.156         288.513         288.513 
       0.349808         356.384         278.243         278.243 
       0.355968         348.661          268.76          268.76 
       0.362074          339.49          260.06          260.06 
       0.368217         334.854         251.899         251.899 
       0.374374         327.501         244.146         244.146 
       0.380519         314.349         236.696         236.696 
       0.386598         309.252         229.524         229.524 
       0.392688         301.729         222.499         222.499 
        0.39888         294.708          215.55          215.55 
       0.405048         289.005         208.872         208.872 
       0.411186         286.015         202.514         202.514 
       0.417313         280.106         196.493         196.493 
       0.423458         272.717         190.778         190.778 
       0.429607         266.663         185.355         185.355 
       0.435692         261.764         180.244         180.244 
       0.441815         256.662         175.308         175.308 
       0.447964         249.456         170.517         170.517 
       0.454126         245.559         165.864         165.864 
       0.460267         242.739          161.37          161.37 
       0.466387         237.913         157.032         157.032 
        0.47254         234.954         152.823         152.823 
       0.478662         227.819         148.799         148.799 
       0.484765         225.081         144.953         144.953 
       0.490885         221.713         141.253         141.253 
       0.497035         219.106         137.682         137.682 
       0.503198         215.902          134.24          134.24 
       0.509342         210.211         130.929         130.929 
       0.515458         207.805         127.739         127.739 
       0.521598         202.978         124.634         124.634 
       0.527764          200.86         121.613         121.613 
       0.533884         200.112         118.712         118.712 
           0.54         195.172         115.909         115.909 
       0.546137         190.796         113.189         113.189 
       0.552299         189.138         110.551         110.551 
       0.558452         185.763         108.008         108.008 
       0.564573          184.71         105.563         105.563 
       0.570708          180.29         103.192         103.192 
       0.576825         177.975         100.902         100.902 
       0.582926         176.106         98.6862         98.6862 
       0.589034         173.545         96.5324         96.5324 
       0.595184         171.993         94.4279         94.4279 
       0.601379         168.168         92.3722         92.3722 
       0.607522         165.443         90.3955         90.3955 
       0.613639         164.102         88.4868         88.4868 
       0.619772         162.089         86.6303         86.6303 
       0.625918         160.753          84.825          84.825 
       0.632068         157.281         83.0713         83.0713 
       0.638161         155.339         81.3838         81.3838 
         0.6443          154.69         79.7317         79.7317 
       0.650464         151.689         78.1201         78.1201 
       0.656582         150.984         76.5653         76.5653 
       0.662703         149.234         75.0528         75.0528 
       0.668861         146.219         73.5731         73.5731 
       0.675024         146.217         72.1327         72.1327 
       0.681124         143.839         70.7458         70.7458 
       0.687237           141.6         69.3932         69.3932 
       0.693381         140.789         68.0701         68.0701 
       0.699536         138.955         66.7799         66.7799 
       0.705665          137.09         65.5292         65.5292 
       0.711789         135.381         64.3122         64.3122 
       0.717957         133.961         63.1184         63.1184 
        0.72409         132.953          61.962          61.962 
       0.730186          132.36          60.842          60.842 
       0.736317         130.084         59.7441         59.7441 
       0.742472         128.446         58.6695         58.6695 
       0.748622         126.485         57.6228         57.6228 
        0.75476         126.471         56.6042         56.6042 
       0.760888         125.436          55.612          55.612 
       0.767043         123.206         54.6401         54.6401 
       0.773185         121.801         53.6937         53.6937 
       0.779291         120.472         52.7754         52.7754 
       0.785407         119.193         51.8776         51.8776 
       0.791564         118.759         50.9952         50.9952 
       0.797719         117.313         50.1341         50.1341 
       0.803834         116.624         49.2986         49.2986 
       0.809972         115.855         48.4794         48.4794 
       0.816124         114.338         47.6773         47.6773 
       0.822261         113.004         46.8957         46.8957 
       0.828378         112.769         46.1343         46.1343 
       0.834502         110.968         45.3893         45.3893 
       0.840667         110.436         44.6562         44.6562 
       0.846816         109.428         43.9415         43.9415 
       0.852925         108.261         43.2472         43.2472 
       0.859047         107.621         42.5666         42.5666 
       0.865192         106.341         41.8986         41.8986 
       0.871341         105.241         41.2447         41.2447 
       0.877463         104.587         40.6079         40.6079 
       0.883569         104.324         39.9863         39.9863 
       0.889708         103.369         39.3748         39.3748 
       0.895864          102.41         38.7746         38.7746 
       0.902008         101.441         38.1883         38.1883 
       0.908149         100.202         37.6147         37.6147 
       0.914301         100.076          37.052          37.052 
       0.920448         99.5847         36.5015         36.5015 
       0.926574         97.6579         35.9643         35.9643 
       0.932687         97.4537         35.4392         35.4392 
       0.938823         96.6476         34.9228         34.9228 
       0.944975         95.5346         34.4157         34.4157 
       0.951105         94.8171         33.9205         33.9205 
       0.957225         94.7431         33.4361         33.4361 
       0.963368         93.6115         32.9596         32.9596 
       0.969511         92.8498         32.4924         32.4924 
       0.975621         92.1497          32.037          32.037 
       0.981748         91.2935         31.5892         31.5892 
       0.987916         90.6865         31.1472         31.1472 
        0.99406         90.3121         30.7155         30.7155 
        1.00019         89.2241         30.2929         30.2929 
        1.00632         88.6809         29.8787         29.8787 
        1.01246         88.0706         29.4717         29.4717 
        1.01859         87.6844         29.0731         29.0731 
        1.02471         86.7957         28.6824         28.6824 
        1.03085          86.095         28.2976         28.2976 
        1.03698         85.5743         27.9207         27.9207 
        1.04314         84.9394         27.5493         27.5493 
        1.04929         84.4626         27.1855         27.1855 
        1.05541         83.8873         26.8298         26.8298 
        1.06154         83.3852         26.4796         26.4796 
        1.06769         82.5156         26.1353         26.1353 
        1.07382         81.8876         25.7982         25.7982 
        1.07993         81.6259          25.468          25.468 
        1.08607         80.9485         25.1422         25.1422 
        1.09222         80.6642         24.8218         24.8218 
        1.09836         79.8275         24.5074         24.5074 
        1.10449         79.4184         24.1989         24.1989 
        1.11063         78.7461         23.8955         23.8955 
        1.11677         78.4089         23.5974         23.5974 
         1.1229         77.7066         23.3049         23.3049 
        1.12903         77.4884         23.0172         23.0172 
        1.13518         77.1734         22.7342         22.7342 
        1.14131         76.4252         22.4561         22.4561 
        1.14745         75.8192         22.1829         22.1829 
        1.15359         75.0217         21.9143         21.9143 
        1.15973         74.9905           21.65           21.65 
        1.16584         74.4248         21.3913         21.3913 
        1.17197         73.7629         21.1366         21.1366 
        1.17811         73.3688         20.8852         20.8852 
        1.18424         72.6049         20.6387         20.6387 
        1.19038         72.5494         20.3955         20.3955 
        1.19652         72.1324         20.1563         20.1563 
        1.20267         71.5297          19.921          19.921 
        1.20881         71.0742         19.6896         19.6896 
        1.21495         70.7487         19.4623         19.4623 
        1.22108         70.4312         19.2386         19.2386 
         1.2272         69.7524          19.019          19.019 
        1.23334         69.4573         18.8023         18.8023 
        1.23949         69.0276         18.5885         18.5885 
        1.24562         68.4991         18.3787         18.3787 
        1.25174          68.068         18.1725         18.1725 
        1.25789         68.1102         17.9688         17.9688 
        1.26402         67.4597         17.7687         17.7687 
        1.27014         67.1453         17.5721         17.5721 
        1.27628         66.4936         17.3779         17.3779 
        1.28244         66.3404         17.1863         17.1863 
        1.28858         65.9027         16.9979         16.9979 
        1.29471         65.5344         16.8127         16.8127 
        1.30084         64.9213         16.6305         16.6305 
        1.30697         64.9502         16.4508         16.4508 
        1.31312          64.351         16.2734         16.2734 
        1.31925         63.8873         16.0993         16.0993 
        1.32537         63.5731         15.9279         15.9279 
        1.33151         63.2789         15.7584         15.7584 
        1.33765         62.8735         15.5915         15.5915 
        1.34378         62.6704         15.4273         15.4273 
        1.34992         62.2334         15.2654         15.2654 
        1.35606         61.7865         15.1056         15.1056 
         1.3622         61.4871         14.9483         14.9483 
        1.36833         61.1189         14.7936         14.7936 
        1.37445         60.6094         14.6413         14.6413 
        1.38059         60.5228         14.4906         14.4906 
        1.38675          59.847         14.3417         14.3417 
        1.39288         59.8629         14.1955         14.1955 
        1.39901         59.3192         14.0515         14.0515 
        1.40515         59.0992         13.9091         13.9091 
         1.4113         58.9642         13.7688         13.7688 
        1.41742         58.5421          13.631          13.631 
        1.42355          58.113         13.4948         13.4948 
         1.4297         57.8248           13.36           13.36 
        1.43585         57.4129         13.2272         13.2272 
        1.44198         57.0832         13.0967         13.0967 
        1.44809         56.7611         12.9683         12.9683 
        1.45423         56.5343         12.8411         12.8411 
        1.46036         56.1992         12.7158         12.7158 
        1.46649          56.055         12.5922         12.5922 
        1.47263         55.6672         12.4702         12.4702 
        1.47877         55.4261         12.3498         12.3498 
        1.48491         55.1678         12.2308         12.2308 
        1.49104         54.6701         12.1137         12.1137 
        1.49718         54.4724         11.9981         11.9981 
        1.50333         54.2738         11.8837         11.8837 
        1.50947         53.9005         11.7711         11.7711 
         1.5156         53.6762         11.6602         11.6602 
        1.52172         53.2904         11.5507         11.5507 
        1.52787         53.0075         11.4424         11.4424 
          1.534         52.7915         11.3356         11.3356 
        1.54013         52.6268         11.2303         11.2303 
        1.54627         52.1171         11.1261         11.1261 
        1.55241         51.8575         11.0233         11.0233 
        1.55855         51.7742         10.9219         10.9219 
        1.56467         51.3706         10.8221         10.8221 
         1.5708         51.2355         10.7233         10.7233 
        1.57695         50.9203         10.6255         10.6255 
        1.58308         50.5633         10.5292         10.5292 
        1.58922         50.3317         10.4341         10.4341 
        1.59535         50.1627         10.3401         10.3401 
         1.6015         50.0796         10.2472         10.2472 
        1.60764         49.6844         10.1555         10.1555 
        1.61376          49.369         10.0652         10.0652 
        1.61989         49.0771         9.97588         9.97588 
        1.62604         48.8677         9.88748         9.88748 
        1.63218         48.6034         9.80021         9.80021 
        1.63831         48.4585         9.71421         9.71421 
        1.64444         48.1459         9.62921         9.62921 
        1.65059         47.9513         9.54504         9.54504 
        1.65673         47.5997         9.46197         9.46197 
        1.66285         47.5331         9.38012         9.38012 
        1.66898         47.0401         9.29923         9.29923 
        1.67512         46.9788         9.21914         9.21914 
        1.68127         46.7166         9.13993         9.13993 
         1.6874         46.4604         9.06183         9.06183 
        1.69353         46.3329          8.9847          8.9847 
        1.69967         46.1334         8.90828         8.90828 
        1.70581         45.7472          8.8328          8.8328 
        1.71193         45.5392         8.75848         8.75848 
        1.71806         45.3734         8.68486         8.68486 
        1.72421         45.1299         8.61195         8.61195 
        1.73035         44.9072         8.53997         8.53997 
        1.73649         44.5891         8.46883         8.46883 
        1.74262         44.2999         8.39856         8.39856 
        1.74876           44.22         8.32905         8.32905 
        1.75489         43.9312         8.26048         8.26048 
        1.76101         43.7542          8.1927          8.1927 
        1.76715         43.6932          8.1256          8.1256 
        1.77329         43.2364         8.05917         8.05917 
        1.77943         43.2562         7.99346         7.99346 
        1.78557         43.0078         7.92859         7.92859 
        1.79171         42.7859         7.86443         7.86443 
        1.79785         42.5362         7.80098         7.80098 
        1.80399         42.3312         7.73824         7.73824 
        1.81012         42.1828         7.67628         7.67628 
        1.81625         41.8371         7.61503         7.61503 
        1.82239         41.6619         7.55437         7.55437 
        1.82853         41.5451         7.49439         7.49439 
        1.83466         41.2804         7.43513         7.43513 
        1.84078         41.1051         7.37658         7.37658 
        1.84692         40.8707         7.31857         7.31857 
        1.85306         40.6401         7.26112         7.26112 
         1.8592         40.5474         7.20437         7.20437 
        1.86533         40.3389         7.14827         7.14827 
        1.87147          40.117          7.0927          7.0927 
