# k  (h/Mpc)    Pcb(k)  (Mpc/h)^3    Pcb_linear(k) (Mpc/h)^3    Pcb_NL(k) (Mpc/h)^3   ShotnoiseSubtracted = false
     0.00783031         14562.7         14633.8         14633.8 
       0.013688         18063.3         18553.7         18553.7 
       0.019231         18828.2         19135.8         19135.8 
      0.0249154         18026.1         18026.8         18026.8 
      0.0312784         15759.2         15972.9         15972.9 
      0.0375637           13632         13938.1         13938.1 
      0.0433917         12264.7         12400.1         12400.1 
      0.0492413         11026.9         11253.6         11253.6 
      0.0555754         10202.9         10354.9         10354.9 
      0.0619321         9191.28         9630.95         9630.95 
       0.067871         8682.61         8971.07         8971.07 
      0.0738098         8070.29         8255.31         8255.31 
      0.0800417         7307.82         7448.52         7448.52 
      0.0862327         6518.94         6652.28         6652.28 
      0.0921407         5896.26         5967.53         5967.53 
      0.0982031         5413.11         5390.26         5390.26 
       0.104506          4893.3         4937.98         4937.98 
       0.110769         4590.71         4613.89         4613.89 
       0.116806         4421.37         4375.65         4375.65 
       0.122832         4163.67         4163.56         4163.56 
       0.129052         3928.04         3934.41         3934.41 
       0.135211         3777.65         3681.13         3681.13 
       0.141259         3476.02         3413.02         3413.02 
       0.147318         3203.62         3144.89         3144.89 
       0.153489         3014.63         2895.08         2895.08 
       0.159709         2897.68         2683.47         2683.47 
       0.165845         2663.24         2518.73         2518.73 
       0.171974         2605.81         2391.55         2391.55 
       0.178125         2532.23         2288.28         2288.28 
       0.184229         2341.49         2195.22         2195.22 
        0.19034         2304.87         2099.93         2099.93 
       0.196428         2234.47          1997.4          1997.4 
       0.202534          2095.8         1887.94         1887.94 
       0.208729         2048.35         1775.81         1775.81 
       0.214876         1955.62         1670.64         1670.64 
       0.220989         1860.01         1577.64         1577.64 
       0.227147         1812.41         1498.13         1498.13 
        0.23329         1744.99         1431.99         1431.99 
       0.239377         1735.99         1376.05         1376.05 
       0.245482         1657.66         1325.12         1325.12 
       0.251667         1597.22         1274.88         1274.88 
       0.257832         1572.57         1223.75         1223.75 
       0.263955            1502          1171.5          1171.5 
       0.270079         1463.54         1118.98         1118.98 
        0.27624         1402.44         1067.83         1067.83 
       0.282372          1386.6         1020.49         1020.49 
        0.28843         1362.18         978.279         978.279 
       0.294538         1301.72         940.436         940.436 
       0.300721         1277.96         906.238         906.238 
        0.30691         1247.75         874.847         874.847 
       0.313033         1201.53         845.339         845.339 
       0.319153         1188.95         816.418         816.418 
       0.325316         1174.26         787.481         787.481 
        0.33145         1148.93         758.935         758.935 
       0.337538         1112.24         731.317         731.317 
       0.343633         1086.46         704.897         704.897 
       0.349808         1067.33         679.803         679.803 
       0.355968         1045.98         656.635         656.635 
       0.362074         1015.18         635.379         635.379 
       0.368217         1012.18         615.439         615.439 
       0.374374         997.114         596.497         596.497 
       0.380519         962.831         578.296         578.296 
       0.386598         957.843         560.774         560.774 
       0.392688          934.36         543.609         543.609 
        0.39888         915.127         526.633         526.633 
       0.405048         897.821         510.317         510.317 
       0.411186         895.148         494.783         494.783 
       0.417313         890.855         480.073         480.073 
       0.423458         863.796          466.11          466.11 
       0.429607         840.783          452.86          452.86 
       0.435692         833.928         440.374         440.374 
       0.441815         818.509         428.313         428.313 
       0.447964         808.318         416.607         416.607 
       0.454126         798.203          405.24          405.24 
       0.460267         788.021         394.259         394.259 
       0.466387          775.09          383.66          383.66 
        0.47254         762.374         373.377         373.377 
       0.478662         752.319         363.547         363.547 
       0.484765         744.185          354.15          354.15 
       0.490885         736.505         345.111         345.111 
       0.497035         722.767         336.385         336.385 
       0.503198         721.657         327.976         327.976 
       0.509342         708.374         319.886         319.886 
       0.515458         694.481         312.093         312.093 
       0.521598         692.162         304.507         304.507 
       0.527764         676.583         297.126         297.126 
       0.533884         670.522         290.037         290.037 
           0.54         665.054         283.188         283.188 
       0.546137         655.589         276.544         276.544 
       0.552299          651.72           270.1           270.1 
       0.558452         643.846         263.886         263.886 
       0.564573         639.007         257.912         257.912 
       0.570708         632.648         252.119         252.119 
       0.576825         619.795         246.524         246.524 
       0.582926          618.21          241.11          241.11 
       0.589034         609.735         235.848         235.848 
       0.595184         603.757         230.706         230.706 
       0.601379         594.479         225.684         225.684 
       0.607522         585.535         220.854         220.854 
       0.613639         584.595         216.191         216.191 
       0.619772         580.487         211.655         211.655 
       0.625918         570.573         207.245         207.245 
       0.632068         568.126          202.96          202.96 
       0.638161         560.894         198.837         198.837 
         0.6443         555.023         194.801         194.801 
       0.650464         550.284         190.863         190.863 
       0.656582         545.954         187.064         187.064 
       0.662703         539.815         183.369         183.369 
       0.668861         533.699         179.754         179.754 
       0.675024         530.616         176.235         176.235 
       0.681124         521.183         172.846         172.846 
       0.687237         521.067         169.542         169.542 
       0.693381         512.375         166.309         166.309 
       0.699536         512.633         163.157         163.157 
       0.705665         505.404         160.101         160.101 
       0.711789         504.263         157.128         157.128 
       0.717957         497.307         154.211         154.211 
        0.72409         492.943         151.386         151.386 
       0.730186         492.458         148.649         148.649 
       0.736317         485.075         145.967         145.967 
       0.742472         479.996         143.342         143.342 
       0.748622          477.91         140.784         140.784 
        0.75476          472.61         138.295         138.295 
       0.760888         469.928         135.871         135.871 
       0.767043         467.102         133.497         133.497 
       0.773185         463.527         131.185         131.185 
       0.779291         458.274         128.941         128.941 
       0.785407         454.767         126.747         126.747 
       0.791564         452.308         124.592         124.592 
       0.797719         445.411         122.488         122.488 
       0.803834         446.858         120.446         120.446 
       0.809972         439.698         118.445         118.445 
       0.816124         436.185         116.485         116.485 
       0.822261         433.679         114.576         114.576 
       0.828378         431.394         112.715         112.715 
       0.834502         424.725         110.895         110.895 
       0.840667         424.454         109.104         109.104 
       0.846816         418.814         107.358         107.358 
       0.852925         418.963         105.662         105.662 
       0.859047         414.595         103.999         103.999 
       0.865192          412.27         102.367         102.367 
       0.871341         406.778         100.769         100.769 
       0.877463         405.597         99.2133         99.2133 
       0.883569         401.762         97.6947         97.6947 
       0.889708         397.737         96.2005         96.2005 
       0.895864         393.773         94.7341         94.7341 
       0.902008         392.933         93.3017         93.3017 
       0.908149         389.174         91.9002         91.9002 
       0.914301         387.776         90.5256         90.5256 
       0.920448         383.427         89.1807         89.1807 
       0.926574          381.26         87.8681         87.8681 
       0.932687         380.032         86.5851         86.5851 
       0.938823         375.324         85.3235         85.3235 
       0.944975          374.27         84.0844         84.0844 
       0.951105         370.931         82.8747         82.8747 
       0.957225         366.047         81.6911         81.6911 
       0.963368         366.808         80.5269         80.5269 
       0.969511         360.644         79.3856         79.3856 
       0.975621         359.586         78.2729         78.2729 
       0.981748         357.874         77.1788         77.1788 
       0.987916         355.604          76.099          76.099 
        0.99406         351.895         75.0442         75.0442 
        1.00019         348.624         74.0116         74.0116 
        1.00632         348.067         72.9997         72.9997 
        1.01246         345.047         72.0054         72.0054 
        1.01859         341.486         71.0314         71.0314 
        1.02471         339.606         70.0768         70.0768 
        1.03085         338.137         69.1367         69.1367 
        1.03698         336.119          68.216          68.216 
        1.04314         334.174         67.3084         67.3084 
        1.04929         332.255         66.4196         66.4196 
        1.05541         328.123         65.5506         65.5506 
        1.06154         326.562         64.6951         64.6951 
        1.06769         323.581         63.8538         63.8538 
        1.07382         321.563         63.0303         63.0303 
        1.07993         320.234         62.2234         62.2234 
        1.08607         318.156         61.4274         61.4274 
        1.09222         315.313         60.6446         60.6446 
        1.09836         313.933         59.8766         59.8766 
        1.10449         311.618         59.1229         59.1229 
        1.11063         309.735         58.3814         58.3814 
        1.11677         306.149         57.6531         57.6531 
         1.1229         305.726         56.9386         56.9386 
        1.12903         302.916         56.2357         56.2357 
        1.13518         300.856         55.5442         55.5442 
        1.14131         299.591         54.8649         54.8649 
        1.14745         296.178         54.1974         54.1974 
        1.15359         294.041          53.541          53.541 
        1.15973         292.756         52.8954         52.8954 
        1.16584         291.184         52.2634         52.2634 
        1.17197         289.101         51.6409         51.6409 
        1.17811         286.127         51.0267         51.0267 
        1.18424         285.009         50.4245         50.4245 
        1.19038          283.48         49.8303         49.8303 
        1.19652         280.239          49.246          49.246 
        1.20267         279.695         48.6711         48.6711 
        1.20881         277.673         48.1057         48.1057 
        1.21495         275.831         47.5502         47.5502 
        1.22108         274.233         47.0037         47.0037 
         1.2272         270.589         46.4672         46.4672 
        1.23334         269.883         45.9378         45.9378 
        1.23949         268.201         45.4156         45.4156 
        1.24562         266.902          44.903          44.903 
        1.25174         264.999         44.3991         44.3991 
        1.25789         262.636         43.9015         43.9015 
        1.26402         261.904         43.4125         43.4125 
        1.27014         260.425         42.9322         42.9322 
        1.27628         258.076         42.4578         42.4578 
        1.28244         256.205         41.9897         41.9897 
        1.28858         255.136         41.5293         41.5293 
        1.29471         253.546         41.0769         41.0769 
        1.30084         252.573         40.6318         40.6318 
        1.30697         249.655         40.1926         40.1926 
        1.31312         248.198         39.7593         39.7593 
        1.31925         246.896         39.3338         39.3338 
        1.32537         245.925          38.915          38.915 
        1.33151         243.592         38.5009         38.5009 
        1.33765         241.637         38.0931         38.0931 
        1.34378          240.67          37.692          37.692 
        1.34992         238.265         37.2966         37.2966 
        1.35606         237.262         36.9059         36.9059 
         1.3622         235.553         36.5217         36.5217 
        1.36833         234.565         36.1438         36.1438 
        1.37445         233.691         35.7716         35.7716 
        1.38059         230.834         35.4035         35.4035 
        1.38675         229.506         35.0397         35.0397 
        1.39288         228.558         34.6826         34.6826 
        1.39901         226.468         34.3306         34.3306 
        1.40515         225.569         33.9828         33.9828 
         1.4113         223.805         33.6399         33.6399 
        1.41742         221.922         33.3032         33.3032 
        1.42355         221.692         32.9704         32.9704 
         1.4297         219.746         32.6413         32.6413 
        1.43585         218.243         32.3168         32.3168 
        1.44198         216.693          31.998          31.998 
        1.44809         215.741         31.6841         31.6841 
        1.45423          214.35         31.3733         31.3733 
        1.46036         213.262         31.0673         31.0673 
        1.46649         211.814         30.7653         30.7653 
        1.47263         210.428         30.4671         30.4671 
        1.47877         208.917          30.173          30.173 
        1.48491         207.328         29.8824         29.8824 
        1.49104         205.596         29.5963         29.5963 
        1.49718         204.919         29.3137         29.3137 
        1.50333         203.021         29.0344         29.0344 
        1.50947         202.151         28.7593         28.7593 
         1.5156         200.896         28.4882         28.4882 
        1.52172         199.621         28.2207         28.2207 
        1.52787         198.166          27.956          27.956 
          1.534         197.714         27.6951         27.6951 
        1.54013         195.886         27.4379         27.4379 
        1.54627         194.878         27.1834         27.1834 
        1.55241         193.824         26.9322         26.9322 
        1.55855         192.586         26.6845         26.6845 
        1.56467         191.463         26.4406         26.4406 
         1.5708         189.829         26.1991         26.1991 
        1.57695         188.987         25.9603         25.9603 
        1.58308         187.817          25.725          25.725 
        1.58922         186.366         25.4925         25.4925 
        1.59535         184.945          25.263          25.263 
         1.6015         184.331          25.036          25.036 
        1.60764         182.775         24.8119         24.8119 
        1.61376         181.411         24.5912         24.5912 
        1.61989         180.316         24.3731         24.3731 
        1.62604           179.4         24.1571         24.1571 
        1.63218         178.199         23.9439         23.9439 
        1.63831         177.566         23.7338         23.7338 
        1.64444          175.85         23.5261         23.5261 
        1.65059         175.037         23.3204         23.3204 
        1.65673         173.823         23.1175         23.1175 
        1.66285         172.929         22.9175         22.9175 
        1.66898         171.865         22.7199         22.7199 
        1.67512         170.656         22.5242         22.5242 
        1.68127         169.811         22.3307         22.3307 
         1.6874         168.561         22.1399         22.1399 
        1.69353         167.953         21.9514         21.9514 
        1.69967          166.48         21.7647         21.7647 
        1.70581         165.914         21.5803         21.5803 
        1.71193         164.601         21.3987         21.3987 
        1.71806         163.216         21.2189         21.2189 
        1.72421         162.457         21.0407         21.0407 
        1.73035          161.38         20.8649         20.8649 
        1.73649         160.187          20.691          20.691 
        1.74262         159.497         20.5194         20.5194 
        1.74876         158.628         20.3495         20.3495 
        1.75489         157.833          20.182          20.182 
        1.76101         156.562         20.0164         20.0164 
        1.76715         155.532         19.8525         19.8525 
        1.77329         154.401         19.6902         19.6902 
        1.77943         153.432         19.5296         19.5296 
        1.78557         152.611         19.3711         19.3711 
        1.79171         151.906         19.2144         19.2144 
        1.79785         150.745         19.0594         19.0594 
        1.80399         149.897         18.9061         18.9061 
        1.81012         149.258         18.7547         18.7547 
        1.81625         147.859         18.6051         18.6051 
        1.82239         147.279         18.4568         18.4568 
        1.82853         146.331         18.3103         18.3103 
        1.83466         144.976         18.1655         18.1655 
        1.84078         144.569         18.0225         18.0225 
        1.84692         143.733         17.8807         17.8807 
        1.85306         142.561         17.7404         17.7404 
         1.8592         142.054         17.6017         17.6017 
        1.86533          140.61         17.4647         17.4647 
        1.87147         139.874         17.3289         17.3289 
