# k  (h/Mpc)    Pcb(k)  (Mpc/h)^3    Pcb_linear(k) (Mpc/h)^3    Pcb_NL(k) (Mpc/h)^3   ShotnoiseSubtracted = false
     0.00783031         5595.87         5627.92         5627.92 
       0.013688         6990.03         7116.53         7116.53 
       0.019231         7267.56         7335.62         7335.62 
      0.0249154         6918.94         6909.04         6909.04 
      0.0312784          6089.4         6121.24         6121.24 
      0.0375637         5287.13          5341.2          5341.2 
      0.0433917          4742.6         4751.68         4751.68 
      0.0492413         4277.48         4312.29         4312.29 
      0.0555754         3959.03         3967.86         3967.86 
      0.0619321         3604.84         3690.44         3690.44 
       0.067871         3395.65         3437.57         3437.57 
      0.0738098         3139.58         3163.29         3163.29 
      0.0800417         2844.45         2854.14         2854.14 
      0.0862327          2533.7         2549.03         2549.03 
      0.0921407         2278.63         2286.64         2286.64 
      0.0982031         2078.63         2065.44         2065.44 
       0.104506         1882.63         1892.13         1892.13 
       0.110769         1763.55         1767.95         1767.95 
       0.116806         1694.92         1676.66         1676.66 
       0.122832          1594.6         1595.39         1595.39 
       0.129052            1513         1507.59         1507.59 
       0.135211         1436.24         1410.53         1410.53 
       0.141259         1323.41          1307.8          1307.8 
       0.147318         1211.54         1205.06         1205.06 
       0.153489         1130.43         1109.34         1109.34 
       0.159709         1068.58         1028.25         1028.25 
       0.165845         983.493         965.124         965.124 
       0.171974         960.214         916.394         916.394 
       0.178125         923.039          876.82          876.82 
       0.184229         866.248         841.164         841.164 
        0.19034         843.343         804.649         804.649 
       0.196428         809.393         765.361         765.361 
       0.202534         753.076         723.418         723.418 
       0.208729         730.141         680.452         680.452 
       0.214876         696.882         640.152         640.152 
       0.220989         649.338          604.52          604.52 
       0.227147         634.056          574.05          574.05 
        0.23329         610.633         548.709         548.709 
       0.239377         597.136         527.272         527.272 
       0.245482         568.551         507.756         507.756 
       0.251667          545.91         488.506         488.506 
       0.257832         538.314         468.914         468.914 
       0.263955         508.172         448.893         448.893 
       0.270079         489.285         428.769         428.769 
        0.27624         467.266         409.171         409.171 
       0.282372         454.757         391.029         391.029 
        0.28843         450.443         374.856         374.856 
       0.294538         428.564         360.355         360.355 
       0.300721         413.467         347.251         347.251 
        0.30691         406.955         335.223         335.223 
       0.313033          389.93         323.916         323.916 
       0.319153         382.982         312.834         312.834 
       0.325316         372.437         301.746         301.746 
        0.33145         362.685         290.808         290.808 
       0.337538         350.133         280.225         280.225 
       0.343633          338.98         270.101         270.101 
       0.349808          329.76         260.486         260.486 
       0.355968         322.422         251.609         251.609 
       0.362074         314.217         243.464         243.464 
       0.368217         309.542         235.823         235.823 
       0.374374         302.659         228.565         228.565 
       0.380519         290.429         221.591         221.591 
       0.386598         285.491         214.877         214.877 
       0.392688         278.403           208.3           208.3 
        0.39888         272.108         201.795         201.795 
       0.405048         266.717         195.543         195.543 
       0.411186         263.655          189.59          189.59 
       0.417313         257.982         183.954         183.954 
       0.423458         251.251         178.604         178.604 
       0.429607         245.808         173.527         173.527 
       0.435692         241.287         168.742         168.742 
       0.441815         236.293         164.121         164.121 
       0.447964         229.551         159.635         159.635 
       0.454126         225.835         155.279         155.279 
       0.460267         223.392         151.072         151.072 
       0.466387         218.839          147.01          147.01 
        0.47254         216.157          143.07          143.07 
       0.478662         209.408         139.303         139.303 
       0.484765         206.828         135.703         135.703 
       0.490885         203.516         132.239         132.239 
       0.497035         201.324         128.896         128.896 
       0.503198         198.026         125.673         125.673 
       0.509342         192.832         122.574         122.574 
       0.515458         190.638         119.587         119.587 
       0.521598         186.142         116.681         116.681 
       0.527764         184.224         113.852         113.852 
       0.533884         183.441         111.136         111.136 
           0.54         178.772         108.512         108.512 
       0.546137         174.742         105.966         105.966 
       0.552299         173.054         103.496         103.496 
       0.558452         169.941         101.115         101.115 
       0.564573         169.054         98.8264         98.8264 
       0.570708         164.819         96.6068         96.6068 
       0.576825         162.792         94.4627         94.4627 
       0.582926         161.077         92.3884         92.3884 
       0.589034         158.662          90.372          90.372 
       0.595184         157.146         88.4018         88.4018 
       0.601379         153.544         86.4773         86.4773 
       0.607522         151.123         84.6268         84.6268 
       0.613639         149.867         82.8399         82.8399 
       0.619772         147.867         81.1019         81.1019 
       0.625918         146.642         79.4118         79.4118 
       0.632068         143.558           77.77           77.77 
       0.638161         141.643         76.1901         76.1901 
         0.6443          141.05         74.6435         74.6435 
       0.650464         138.283         73.1348         73.1348 
       0.656582         137.684         71.6792         71.6792 
       0.662703         136.011         70.2632         70.2632 
       0.668861         133.221          68.878          68.878 
       0.675024         133.209         67.5294         67.5294 
       0.681124         131.016         66.2311         66.2311 
       0.687237         128.836         64.9648         64.9648 
       0.693381         128.173         63.7262         63.7262 
       0.699536         126.487         62.5182         62.5182 
       0.705665         124.719         61.3474         61.3474 
       0.711789         123.138         60.2081         60.2081 
       0.717957         121.826         59.0904         59.0904 
        0.72409          120.92         58.0078         58.0078 
       0.730186         120.266         56.9593         56.9593 
       0.736317         118.171         55.9314         55.9314 
       0.742472         116.731         54.9255         54.9255 
       0.748622         114.947         53.9455         53.9455 
        0.75476         114.734         52.9919         52.9919 
       0.760888         113.921         52.0631         52.0631 
       0.767043         111.846         51.1532         51.1532 
       0.773185         110.551         50.2672         50.2672 
       0.779291         109.354         49.4075         49.4075 
       0.785407         108.095         48.5669         48.5669 
       0.791564         107.812         47.7409         47.7409 
       0.797719         106.498         46.9347         46.9347 
       0.803834         105.726         46.1526         46.1526 
       0.809972         105.019         45.3856         45.3856 
       0.816124         103.693         44.6347         44.6347 
       0.822261         102.415          43.903          43.903 
       0.828378         102.183         43.1902         43.1902 
       0.834502         100.574         42.4927         42.4927 
       0.840667         100.057         41.8064         41.8064 
       0.846816         99.1127         41.1373         41.1373 
       0.852925         98.0773         40.4873         40.4873 
       0.859047         97.5733         39.8502         39.8502 
       0.865192         96.2629         39.2248         39.2248 
       0.871341         95.2711         38.6126         38.6126 
       0.877463         94.6906         38.0165         38.0165 
       0.883569         94.4266         37.4346         37.4346 
       0.889708         93.5432          36.862          36.862 
       0.895864         92.6916         36.3001         36.3001 
       0.902008         91.8073         35.7513         35.7513 
       0.908149         90.7264         35.2142         35.2142 
       0.914301         90.5061         34.6875         34.6875 
       0.920448         90.0789         34.1722         34.1722 
       0.926574         88.3073         33.6692         33.6692 
       0.932687         88.0724         33.1776         33.1776 
       0.938823          87.343         32.6942         32.6942 
       0.944975         86.3293         32.2194         32.2194 
       0.951105         85.6839         31.7558         31.7558 
       0.957225         85.5862         31.3023         31.3023 
       0.963368         84.5956         30.8562         30.8562 
       0.969511          83.885         30.4189         30.4189 
       0.975621         83.2819         29.9925         29.9925 
       0.981748         82.4639         29.5733         29.5733 
       0.987916         81.8987         29.1595         29.1595 
        0.99406         81.5299         28.7554         28.7554 
        1.00019          80.566         28.3597         28.3597 
        1.00632         80.0574         27.9719         27.9719 
        1.01246         79.5064         27.5909         27.5909 
        1.01859         79.1587         27.2177         27.2177 
        1.02471         78.2889          26.852          26.852 
        1.03085         77.7199         26.4917         26.4917 
        1.03698         77.2407         26.1389         26.1389 
        1.04314          76.677         25.7912         25.7912 
        1.04929         76.1499         25.4506         25.4506 
        1.05541         75.6659         25.1176         25.1176 
        1.06154         75.2277         24.7898         24.7898 
        1.06769         74.3677         24.4674         24.4674 
        1.07382         73.8668         24.1519         24.1519 
        1.07993         73.5962         23.8427         23.8427 
        1.08607         72.9936         23.5377         23.5377 
        1.09222         72.7173         23.2377         23.2377 
        1.09836         72.0004         22.9434         22.9434 
        1.10449         71.6206         22.6546         22.6546 
        1.11063         70.9847         22.3705         22.3705 
        1.11677         70.7481         22.0915         22.0915 
         1.1229           70.06         21.8177         21.8177 
        1.12903         69.8705         21.5483         21.5483 
        1.13518         69.6231         21.2834         21.2834 
        1.14131         68.8885         21.0231         21.0231 
        1.14745         68.3138         20.7673         20.7673 
        1.15359          67.625         20.5158         20.5158 
        1.15973         67.5988         20.2684         20.2684 
        1.16584         67.0816         20.0262         20.0262 
        1.17197         66.4139         19.7877         19.7877 
        1.17811         66.1122         19.5524         19.5524 
        1.18424         65.3593         19.3216         19.3216 
        1.19038         65.2895         19.0939         19.0939 
        1.19652         64.9581           18.87           18.87 
        1.20267         64.4344         18.6498         18.6498 
        1.20881         64.0037         18.4331         18.4331 
        1.21495         63.7306         18.2203         18.2203 
        1.22108         63.4544         18.0108         18.0108 
         1.2272         62.8532         17.8052         17.8052 
        1.23334         62.5376         17.6024         17.6024 
        1.23949         62.1661         17.4023         17.4023 
        1.24562         61.6969         17.2059         17.2059 
        1.25174         61.2979         17.0128         17.0128 
        1.25789         61.3405         16.8221         16.8221 
        1.26402         60.7571         16.6348         16.6348 
        1.27014          60.464         16.4507         16.4507 
        1.27628         59.8673         16.2689         16.2689 
        1.28244           59.74         16.0896         16.0896 
        1.28858         59.3311         15.9132         15.9132 
        1.29471         59.0091         15.7398         15.7398 
        1.30084          58.461         15.5692         15.5692 
        1.30697         58.4631         15.4009         15.4009 
        1.31312         57.9154         15.2349         15.2349 
        1.31925         57.4823         15.0719         15.0719 
        1.32537         57.2236         14.9114         14.9114 
        1.33151         56.9123         14.7527         14.7527 
        1.33765         56.5904         14.5965         14.5965 
        1.34378         56.4136         14.4428         14.4428 
        1.34992         55.9824         14.2913         14.2913 
        1.35606         55.5993         14.1416         14.1416 
         1.3622         55.3007         13.9943         13.9943 
        1.36833         55.0122         13.8496         13.8496 
        1.37445         54.5482         13.7069         13.7069 
        1.38059         54.4616         13.5659         13.5659 
        1.38675         53.8547         13.4265         13.4265 
        1.39288         53.8583         13.2896         13.2896 
        1.39901         53.4009         13.1548         13.1548 
        1.40515         53.1795         13.0215         13.0215 
         1.4113         53.1088         12.8901         12.8901 
        1.41742         52.7093         12.7611         12.7611 
        1.42355         52.2768         12.6336         12.6336 
         1.4297         52.0278         12.5075         12.5075 
        1.43585         51.6615         12.3831         12.3831 
        1.44198         51.3673          12.261          12.261 
        1.44809         51.0821         12.1407         12.1407 
        1.45423         50.9029         12.0216         12.0216 
        1.46036         50.6148         11.9043         11.9043 
        1.46649         50.4504         11.7886         11.7886 
        1.47263         50.0875         11.6744         11.6744 
        1.47877         49.8742         11.5617         11.5617 
        1.48491         49.6693         11.4503         11.4503 
        1.49104         49.2187         11.3407         11.3407 
        1.49718         49.0507         11.2324         11.2324 
        1.50333         48.8913         11.1254         11.1254 
        1.50947         48.5087           11.02           11.02 
         1.5156         48.3116         10.9161         10.9161 
        1.52172         47.9647         10.8136         10.8136 
        1.52787         47.7472         10.7122         10.7122 
          1.534         47.5222         10.6122         10.6122 
        1.54013         47.3922         10.5136         10.5136 
        1.54627         46.9308         10.4161         10.4161 
        1.55241         46.7051         10.3198         10.3198 
        1.55855         46.6331         10.2249         10.2249 
        1.56467         46.3078         10.1315         10.1315 
         1.5708         46.1473         10.0389         10.0389 
        1.57695         45.8736         9.94744         9.94744 
        1.58308         45.5238         9.85729         9.85729 
        1.58922         45.3174          9.7682          9.7682 
        1.59535         45.1685         9.68025         9.68025 
         1.6015         45.0822         9.59327         9.59327 
        1.60764          44.746         9.50741         9.50741 
        1.61376         44.4528         9.42285         9.42285 
        1.61989         44.2056         9.33926         9.33926 
        1.62604         44.0123          9.2565          9.2565 
        1.63218         43.7747          9.1748          9.1748 
        1.63831         43.6425         9.09428         9.09428 
        1.64444         43.3614         9.01471         9.01471 
        1.65059         43.1734         8.93591         8.93591 
        1.65673         42.8963         8.85814         8.85814 
        1.66285         42.8357         8.78152         8.78152 
        1.66898         42.3926         8.70579         8.70579 
        1.67512         42.3425         8.63081         8.63081 
        1.68127         42.1018         8.55665         8.55665 
         1.6874          41.875         8.48354         8.48354 
        1.69353         41.7704         8.41133         8.41133 
        1.69967         41.5832         8.33979         8.33979 
        1.70581         41.2041         8.26912         8.26912 
        1.71193         41.0266         8.19955         8.19955 
        1.71806          40.909         8.13063         8.13063 
        1.72421         40.6861         8.06237         8.06237 
        1.73035         40.4728         7.99498         7.99498 
        1.73649          40.186         7.92838         7.92838 
        1.74262          39.933          7.8626          7.8626 
        1.74876         39.8442         7.79752         7.79752 
        1.75489         39.6164         7.73332         7.73332 
        1.76101         39.4737         7.66987         7.66987 
        1.76715         39.3759         7.60705         7.60705 
        1.77329         38.9993         7.54487         7.54487 
        1.77943         39.0032         7.48335         7.48335 
        1.78557         38.7724         7.42262         7.42262 
        1.79171            38.6         7.36255         7.36255 
        1.79785         38.3706         7.30315         7.30315 
        1.80399         38.1968         7.24441         7.24441 
        1.81012         38.0612         7.18641         7.18641 
        1.81625         37.7318         7.12907         7.12907 
        1.82239         37.5914         7.07227         7.07227 
        1.82853         37.4707         7.01613         7.01613 
        1.83466         37.2425         6.96065         6.96065 
        1.84078         37.0793         6.90584         6.90584 
        1.84692         36.8972         6.85153         6.85153 
        1.85306         36.6629         6.79774         6.79774 
         1.8592         36.5901         6.74461         6.74461 
        1.86533         36.3988         6.69209         6.69209 
        1.87147         36.2082         6.64007         6.64007 
