# k  (h/Mpc)    Pcb(k)  (Mpc/h)^3    Pcb_linear(k) (Mpc/h)^3    Pcb_NL(k) (Mpc/h)^3   ShotnoiseSubtracted = false
     0.00783031           11805         11863.6         11863.6 
       0.013688         14650.1         15011.1         15011.1 
       0.019231         15256.1         15474.8         15474.8 
      0.0249154         14583.8         14575.3         14575.3 
      0.0312784         12772.6         12913.4         12913.4 
      0.0375637           11059         11267.8         11267.8 
      0.0433917         9942.97         10024.1         10024.1 
      0.0492413          8946.4         9097.16         9097.16 
      0.0555754         8280.71         8370.55         8370.55 
      0.0619321          7479.1         7785.27         7785.27 
       0.067871         7062.03          7251.8          7251.8 
      0.0738098         6553.43         6673.19         6673.19 
      0.0800417         5936.46            6021            6021 
      0.0862327         5291.98         5377.34         5377.34 
      0.0921407         4778.25         4823.81         4823.81 
      0.0982031         4379.19         4357.17         4357.17 
       0.104506         3959.56         3991.57         3991.57 
       0.110769         3713.14         3729.59         3729.59 
       0.116806         3576.28            3537            3537 
       0.122832         3364.39         3365.56         3365.56 
       0.129052         3180.42         3180.33         3180.33 
       0.135211         3048.49         2975.59         2975.59 
       0.141259         2805.31         2758.87         2758.87 
       0.147318         2578.28         2542.13         2542.13 
       0.153489         2420.97          2340.2          2340.2 
       0.159709         2317.36         2169.14         2169.14 
       0.165845         2128.51         2035.97         2035.97 
       0.171974         2084.55         1933.18         1933.18 
       0.178125         2019.53         1849.69         1849.69 
       0.184229         1872.85         1774.47         1774.47 
        0.19034         1838.31         1697.44         1697.44 
       0.196428         1777.99         1614.57         1614.57 
       0.202534         1661.28         1526.08         1526.08 
       0.208729         1623.23         1435.44         1435.44 
       0.214876         1549.46         1350.43         1350.43 
       0.220989          1463.8         1275.26         1275.26 
       0.227147         1428.39         1210.98         1210.98 
        0.23329         1375.63         1157.53         1157.53 
       0.239377         1363.74          1112.3          1112.3 
       0.245482          1299.6         1071.13         1071.13 
       0.251667         1251.53         1030.53         1030.53 
       0.257832         1233.92         989.194         989.194 
       0.263955         1173.81          946.96          946.96 
       0.270079         1139.31         904.508         904.508 
        0.27624         1091.14         863.163         863.163 
       0.282372         1074.68         824.893         824.893 
        0.28843         1060.43         790.774         790.774 
       0.294538         1009.53         760.185         760.185 
       0.300721         987.158         732.542         732.542 
        0.30691         967.277         707.167         707.167 
       0.313033         928.259         683.315         683.315 
       0.319153         916.274         659.937         659.937 
       0.325316         903.789         636.546         636.546 
        0.33145         884.334         613.472         613.472 
       0.337538         853.949         591.146         591.146 
       0.343633         831.942          569.79          569.79 
       0.349808         814.839         549.507         549.507 
       0.355968         799.586         530.779         530.779 
       0.362074         773.883         513.597         513.597 
       0.368217         771.136         497.479         497.479 
       0.374374         759.187         482.168         482.168 
       0.380519         731.126         467.455         467.455 
       0.386598          725.17         453.291         453.291 
       0.392688         708.879         439.416         439.416 
        0.39888         691.382         425.694         425.694 
       0.405048         679.124         412.506         412.506 
       0.411186          677.02         399.949         399.949 
       0.417313         671.783         388.059         388.059 
       0.423458         651.265         376.772         376.772 
       0.429607         633.484         366.061         366.061 
       0.435692         626.379         355.968         355.968 
       0.441815         615.695         346.219         346.219 
       0.447964         605.107         336.757         336.757 
       0.454126         598.134         327.568         327.568 
       0.460267         588.906         318.692         318.692 
       0.466387         579.569         310.125         310.125 
        0.47254         570.272         301.812         301.812 
       0.478662         560.483         293.866         293.866 
       0.484765         554.541         286.271         286.271 
       0.490885         548.945         278.964         278.964 
       0.497035         538.039         271.911         271.911 
       0.503198         537.408         265.113         265.113 
       0.509342         526.262         258.574         258.574 
       0.515458         516.549         252.275         252.275 
       0.521598         511.238         246.142         246.142 
       0.527764         501.781         240.176         240.176 
       0.533884         498.696         234.446         234.446 
           0.54          492.89          228.91          228.91 
       0.546137         483.975          223.54          223.54 
       0.552299         482.674          218.33          218.33 
       0.558452         475.402         213.307         213.307 
       0.564573         470.799         208.478         208.478 
       0.570708         465.965         203.796         203.796 
       0.576825         456.847         199.273         199.273 
       0.582926         454.804         194.897         194.897 
       0.589034         447.954         190.643         190.643 
       0.595184         444.479         186.487         186.487 
       0.601379         437.355         182.427         182.427 
       0.607522         429.766         178.524         178.524 
       0.613639         428.359         174.754         174.754 
       0.619772         426.541         171.088         171.088 
       0.625918         418.597         167.522         167.522 
       0.632068         415.579         164.059         164.059 
       0.638161         411.468         160.726         160.726 
         0.6443         407.163         157.463         157.463 
       0.650464         402.293         154.281         154.281 
       0.656582         398.738          151.21          151.21 
       0.662703          395.49         148.223         148.223 
       0.668861         389.742         145.301         145.301 
       0.675024         387.368         142.456         142.456 
       0.681124         382.142         139.717         139.717 
       0.687237         380.138         137.046         137.046 
       0.693381         374.918         134.433         134.433 
       0.699536         373.052         131.885         131.885 
       0.705665         368.699         129.415         129.415 
       0.711789         366.994         127.011         127.011 
       0.717957          362.06         124.654         124.654 
        0.72409         358.176          122.37          122.37 
       0.730186         359.821         120.158         120.158 
       0.736317         353.298          117.99          117.99 
       0.742472         349.929         115.867         115.867 
       0.748622         346.606           113.8           113.8 
        0.75476         345.203         111.789         111.789 
       0.760888         341.673         109.829         109.829 
       0.767043         338.567          107.91          107.91 
       0.773185         336.684         106.041         106.041 
       0.779291         331.867         104.227         104.227 
       0.785407          330.35         102.454         102.454 
       0.791564         327.553         100.711         100.711 
       0.797719         322.443         99.0107         99.0107 
       0.803834         324.773         97.3607         97.3607 
       0.809972         319.561         95.7428         95.7428 
       0.816124         315.976         94.1587         94.1587 
       0.822261         313.471         92.6152         92.6152 
       0.828378          312.51         91.1114         91.1114 
       0.834502         307.891         89.6401         89.6401 
       0.840667         308.015         88.1923         88.1923 
       0.846816         302.489         86.7809         86.7809 
       0.852925          302.76         85.4096         85.4096 
       0.859047         299.728         84.0655         84.0655 
       0.865192         298.846         82.7463         82.7463 
       0.871341         294.508         81.4549         81.4549 
       0.877463         292.415         80.1972         80.1972 
       0.883569         290.925         78.9697         78.9697 
       0.889708         288.195         77.7619         77.7619 
       0.895864         285.677         76.5765         76.5765 
       0.902008         283.837         75.4187         75.4187 
       0.908149          281.47         74.2858         74.2858 
       0.914301         279.892         73.1746         73.1746 
       0.920448         278.388         72.0875         72.0875 
       0.926574         275.995         71.0266         71.0266 
       0.932687         274.564         69.9895         69.9895 
       0.938823         271.756         68.9696         68.9696 
       0.944975         270.862          67.968          67.968 
       0.951105         268.065         66.9902         66.9902 
       0.957225         265.417         66.0335         66.0335 
       0.963368         265.508         65.0924         65.0924 
       0.969511         260.545         64.1699         64.1699 
       0.975621         259.744         63.2704         63.2704 
       0.981748          258.56         62.3861         62.3861 
       0.987916         257.236         61.5132         61.5132 
        0.99406         254.707         60.6605         60.6605 
        1.00019         252.903         59.8259         59.8259 
        1.00632         252.301         59.0079         59.0079 
        1.01246         250.043         58.2042         58.2042 
        1.01859         247.196         57.4169         57.4169 
        1.02471         245.467         56.6453         56.6453 
        1.03085         244.455         55.8854         55.8854 
        1.03698         243.008         55.1411         55.1411 
        1.04314         242.379         54.4075         54.4075 
        1.04929         240.543          53.689          53.689 
        1.05541         238.253         52.9866         52.9866 
        1.06154         236.468         52.2951         52.2951 
        1.06769         234.553          51.615          51.615 
        1.07382         234.107         50.9494         50.9494 
        1.07993         231.394         50.2971         50.2971 
        1.08607          230.09         49.6537         49.6537 
        1.09222         228.534         49.0209         49.0209 
        1.09836         227.756         48.4001         48.4001 
        1.10449          225.77         47.7908         47.7908 
        1.11063         224.068         47.1915         47.1915 
        1.11677         222.651         46.6028         46.6028 
         1.1229         221.472         46.0252         46.0252 
        1.12903         220.034         45.4571         45.4571 
        1.13518         218.351         44.8981         44.8981 
        1.14131         217.541          44.349          44.349 
        1.14745         215.021         43.8095         43.8095 
        1.15359         213.403         43.2789         43.2789 
        1.15973         212.985          42.757          42.757 
        1.16584         211.835         42.2461         42.2461 
        1.17197         210.312         41.7429         41.7429 
        1.17811         208.481         41.2465         41.2465 
        1.18424         207.295         40.7597         40.7597 
        1.19038         206.129         40.2794         40.2794 
        1.19652         203.856         39.8071         39.8071 
        1.20267         203.274         39.3424         39.3424 
        1.20881         201.621         38.8853         38.8853 
        1.21495         201.309         38.4363         38.4363 
        1.22108         199.668         37.9946         37.9946 
         1.2272         197.732         37.5609         37.5609 
        1.23334         197.008          37.133          37.133 
        1.23949         196.138         36.7108         36.7108 
        1.24562          194.58         36.2965         36.2965 
        1.25174         193.356         35.8892         35.8892 
        1.25789         191.645          35.487          35.487 
        1.26402         191.431         35.0917         35.0917 
        1.27014         190.452         34.7034         34.7034 
        1.27628         188.302           34.32           34.32 
        1.28244         187.438         33.9416         33.9416 
        1.28858         186.166         33.5694         33.5694 
        1.29471          185.25         33.2038         33.2038 
        1.30084         184.006         32.8439         32.8439 
        1.30697          182.49         32.4889         32.4889 
        1.31312         181.474         32.1387         32.1387 
        1.31925         180.365         31.7947         31.7947 
        1.32537         179.717         31.4562         31.4562 
        1.33151         178.418         31.1215         31.1215 
        1.33765         176.895         30.7918         30.7918 
        1.34378         176.319         30.4677         30.4677 
        1.34992         175.096          30.148          30.148 
        1.35606         174.051         29.8322         29.8322 
         1.3622         173.247         29.5216         29.5216 
        1.36833         171.432         29.2162         29.2162 
        1.37445         171.431         28.9153         28.9153 
        1.38059         169.687         28.6177         28.6177 
        1.38675         168.681         28.3237         28.3237 
        1.39288         167.521          28.035          28.035 
        1.39901         166.583         27.7505         27.7505 
        1.40515          165.93         27.4693         27.4693 
         1.4113         164.555         27.1922         27.1922 
        1.41742         163.235           26.92           26.92 
        1.42355         163.415          26.651          26.651 
         1.4297         161.698          26.385          26.385 
        1.43585          160.94         26.1227         26.1227 
        1.44198         159.245          25.865          25.865 
        1.44809         158.668         25.6112         25.6112 
        1.45423         157.905           25.36           25.36 
        1.46036         156.841         25.1127         25.1127 
        1.46649         155.821         24.8686         24.8686 
        1.47263         155.269         24.6275         24.6275 
        1.47877         153.928         24.3898         24.3898 
        1.48491         152.859         24.1549         24.1549 
        1.49104         151.377         23.9236         23.9236 
        1.49718         151.138         23.6952         23.6952 
        1.50333         150.239         23.4694         23.4694 
        1.50947         149.252          23.247          23.247 
         1.5156         148.129         23.0279         23.0279 
        1.52172         147.577         22.8116         22.8116 
        1.52787          146.69         22.5977         22.5977 
          1.534         145.722         22.3868         22.3868 
        1.54013         144.886         22.1789         22.1789 
        1.54627         143.918         21.9732         21.9732 
        1.55241         143.351         21.7701         21.7701 
        1.55855         142.628         21.5699         21.5699 
        1.56467         141.497         21.3728         21.3728 
         1.5708         140.325         21.1775         21.1775 
        1.57695         139.849         20.9845         20.9845 
        1.58308          138.82         20.7943         20.7943 
        1.58922         138.366         20.6064         20.6064 
        1.59535         137.353         20.4209         20.4209 
         1.6015         136.318         20.2374         20.2374 
        1.60764         135.499         20.0563         20.0563 
        1.61376         134.667         19.8779         19.8779 
        1.61989         134.049         19.7015         19.7015 
        1.62604         133.027         19.5269         19.5269 
        1.63218         132.427         19.3546         19.3546 
        1.63831         131.521         19.1847         19.1847 
        1.64444          130.68         19.0169         19.0169 
        1.65059         129.972         18.8506         18.8506 
        1.65673         129.374         18.6866         18.6866 
        1.66285         128.874          18.525          18.525 
        1.66898         127.709         18.3652         18.3652 
        1.67512         127.041          18.207          18.207 
        1.68127         126.343         18.0506         18.0506 
         1.6874         125.335         17.8964         17.8964 
        1.69353         124.966          17.744          17.744 
        1.69967         123.896         17.5931         17.5931 
        1.70581         123.562          17.444          17.444 
        1.71193         122.542         17.2973         17.2973 
        1.71806         121.551         17.1519         17.1519 
        1.72421         121.159         17.0079         17.0079 
        1.73035         120.425         16.8657         16.8657 
        1.73649         119.436         16.7252         16.7252 
        1.74262         119.158         16.5865         16.5865 
        1.74876         118.189         16.4492         16.4492 
        1.75489         117.674         16.3137         16.3137 
        1.76101          116.88         16.1799         16.1799 
        1.76715         115.909         16.0474         16.0474 
        1.77329         115.508         15.9162         15.9162 
        1.77943         114.586         15.7864         15.7864 
        1.78557         114.215         15.6583         15.6583 
        1.79171         113.566         15.5316         15.5316 
        1.79785         112.501         15.4063         15.4063 
        1.80399         112.158         15.2824         15.2824 
        1.81012         111.111           15.16           15.16 
        1.81625         110.836          15.039          15.039 
        1.82239         110.119         14.9192         14.9192 
        1.82853         109.529         14.8008         14.8008 
        1.83466         108.649         14.6838         14.6838 
        1.84078          108.28         14.5681         14.5681 
        1.84692         107.914         14.4536         14.4536 
        1.85306         106.971         14.3401         14.3401 
         1.8592         106.511          14.228          14.228 
        1.86533         105.595         14.1172         14.1172 
        1.87147         105.331         14.0075         14.0075 
