# k  (h/Mpc)    Pcb(k)  (Mpc/h)^3    Pcb_linear(k) (Mpc/h)^3    Pcb_NL(k) (Mpc/h)^3   ShotnoiseSubtracted = false
     0.00783031         10087.1         10138.7         10138.7 
       0.013688         12535.3         12823.6         12823.6 
       0.019231         13048.4         13218.6         13218.6 
      0.0249154         12461.3         12449.9         12449.9 
      0.0312784         10927.1         11030.2         11030.2 
      0.0375637         9467.43         9624.51         9624.51 
      0.0433917          8507.8         8562.19         8562.19 
      0.0492413          7659.3          7770.4          7770.4 
      0.0555754         7090.38         7149.74         7149.74 
      0.0619321         6415.96         6649.82         6649.82 
       0.067871         6055.56         6194.16         6194.16 
      0.0738098         5613.92         5699.93         5699.93 
      0.0800417         5086.17         5142.85         5142.85 
      0.0862327         4532.53         4593.07         4593.07 
      0.0921407         4088.08         4120.27         4120.27 
      0.0982031         3742.34         3721.69         3721.69 
       0.104506         3384.62         3409.41         3409.41 
       0.110769         3173.17         3185.64         3185.64 
       0.116806         3055.59         3021.14         3021.14 
       0.122832         2873.39         2874.71         2874.71 
       0.129052         2719.48         2716.49         2716.49 
       0.135211         2600.67         2541.61         2541.61 
       0.141259         2393.72         2356.49         2356.49 
       0.147318         2196.71         2171.37         2171.37 
       0.153489          2059.6         1998.89         1998.89 
       0.159709         1965.64         1852.78         1852.78 
       0.165845         1805.44         1739.03         1739.03 
       0.171974         1768.16         1651.23         1651.23 
       0.178125          1709.6         1579.92         1579.92 
       0.184229         1589.35         1515.67         1515.67 
        0.19034          1556.9         1449.88         1449.88 
       0.196428         1503.25         1379.09         1379.09 
       0.202534         1401.91         1303.51         1303.51 
       0.208729         1368.47         1226.09         1226.09 
       0.214876         1306.35         1153.47         1153.47 
       0.220989         1228.97         1089.27         1089.27 
       0.227147         1200.17         1034.37         1034.37 
        0.23329         1156.03         988.705         988.705 
       0.239377         1142.64         950.078         950.078 
       0.245482         1087.92         914.913         914.913 
       0.251667         1047.12         880.227         880.227 
       0.257832         1033.23         844.923         844.923 
       0.263955          980.35         808.849         808.849 
       0.270079         949.285         772.588         772.588 
        0.27624          908.67         737.274         737.274 
       0.282372         892.503         704.585         704.585 
        0.28843         882.752         675.443         675.443 
       0.294538         839.088         649.314         649.314 
       0.300721         817.982         625.703         625.703 
        0.30691         803.104         604.029         604.029 
       0.313033         769.629         583.656         583.656 
       0.319153         758.456         563.688         563.688 
       0.325316         746.623         543.708         543.708 
        0.33145         730.311         523.999         523.999 
       0.337538         704.547          504.93          504.93 
       0.343633         685.014         486.688         486.688 
       0.349808         669.752         469.363         469.363 
       0.355968         657.276         453.367         453.367 
       0.362074         636.118          438.69          438.69 
       0.368217          633.02         424.924         424.924 
       0.374374         622.212         411.845         411.845 
       0.380519         598.501         399.278         399.278 
       0.386598         592.465          387.18          387.18 
       0.392688         579.491         375.329         375.329 
        0.39888         564.414         363.608         363.608 
       0.405048          554.63         352.343         352.343 
       0.411186         552.464         341.618         341.618 
       0.417313         546.407         331.462         331.462 
       0.423458         530.208         321.821         321.821 
       0.429607         516.087         312.673         312.673 
       0.435692         508.829         304.051         304.051 
       0.441815           500.7         295.724         295.724 
       0.447964         490.414         287.642         287.642 
       0.454126         484.745         279.793         279.793 
       0.460267         476.969         272.212         272.212 
       0.466387          469.29         264.894         264.894 
        0.47254         462.195         257.794         257.794 
       0.478662         452.613         251.007         251.007 
       0.484765          447.79         244.519         244.519 
       0.490885          443.28         238.278         238.278 
       0.497035         434.577         232.253         232.253 
       0.503198          433.72         226.447         226.447 
       0.509342          423.59         220.862         220.862 
       0.515458         416.632         215.481         215.481 
       0.521598         410.448         210.243         210.243 
       0.527764         404.165         205.148         205.148 
       0.533884         402.302         200.253         200.253 
           0.54         396.518         195.524         195.524 
       0.546137         388.365         190.937         190.937 
       0.552299         387.568         186.487         186.487 
       0.558452         381.257         182.197         182.197 
       0.564573         377.547         178.073         178.073 
       0.570708         372.758         174.073         174.073 
       0.576825         365.922          170.21          170.21 
       0.582926          363.47         166.472         166.472 
       0.589034         358.142         162.839         162.839 
       0.595184         355.673         159.289         159.289 
       0.601379         349.775         155.821         155.821 
       0.607522         343.375         152.487         152.487 
       0.613639         341.796         149.267         149.267 
       0.619772         340.344         146.135         146.135 
       0.625918         334.621          143.09          143.09 
       0.632068          330.73         140.132         140.132 
       0.638161         327.828         137.285         137.285 
         0.6443         324.855         134.498         134.498 
       0.650464          320.06         131.779         131.779 
       0.656582         317.155         129.157         129.157 
       0.662703         314.931         126.605         126.605 
       0.668861         309.697         124.109         124.109 
       0.675024          308.15         121.679         121.679 
       0.681124         304.487          119.34          119.34 
       0.687237         302.055         117.058         117.058 
       0.693381         298.308         114.826         114.826 
       0.699536         295.971          112.65          112.65 
       0.705665         292.857          110.54          110.54 
       0.711789         290.631         108.487         108.487 
       0.717957         287.202         106.473         106.473 
        0.72409         284.015         104.523         104.523 
       0.730186         285.532         102.633         102.633 
       0.736317         280.377         100.781         100.781 
       0.742472         277.205         98.9686         98.9686 
       0.748622         273.837         97.2029         97.2029 
        0.75476          273.98         95.4846         95.4846 
       0.760888          270.57          93.811          93.811 
       0.767043         267.453         92.1714         92.1714 
       0.773185         265.999          90.575          90.575 
       0.779291         261.965         89.0259         89.0259 
       0.785407         261.025         87.5113         87.5113 
       0.791564         258.498         86.0229         86.0229 
       0.797719         254.491         84.5703         84.5703 
       0.803834         256.288         83.1609         83.1609 
       0.809972         252.822         81.7791         81.7791 
       0.816124         249.391          80.426          80.426 
       0.822261         247.258         79.1076         79.1076 
       0.828378         247.003         77.8231         77.8231 
       0.834502         243.279         76.5664         76.5664 
       0.840667         243.205         75.3297         75.3297 
       0.846816         239.017         74.1242         74.1242 
       0.852925         238.499         72.9529         72.9529 
       0.859047         236.034         71.8049         71.8049 
       0.865192         235.648          70.678          70.678 
       0.871341         232.331          69.575          69.575 
       0.877463          230.43         68.5008         68.5008 
       0.883569         229.971         67.4522         67.4522 
       0.889708         227.697         66.4206         66.4206 
       0.895864         225.773         65.4081         65.4081 
       0.902008         223.637         64.4192         64.4192 
       0.908149         221.815         63.4515         63.4515 
       0.914301         220.689         62.5024         62.5024 
       0.920448         219.953         61.5738         61.5738 
       0.926574         217.402         60.6676         60.6676 
       0.932687         216.391         59.7818         59.7818 
       0.938823         214.571         58.9107         58.9107 
       0.944975         213.318         58.0551         58.0551 
       0.951105         211.196         57.2199         57.2199 
       0.957225         209.806         56.4027         56.4027 
       0.963368         208.919         55.5989         55.5989 
       0.969511         205.755         54.8109         54.8109 
       0.975621         204.597         54.0426         54.0426 
       0.981748         203.507         53.2873         53.2873 
       0.987916         202.604         52.5417         52.5417 
        0.99406         200.817         51.8134         51.8134 
        1.00019         199.581         51.1005         51.1005 
        1.00632         198.699         50.4018         50.4018 
        1.01246         196.993         49.7153         49.7153 
        1.01859         195.161         49.0428         49.0428 
        1.02471         193.657         48.3838         48.3838 
        1.03085         192.583         47.7347         47.7347 
        1.03698         191.224          47.099          47.099 
        1.04314          190.87         46.4723         46.4723 
        1.04929         189.525         45.8587         45.8587 
        1.05541         188.052         45.2587         45.2587 
        1.06154         186.446          44.668          44.668 
        1.06769         185.128         44.0871         44.0871 
        1.07382         184.637         43.5186         43.5186 
        1.07993         182.631         42.9614         42.9614 
        1.08607          181.55         42.4118         42.4118 
        1.09222         180.403         41.8714         41.8714 
        1.09836         179.518         41.3411         41.3411 
        1.10449         177.839         40.8207         40.8207 
        1.11063         176.719         40.3088         40.3088 
        1.11677          175.97         39.8059         39.8059 
         1.1229         174.507         39.3126         39.3126 
        1.12903         173.707         38.8273         38.8273 
        1.13518         172.335         38.3499         38.3499 
        1.14131         171.417         37.8809         37.8809 
        1.14745          169.94           37.42           37.42 
        1.15359         168.375         36.9668         36.9668 
        1.15973         168.101          36.521          36.521 
        1.16584         167.221         36.0847         36.0847 
        1.17197         166.138         35.6549         35.6549 
        1.17811         164.511         35.2308         35.2308 
        1.18424          163.73          34.815          34.815 
        1.19038         162.666         34.4048         34.4048 
        1.19652         161.419         34.0013         34.0013 
        1.20267         160.535         33.6045         33.6045 
        1.20881         159.336         33.2141         33.2141 
        1.21495             159         32.8305         32.8305 
        1.22108         157.696         32.4532         32.4532 
         1.2272         156.465         32.0827         32.0827 
        1.23334         155.865         31.7173         31.7173 
        1.23949         155.266         31.3567         31.3567 
        1.24562          153.97         31.0028         31.0028 
        1.25174         152.902         30.6549         30.6549 
        1.25789         151.815         30.3113         30.3113 
        1.26402         151.605         29.9737         29.9737 
        1.27014         150.493         29.6421         29.6421 
        1.27628          148.83         29.3145         29.3145 
        1.28244         148.491         28.9913         28.9913 
        1.28858         147.356         28.6735         28.6735 
        1.29471         146.529         28.3611         28.3611 
        1.30084          145.56         28.0537         28.0537 
        1.30697         144.705         27.7505         27.7505 
        1.31312         143.729         27.4513         27.4513 
        1.31925         142.686         27.1576         27.1576 
        1.32537         142.195         26.8684         26.8684 
        1.33151         141.404         26.5825         26.5825 
        1.33765         139.973         26.3009         26.3009 
        1.34378         139.916         26.0241         26.0241 
        1.34992          139.12          25.751          25.751 
        1.35606         138.072         25.4813         25.4813 
         1.3622         137.717          25.216          25.216 
        1.36833         136.036         24.9551         24.9551 
        1.37445         135.908         24.6981         24.6981 
        1.38059         134.898         24.4439         24.4439 
        1.38675         134.051         24.1928         24.1928 
        1.39288         133.041         23.9462         23.9462 
        1.39901         132.335         23.7032         23.7032 
        1.40515         131.836          23.463          23.463 
         1.4113          130.97         23.2263         23.2263 
        1.41742         130.012         22.9938         22.9938 
        1.42355         129.777         22.7641         22.7641 
         1.4297         128.602         22.5368         22.5368 
        1.43585          127.84         22.3128         22.3128 
        1.44198          126.74         22.0926         22.0926 
        1.44809         126.033         21.8759         21.8759 
        1.45423         125.744         21.6614         21.6614 
        1.46036         124.683         21.4501         21.4501 
        1.46649          123.95         21.2416         21.2416 
        1.47263          123.55         21.0357         21.0357 
        1.47877         122.389         20.8326         20.8326 
        1.48491         121.914          20.632          20.632 
        1.49104         120.476         20.4344         20.4344 
        1.49718         120.455         20.2393         20.2393 
        1.50333          119.94         20.0465         20.0465 
        1.50947         119.105         19.8565         19.8565 
         1.5156          118.33         19.6694         19.6694 
        1.52172         117.645         19.4846         19.4846 
        1.52787         117.016         19.3019         19.3019 
          1.534         116.373         19.1218         19.1218 
        1.54013         115.724         18.9442         18.9442 
        1.54627         114.825         18.7685         18.7685 
        1.55241         114.462          18.595          18.595 
        1.55855         113.669          18.424          18.424 
        1.56467         112.865         18.2556         18.2556 
         1.5708         112.101         18.0889         18.0889 
        1.57695          111.75          17.924          17.924 
        1.58308         110.954         17.7615         17.7615 
        1.58922         110.912          17.601          17.601 
        1.59535         110.218         17.4426         17.4426 
         1.6015         109.067         17.2858         17.2858 
        1.60764         108.407         17.1311         17.1311 
        1.61376         107.908         16.9788         16.9788 
        1.61989         107.419         16.8281         16.8281 
        1.62604         106.712          16.679          16.679 
        1.63218         106.269         16.5318         16.5318 
        1.63831         105.483         16.3867         16.3867 
        1.64444         104.837         16.2433         16.2433 
        1.65059         104.154         16.1013         16.1013 
        1.65673         103.865         15.9612         15.9612 
        1.66285         103.294         15.8232         15.8232 
        1.66898         102.451         15.6867         15.6867 
        1.67512         102.035         15.5516         15.5516 
        1.68127          101.44          15.418          15.418 
         1.6874         100.644         15.2862         15.2862 
        1.69353         100.093         15.1561         15.1561 
        1.69967         99.6281         15.0272         15.0272 
        1.70581         99.2759         14.8999         14.8999 
        1.71193         98.5042         14.7745         14.7745 
        1.71806         97.9189         14.6503         14.6503 
        1.72421         97.3206         14.5273         14.5273 
        1.73035         96.9412         14.4059         14.4059 
        1.73649         96.2819         14.2859         14.2859 
        1.74262         95.7868         14.1674         14.1674 
        1.74876         95.1137         14.0501         14.0501 
        1.75489         94.7126         13.9344         13.9344 
        1.76101         94.0903         13.8201         13.8201 
        1.76715         93.4726         13.7069         13.7069 
        1.77329         93.0955         13.5949         13.5949 
        1.77943         92.5133          13.484          13.484 
        1.78557         92.1148         13.3746         13.3746 
        1.79171         91.6583         13.2664         13.2664 
        1.79785         90.7966         13.1593         13.1593 
        1.80399         90.6808         13.0535         13.0535 
        1.81012         89.8588          12.949          12.949 
        1.81625         89.4195         12.8457         12.8457 
        1.82239         89.0377         12.7433         12.7433 
        1.82853         88.4651         12.6422         12.6422 
        1.83466         87.7933         12.5422         12.5422 
        1.84078         87.5292         12.4434         12.4434 
        1.84692         87.2358         12.3456         12.3456 
        1.85306         86.5799         12.2486         12.2486 
         1.8592         86.2435         12.1529         12.1529 
        1.86533         85.6724         12.0583         12.0583 
        1.87147         85.1589         11.9645         11.9645 
