# k  (h/Mpc)    P(k)  (Mpc/h)^3    P_linear(k)  (Mpc/h)^3     P_NL(k)  ShotnoiseSubtracted = false
     0.00783031         11284.4         11340.7         11340.7 
       0.013688         14008.1         14347.7         14347.7 
       0.019231           14586         14790.5         14790.5 
      0.0249154           13940         13930.6         13930.6 
      0.0312784         12212.3         12342.2         12342.2 
      0.0375637         10575.6         10769.4         10769.4 
      0.0433917         9507.23         9580.69         9580.69 
      0.0492413         8555.45         8694.71         8694.71 
      0.0555754         7919.18         8000.24         8000.24 
      0.0619321         7155.71         7440.85         7440.85 
       0.067871         6756.03         6930.98         6930.98 
      0.0738098         6267.96         6377.96         6377.96 
      0.0800417         5678.11         5754.63         5754.63 
      0.0862327         5061.23         5139.44         5139.44 
      0.0921407         4568.68          4610.4          4610.4 
      0.0982031         4185.97          4164.4          4164.4 
       0.104506         3785.06         3814.98         3814.98 
       0.110769         3549.28         3564.59         3564.59 
       0.116806         3418.35         3380.52         3380.52 
       0.122832         3215.43         3216.67         3216.67 
       0.129052         3040.51         3039.63         3039.63 
       0.135211         2912.79         2843.95         2843.95 
       0.141259         2680.54         2636.81         2636.81 
       0.147318         2462.66         2429.66         2429.66 
       0.153489         2311.58         2236.66         2236.66 
       0.159709         2211.11         2073.18         2073.18 
       0.165845         2030.85          1945.9          1945.9 
       0.171974            1989         1847.65         1847.65 
       0.178125         1926.03         1767.86         1767.86 
       0.184229         1787.14         1695.97         1695.97 
        0.19034         1753.34         1622.35         1622.35 
       0.196428         1695.13         1543.13         1543.13 
       0.202534         1583.06         1458.57         1458.57 
       0.208729         1546.53         1371.94         1371.94 
       0.214876         1476.25         1290.69         1290.69 
       0.220989         1393.19         1218.84         1218.84 
       0.227147         1359.77         1157.41         1157.41 
        0.23329          1309.6         1106.32         1106.32 
       0.239377         1297.41         1063.09         1063.09 
       0.245482         1236.08         1023.75         1023.75 
       0.251667         1190.22         984.934         984.934 
       0.257832         1173.72         945.431         945.431 
       0.263955         1115.84         905.065         905.065 
       0.270079          1082.4         864.491         864.491 
        0.27624         1036.51         824.976         824.976 
       0.282372         1020.22         788.401         788.401 
        0.28843         1007.32         755.791         755.791 
       0.294538         958.538         726.552         726.552 
       0.300721         936.631         700.133         700.133 
        0.30691         918.245         675.882         675.882 
       0.313033          880.84         653.085         653.085 
       0.319153         869.118          630.74          630.74 
       0.325316         856.941         608.385         608.385 
        0.33145         838.457         586.331         586.331 
       0.337538         809.421         564.993         564.993 
       0.343633         788.187         544.582         544.582 
       0.349808         771.645         525.196         525.196 
       0.355968         757.262         507.297         507.297 
       0.362074         732.802         490.874         490.874 
       0.368217          730.04          475.47          475.47 
       0.374374         718.496         460.836         460.836 
       0.380519         691.717         446.774         446.774 
       0.386598         685.753         433.238         433.238 
       0.392688          670.49         419.976         419.976 
        0.39888         653.657         406.862         406.862 
       0.405048         642.153         394.256         394.256 
       0.411186         640.062         382.255         382.255 
       0.417313         634.668          370.89          370.89 
       0.423458         615.386         360.103         360.103 
       0.429607          598.64         349.866         349.866 
       0.435692         591.527          340.22          340.22 
       0.441815         581.603         330.902         330.902 
       0.447964          571.13         321.858         321.858 
       0.454126         564.589         313.076         313.076 
       0.460267         555.726         304.592         304.592 
       0.466387          546.92         296.404         296.404 
        0.47254         538.243          288.46          288.46 
       0.478662         528.564         280.865         280.865 
       0.484765         522.967         273.606         273.606 
       0.490885         517.709         266.622         266.622 
       0.497035         507.388         259.881         259.881 
       0.503198         506.776         253.384         253.384 
       0.509342         495.954         247.135         247.135 
       0.515458         487.006         241.114         241.114 
       0.521598         481.446         235.253         235.253 
       0.527764         472.916         229.551         229.551 
       0.533884         470.194         224.074         224.074 
           0.54         464.437         218.783         218.783 
       0.546137         455.736          213.65          213.65 
       0.552299         454.657         208.671         208.671 
       0.558452         447.637          203.87          203.87 
       0.564573         443.247         199.255         199.255 
       0.570708         438.513          194.78          194.78 
       0.576825         430.033         190.457         190.457 
       0.582926         427.904         186.275         186.275 
       0.589034         421.468         182.209         182.209 
       0.595184         418.305         178.237         178.237 
       0.601379          411.55         174.357         174.357 
       0.607522           404.3         170.626         170.626 
       0.613639         402.842         167.023         167.023 
       0.619772         401.208         163.519         163.519 
       0.625918         393.831         160.111         160.111 
       0.632068         390.632         156.801         156.801 
       0.638161         386.904         153.616         153.616 
         0.6443         382.945         150.497         150.497 
       0.650464         378.121         147.455         147.455 
       0.656582         374.716          144.52          144.52 
       0.662703         371.818         141.666         141.666 
       0.668861         366.212         138.873         138.873 
       0.675024         364.033         136.154         136.154 
       0.681124         359.332         133.536         133.536 
       0.687237         357.175         130.983         130.983 
       0.693381         352.414         128.485         128.485 
       0.699536         350.386          126.05          126.05 
       0.705665         346.416         123.689         123.689 
       0.711789         344.576         121.392         121.392 
       0.717957         340.074         119.139         119.139 
        0.72409         336.355         116.956         116.956 
       0.730186          338.06         114.842         114.842 
       0.736317         331.879          112.77          112.77 
       0.742472         328.618         110.741         110.741 
       0.748622         325.265         108.766         108.766 
        0.75476         324.327         106.843         106.843 
       0.760888         320.797          104.97          104.97 
       0.767043         317.707         103.136         103.136 
       0.773185         315.994         101.349         101.349 
       0.779291         311.347          99.616          99.616 
       0.785407         310.059         97.9212         97.9212 
       0.791564         307.298         96.2558         96.2558 
       0.797719         302.492         94.6304         94.6304 
       0.803834         304.763         93.0533         93.0533 
       0.809972         299.999         91.5071         91.5071 
       0.816124         296.443          89.993          89.993 
       0.822261          294.02         88.5178         88.5178 
       0.828378         293.288         87.0805         87.0805 
       0.834502         288.951         85.6744         85.6744 
       0.840667         289.041         84.2906         84.2906 
       0.846816         283.819         82.9416         82.9416 
       0.852925         283.924          81.631          81.631 
       0.859047         281.057         80.3464         80.3464 
       0.865192         280.361         79.0855         79.0855 
       0.871341         276.304         77.8512         77.8512 
       0.877463         274.227         76.6492         76.6492 
       0.883569         273.061          75.476          75.476 
       0.889708         270.458         74.3216         74.3216 
       0.895864         268.139         73.1887         73.1887 
       0.902008          266.19         72.0821         72.0821 
       0.908149          264.02         70.9993         70.9993 
       0.914301         262.508         69.9373         69.9373 
       0.920448         261.282         68.8983         68.8983 
       0.926574         258.881         67.8843         67.8843 
       0.932687         257.523         66.8931         66.8931 
       0.938823         255.008         65.9184         65.9184 
       0.944975         254.058         64.9611         64.9611 
       0.951105         251.407         64.0265         64.0265 
       0.957225         249.118         63.1121         63.1121 
       0.963368         248.997         62.2126         62.2126 
       0.969511         244.486         61.3309         61.3309 
       0.975621         243.574         60.4713         60.4713 
       0.981748         242.461          59.626          59.626 
       0.987916         241.276         58.7918         58.7918 
        0.99406         238.932         57.9769         57.9769 
        1.00019         237.331         57.1792         57.1792 
        1.00632         236.648         56.3973         56.3973 
        1.01246         234.535         55.6292         55.6292 
        1.01859         231.971         54.8767         54.8767 
        1.02471         230.283         54.1392         54.1392 
        1.03085         229.259         53.4129         53.4129 
        1.03698         227.868         52.7016         52.7016 
        1.04314          227.35         52.0004         52.0004 
        1.04929         225.621         51.3138         51.3138 
        1.05541         223.599         50.6424         50.6424 
        1.06154         221.819         49.9815         49.9815 
        1.06769         220.103         49.3315         49.3315 
        1.07382         219.714         48.6953         48.6953 
        1.07993         217.081         48.0719         48.0719 
        1.08607         215.873         47.4569         47.4569 
        1.09222         214.449         46.8522         46.8522 
        1.09836         213.673         46.2588         46.2588 
        1.10449          211.74         45.6765         45.6765 
        1.11063         210.218         45.1037         45.1037 
        1.11677         209.038          44.541          44.541 
         1.1229         207.722          43.989          43.989 
        1.12903         206.513          43.446          43.446 
        1.13518         204.905         42.9118         42.9118 
        1.14131         204.065          42.387          42.387 
        1.14745         201.823         41.8713         41.8713 
        1.15359         200.234         41.3642         41.3642 
        1.15973         199.893         40.8654         40.8654 
        1.16584         198.838         40.3771         40.3771 
        1.17197         197.412         39.8962         39.8962 
        1.17811         195.656         39.4217         39.4217 
        1.18424         194.582         38.9564         38.9564 
        1.19038         193.407         38.4974         38.4974 
        1.19652         191.444          38.046          38.046 
        1.20267         190.765         37.6019         37.6019 
        1.20881         189.246          37.165          37.165 
        1.21495         188.961         36.7359         36.7359 
        1.22108         187.403         36.3137         36.3137 
         1.2272         185.688         35.8991         35.8991 
        1.23334         184.964         35.4902         35.4902 
        1.23949         184.198         35.0867         35.0867 
        1.24562         182.713         34.6907         34.6907 
        1.25174          181.55         34.3014         34.3014 
        1.25789         179.985          33.917          33.917 
        1.26402         179.789         33.5392         33.5392 
        1.27014         178.803         33.1681         33.1681 
        1.27628         176.767         32.8016         32.8016 
        1.28244         176.028           32.44           32.44 
        1.28858         174.833         32.0843         32.0843 
        1.29471         173.946         31.7348         31.7348 
        1.30084          172.75         31.3909         31.3909 
        1.30697         171.429         31.0516         31.0516 
        1.31312         170.435         30.7168         30.7168 
        1.31925         169.367         30.3881         30.3881 
        1.32537         168.746         30.0646         30.0646 
        1.33151         167.569         29.7446         29.7446 
        1.33765         166.081         29.4296         29.4296 
        1.34378         165.683         29.1197         29.1197 
        1.34992         164.572         28.8142         28.8142 
        1.35606          163.53         28.5124         28.5124 
         1.3622         162.867         28.2155         28.2155 
        1.36833         161.062         27.9236         27.9236 
        1.37445          161.04          27.636          27.636 
        1.38059         159.482         27.3517         27.3517 
        1.38675         158.578         27.0706         27.0706 
        1.39288         157.419         26.7947         26.7947 
        1.39901         156.584         26.5228         26.5228 
        1.40515         155.942         26.2541         26.2541 
         1.4113         154.704         25.9892         25.9892 
        1.41742         153.497          25.729          25.729 
        1.42355         153.587          25.472          25.472 
         1.4297          151.99         25.2177         25.2177 
        1.43585         151.248          24.967          24.967 
        1.44198         149.684         24.7207         24.7207 
        1.44809         149.103         24.4782         24.4782 
        1.45423         148.494         24.2381         24.2381 
        1.46036         147.416         24.0017         24.0017 
        1.46649         146.475         23.7683         23.7683 
        1.47263         145.941          23.538          23.538 
        1.47877         144.655         23.3108         23.3108 
        1.48491         143.793         23.0863         23.0863 
        1.49104         142.286         22.8652         22.8652 
        1.49718          142.14         22.6469         22.6469 
        1.50333         141.401         22.4311         22.4311 
        1.50947         140.399         22.2186         22.2186 
         1.5156         139.332         22.0091         22.0091 
        1.52172         138.788         21.8024         21.8024 
        1.52787         137.976          21.598          21.598 
          1.534         137.101         21.3964         21.3964 
        1.54013         136.318         21.1977         21.1977 
        1.54627         135.371         21.0011         21.0011 
        1.55241         134.874          20.807          20.807 
        1.55855         134.136         20.6156         20.6156 
        1.56467         133.105         20.4272         20.4272 
         1.5708         132.013         20.2406         20.2406 
        1.57695         131.587         20.0561         20.0561 
        1.58308         130.627         19.8744         19.8744 
        1.58922         130.313         19.6947         19.6947 
        1.59535         129.414         19.5174         19.5174 
         1.6015         128.259         19.3421         19.3421 
        1.60764         127.507          19.169          19.169 
        1.61376         126.805         18.9985         18.9985 
        1.61989         126.216         18.8299         18.8299 
        1.62604         125.284          18.663          18.663 
        1.63218         124.714         18.4983         18.4983 
        1.63831         123.846          18.336          18.336 
        1.64444         123.063         18.1756         18.1756 
        1.65059         122.343         18.0167         18.0167 
        1.65673         121.913         17.8599         17.8599 
        1.66285         121.392         17.7054         17.7054 
        1.66898         120.261         17.5527         17.5527 
        1.67512         119.691         17.4015         17.4015 
        1.68127         119.009          17.252          17.252 
         1.6874         118.021         17.1046         17.1046 
        1.69353         117.621          16.959          16.959 
        1.69967         116.717         16.8148         16.8148 
        1.70581         116.411         16.6723         16.6723 
        1.71193         115.446          16.532          16.532 
        1.71806          114.59         16.3931         16.3931 
        1.72421         114.124         16.2554         16.2554 
        1.73035         113.481         16.1196         16.1196 
        1.73649         112.573         15.9853         15.9853 
        1.74262         112.281         15.8527         15.8527 
        1.74876          111.34         15.7214         15.7214 
        1.75489         110.896          15.592          15.592 
        1.76101         110.183         15.4641         15.4641 
        1.76715         109.247         15.3374         15.3374 
        1.77329          108.88          15.212          15.212 
        1.77943          108.02          15.088          15.088 
        1.78557         107.667         14.9656         14.9656 
        1.79171          107.09         14.8445         14.8445 
        1.79785         106.054         14.7247         14.7247 
        1.80399          105.81         14.6063         14.6063 
        1.81012         104.797         14.4893         14.4893 
        1.81625         104.498         14.3737         14.3737 
        1.82239         103.871         14.2592         14.2592 
        1.82853         103.309          14.146          14.146 
        1.83466         102.463         14.0341         14.0341 
        1.84078         102.125         13.9236         13.9236 
        1.84692         101.779         13.8141         13.8141 
        1.85306          100.92         13.7057         13.7057 
         1.8592         100.512         13.5986         13.5986 
        1.86533         99.6601         13.4927         13.4927 
        1.87147         99.3657         13.3878         13.3878 
        1.87761         98.4534          13.284          13.284 
