# k  (h/Mpc)    P(k)  (Mpc/h)^3    P_linear(k)  (Mpc/h)^3     P_NL(k)  ShotnoiseSubtracted = false
     0.00783031         3950.26          3974.2          3974.2 
       0.013688         4946.62         5025.65         5025.65 
       0.019231         5140.07         5180.53         5180.53 
      0.0249154         4886.15         4879.36         4879.36 
      0.0312784         4307.05         4323.06         4323.06 
      0.0375637         3743.19         3772.19         3772.19 
      0.0433917         3354.41         3355.87         3355.87 
      0.0492413          3028.1         3045.56         3045.56 
      0.0555754          2801.5         2802.32         2802.32 
      0.0619321         2558.55         2606.39         2606.39 
       0.067871         2407.06         2427.81         2427.81 
      0.0738098         2223.26          2234.1          2234.1 
      0.0800417          2013.8         2015.76         2015.76 
      0.0862327         1793.85         1800.28         1800.28 
      0.0921407         1611.61         1614.96         1614.96 
      0.0982031         1467.84         1458.74         1458.74 
       0.104506         1330.81         1336.34         1336.34 
       0.110769          1246.1         1248.64         1248.64 
       0.116806         1195.76         1184.16         1184.16 
       0.122832         1126.11         1126.76         1126.76 
       0.129052         1068.96         1064.75         1064.75 
       0.135211         1011.51         996.207         996.207 
       0.141259         932.628         923.649         923.649 
       0.147318         853.741         851.088         851.088 
       0.153489         794.749         783.483         783.483 
       0.159709         747.992         726.215         726.215 
       0.165845         689.798         681.632         681.632 
       0.171974         671.441         647.216         647.216 
       0.178125         644.071         619.266         619.266 
       0.184229         607.274         594.083         594.083 
        0.19034          589.59         568.295         568.295 
       0.196428         564.247         540.547         540.547 
       0.202534         525.352         510.924         510.924 
       0.208729         506.924         480.578         480.578 
       0.214876         483.428         452.117         452.117 
       0.220989         449.585         426.951         426.951 
       0.227147         438.197         405.431         405.431 
        0.23329         421.639         387.534         387.534 
       0.239377         410.427         372.394         372.394 
       0.245482         391.326          358.61          358.61 
       0.251667         375.284         345.015         345.015 
       0.257832         369.094         331.177         331.177 
       0.263955         348.446         317.037         317.037 
       0.270079         334.853         302.824         302.824 
        0.27624         319.354         288.983         288.983 
       0.282372         309.477         276.171         276.171 
        0.28843         305.737         264.748         264.748 
       0.294538         291.506         254.506         254.506 
       0.300721         280.115         245.251         245.251 
        0.30691         275.468         236.756         236.756 
       0.313033         264.234         228.771         228.771 
       0.319153         259.446         220.943         220.943 
       0.325316         250.434         213.113         213.113 
        0.33145         243.051         205.387         205.387 
       0.337538         234.972         197.913         197.913 
       0.343633         227.475         190.763         190.763 
       0.349808         220.723         183.972         183.972 
       0.355968         215.103         177.702         177.702 
       0.362074         210.396          171.95          171.95 
       0.368217         206.047         166.554         166.554 
       0.374374         201.397         161.427         161.427 
       0.380519         193.019         156.502         156.502 
       0.386598         188.977          151.76          151.76 
       0.392688         183.847         147.115         147.115 
        0.39888         180.178         142.521         142.521 
       0.405048         176.205         138.105         138.105 
       0.411186          173.14         133.901         133.901 
       0.417313         168.841          129.92          129.92 
       0.423458         164.559         126.142         126.142 
       0.429607          161.37         122.556         122.556 
       0.435692         158.483         119.177         119.177 
       0.441815         154.099         115.913         115.913 
       0.447964         149.537         112.745         112.745 
       0.454126         146.841         109.668         109.668 
       0.460267         145.582         106.697         106.697 
       0.466387         142.221         103.828         103.828 
        0.47254         140.501         101.045         101.045 
       0.478662         135.749         98.3851         98.3851 
       0.484765         133.788         95.8423         95.8423 
       0.490885         130.923         93.3958         93.3958 
       0.497035          129.83         91.0345         91.0345 
       0.503198         126.885         88.7587         88.7587 
       0.509342         123.672         86.5696         86.5696 
       0.515458         122.208         84.4604         84.4604 
       0.521598         119.244         82.4074         82.4074 
       0.527764         117.972           80.41           80.41 
       0.533884         116.968         78.4915         78.4915 
           0.54         113.872          76.638          76.638 
       0.546137         111.108         74.8401         74.8401 
       0.552299         109.618         73.0959         73.0959 
       0.558452         107.562         71.4143         71.4143 
       0.564573         107.082         69.7977         69.7977 
       0.570708         103.984           68.23           68.23 
       0.576825         102.907         66.7158         66.7158 
       0.582926         101.738         65.2507         65.2507 
       0.589034         99.9802         63.8266         63.8266 
       0.595184         98.7261         62.4351         62.4351 
       0.601379          96.258         61.0759         61.0759 
       0.607522         94.8735         59.7689         59.7689 
       0.613639         93.9844         58.5069         58.5069 
       0.619772         92.3649         57.2795         57.2795 
       0.625918         91.2827         56.0858         56.0858 
       0.632068          89.905         54.9263         54.9263 
       0.638161         88.2999         53.8105         53.8105 
         0.6443         87.7197         52.7181         52.7181 
       0.650464         85.8738         51.6526         51.6526 
       0.656582         85.5048         50.6245         50.6245 
       0.662703         84.3755         49.6245         49.6245 
       0.668861           82.51         48.6461         48.6461 
       0.675024         82.2678         47.6937         47.6937 
       0.681124          81.046         46.7767         46.7767 
       0.687237         79.4366         45.8824         45.8824 
       0.693381         78.9036         45.0076         45.0076 
       0.699536         78.0194         44.1544         44.1544 
       0.705665         76.7488         43.3275         43.3275 
       0.711789         75.6604         42.5229         42.5229 
       0.717957         74.6892         41.7335         41.7335 
        0.72409         74.0482         40.9689         40.9689 
       0.730186         73.5469         40.2284         40.2284 
       0.736317         72.2184         39.5024         39.5024 
       0.742472         71.4262          38.792          38.792 
       0.748622         70.3261         38.0999         38.0999 
        0.75476         69.4799         37.4263         37.4263 
       0.760888         69.3013         36.7704         36.7704 
       0.767043         67.9674         36.1277         36.1277 
       0.773185         67.2618          35.502          35.502 
       0.779291         66.4647         34.8948         34.8948 
       0.785407         65.5138         34.3011         34.3011 
       0.791564         65.5148         33.7177         33.7177 
       0.797719           64.54         33.1484         33.1484 
       0.803834         63.9216         32.5959         32.5959 
       0.809972         63.2574         32.0543         32.0543 
       0.816124         62.5794         31.5239         31.5239 
       0.822261         61.7553         31.0072         31.0072 
       0.828378         61.4997         30.5037         30.5037 
       0.834502         60.6538         30.0111         30.0111 
       0.840667         60.2287         29.5264         29.5264 
       0.846816         59.3686         29.0539         29.0539 
       0.852925         58.9913         28.5948         28.5948 
       0.859047         58.6721         28.1448         28.1448 
       0.865192         57.6811         27.7031         27.7031 
       0.871341         57.0872         27.2708         27.2708 
       0.877463         56.6849         26.8497         26.8497 
       0.883569          56.453         26.4387         26.4387 
       0.889708         55.8282         26.0344         26.0344 
       0.895864         55.2715         25.6375         25.6375 
       0.902008         54.6769         25.2499         25.2499 
       0.908149         54.2277         24.8706         24.8706 
       0.914301         53.8401         24.4986         24.4986 
       0.920448         53.4545         24.1346         24.1346 
       0.926574         52.5086         23.7794         23.7794 
       0.932687         52.2298         23.4322         23.4322 
       0.938823         51.6983         23.0908         23.0908 
       0.944975         51.1909         22.7554         22.7554 
       0.951105         50.7888          22.428          22.428 
       0.957225          50.572         22.1077         22.1077 
       0.963368         49.9945         21.7927         21.7927 
       0.969511         49.5828         21.4838         21.4838 
       0.975621         49.2065         21.1827         21.1827 
       0.981748         48.6659         20.8866         20.8866 
       0.987916         48.3359         20.5944         20.5944 
        0.99406         47.9018         20.3089         20.3089 
        1.00019         47.5355         20.0295         20.0295 
        1.00632         47.1639         19.7556         19.7556 
        1.01246         46.7969         19.4865         19.4865 
        1.01859         46.4271         19.2229         19.2229 
        1.02471         45.9192         18.9646         18.9646 
        1.03085         45.7473         18.7102         18.7102 
        1.03698         45.3929          18.461          18.461 
        1.04314         45.0582         18.2154         18.2154 
        1.04929         44.5412         17.9749         17.9749 
        1.05541         44.3643         17.7397         17.7397 
        1.06154         44.1213         17.5082         17.5082 
        1.06769          43.452         17.2805         17.2805 
        1.07382         43.3133         17.0576         17.0576 
        1.07993         42.9525         16.8393         16.8393 
        1.08607          42.644         16.6238         16.6238 
        1.09222         42.3964          16.412          16.412 
        1.09836         42.0027         16.2042         16.2042 
        1.10449         41.8145         16.0002         16.0002 
        1.11063         41.4059         15.7995         15.7995 
        1.11677         41.3558         15.6024         15.6024 
         1.1229         40.9031         15.4091         15.4091 
        1.12903         40.6773         15.2188         15.2188 
        1.13518         40.5436         15.0317         15.0317 
        1.14131         40.1011         14.8479         14.8479 
        1.14745          39.687         14.6672         14.6672 
        1.15359         39.3509         14.4896         14.4896 
        1.15973         39.2078         14.3149         14.3149 
        1.16584         38.9401         14.1438         14.1438 
        1.17197         38.4694         13.9754         13.9754 
        1.17811         38.3343         13.8092         13.8092 
        1.18424         37.8768         13.6462         13.6462 
        1.19038         37.7755         13.4854         13.4854 
        1.19652         37.5362         13.3272         13.3272 
        1.20267         37.3308         13.1717         13.1717 
        1.20881         37.0603         13.0187         13.0187 
        1.21495         36.8597         12.8683         12.8683 
        1.22108         36.7397         12.7204         12.7204 
         1.2272         36.4517         12.5752         12.5752 
        1.23334         36.1991          12.432          12.432 
        1.23949         35.9325         12.2906         12.2906 
        1.24562         35.6073         12.1519         12.1519 
        1.25174         35.4341         12.0156         12.0156 
        1.25789         35.3642         11.8809         11.8809 
        1.26402         35.1034         11.7486         11.7486 
        1.27014         34.8624         11.6186         11.6186 
        1.27628         34.5335         11.4902         11.4902 
        1.28244          34.489         11.3635         11.3635 
        1.28858         34.1667         11.2389         11.2389 
        1.29471         33.9759         11.1165         11.1165 
        1.30084         33.7095          10.996          10.996 
        1.30697         33.5792         10.8772         10.8772 
        1.31312         33.2927         10.7599         10.7599 
        1.31925         33.0643         10.6447         10.6447 
        1.32537          32.882         10.5314         10.5314 
        1.33151         32.6705         10.4193         10.4193 
        1.33765         32.5884          10.309          10.309 
        1.34378         32.4119         10.2005         10.2005 
        1.34992         32.1717         10.0934         10.0934 
        1.35606         31.9848         9.98771         9.98771 
         1.3622         31.7375         9.88372         9.88372 
        1.36833         31.6123         9.78146         9.78146 
        1.37445         31.4011         9.68072         9.68072 
        1.38059         31.2321         9.58111         9.58111 
        1.38675         30.9659         9.48267         9.48267 
        1.39288         30.8614         9.38601         9.38601 
        1.39901         30.6551         9.29076         9.29076 
        1.40515         30.5213         9.19663         9.19663 
         1.4113         30.4466         9.10385         9.10385 
        1.41742         30.2628         9.01271         9.01271 
        1.42355         29.9816         8.92266         8.92266 
         1.4297         29.8044         8.83358         8.83358 
        1.43585         29.6199         8.74576         8.74576 
        1.44198         29.5199         8.65949         8.65949 
        1.44809         29.3439         8.57455         8.57455 
        1.45423         29.2093         8.49044         8.49044 
        1.46036         29.0426         8.40763         8.40763 
        1.46649          28.877          8.3259          8.3259 
        1.47263         28.6887          8.2452          8.2452 
        1.47877         28.5851         8.16561         8.16561 
        1.48491         28.4511         8.08696         8.08696 
        1.49104         28.2309         8.00952         8.00952 
        1.49718         28.1434         7.93305         7.93305 
        1.50333         28.0404         7.85746         7.85746 
        1.50947         27.8365         7.78302         7.78302 
         1.5156         27.6859         7.70966         7.70966 
        1.52172         27.4914         7.63725         7.63725 
        1.52787         27.3681         7.56563         7.56563 
          1.534         27.2624         7.49503         7.49503 
        1.54013         27.1685          7.4254          7.4254 
        1.54627         26.9223         7.35654         7.35654 
        1.55241         26.8085         7.28855         7.28855 
        1.55855         26.7021         7.22152         7.22152 
        1.56467         26.6232         7.15552         7.15552 
         1.5708         26.4457         7.09016         7.09016 
        1.57695         26.3173         7.02553         7.02553 
        1.58308         26.0792         6.96186         6.96186 
        1.58922         25.9602         6.89894         6.89894 
        1.59535         25.8733         6.83683         6.83683 
         1.6015         25.7387          6.7754          6.7754 
        1.60764         25.6335         6.71476         6.71476 
        1.61376          25.503         6.65503         6.65503 
        1.61989         25.3091         6.59599         6.59599 
        1.62604         25.2233         6.53754         6.53754 
        1.63218         25.1096         6.47984         6.47984 
        1.63831         24.9766         6.42298         6.42298 
        1.64444         24.8549         6.36678         6.36678 
        1.65059         24.7245         6.31112         6.31112 
        1.65673         24.6419          6.2562          6.2562 
        1.66285         24.4951         6.20208         6.20208 
        1.66898         24.3838          6.1486          6.1486 
        1.67512         24.3196         6.09564         6.09564 
        1.68127         24.1781         6.04327         6.04327 
         1.6874         24.0639         5.99163         5.99163 
        1.69353         23.9085         5.94063         5.94063 
        1.69967         23.8019         5.89011         5.89011 
        1.70581          23.667          5.8402          5.8402 
        1.71193         23.5043         5.79106         5.79106 
        1.71806         23.4721         5.74238         5.74238 
        1.72421         23.3844         5.69417         5.69417 
        1.73035         23.2248         5.64658         5.64658 
        1.73649         23.1118         5.59954         5.59954 
        1.74262          22.988         5.55308         5.55308 
        1.74876         22.8841         5.50712         5.50712 
        1.75489         22.8046         5.46178         5.46178 
        1.76101         22.6854         5.41697         5.41697 
        1.76715         22.6005          5.3726          5.3726 
        1.77329         22.4601         5.32868         5.32868 
        1.77943         22.3867         5.28523         5.28523 
        1.78557         22.2869         5.24234         5.24234 
        1.79171         22.1479         5.19992         5.19992 
        1.79785         22.0619         5.15796         5.15796 
        1.80399         21.9579         5.11648         5.11648 
        1.81012         21.8913         5.07551         5.07551 
        1.81625         21.7371         5.03502         5.03502 
        1.82239         21.6527          4.9949          4.9949 
        1.82853         21.5601         4.95525         4.95525 
        1.83466         21.4389         4.91607         4.91607 
        1.84078         21.3742         4.87735         4.87735 
        1.84692         21.3131           4.839           4.839 
        1.85306         21.1767         4.80101         4.80101 
         1.8592         21.1149         4.76349         4.76349 
        1.86533         20.9188         4.72639         4.72639 
        1.87147         20.8489         4.68965         4.68965 
        1.87761         20.7855         4.65329         4.65329 
