# k  (h/Mpc)    Pcb(k)  (Mpc/h)^3    Pcb_linear(k) (Mpc/h)^3    Pcb_NL(k) (Mpc/h)^3   ShotnoiseSubtracted = false
     0.00783031         8386.24          8430.7          8430.7 
       0.013688         10439.4         10661.4         10661.4 
       0.019231         10862.3         10989.5         10989.5 
      0.0249154         10362.6         10350.3         10350.3 
      0.0312784         9098.64         9170.04         9170.04 
      0.0375637         7888.97         8001.42         8001.42 
      0.0433917         7085.23         7118.25         7118.25 
      0.0492413         6382.54         6459.99         6459.99 
      0.0555754         5908.74         5944.01         5944.01 
      0.0619321         5357.89          5528.4          5528.4 
       0.067871         5054.06         5149.58         5149.58 
      0.0738098          4680.8          4738.7          4738.7 
      0.0800417         4241.11         4275.57         4275.57 
      0.0862327         3778.55          3818.5          3818.5 
      0.0921407         3404.32         3425.44         3425.44 
      0.0982031         3112.59         3094.07         3094.07 
       0.104506         2816.12         2834.45         2834.45 
       0.110769         2639.48         2648.42         2648.42 
       0.116806         2540.55         2511.67         2511.67 
       0.122832         2388.77         2389.92         2389.92 
       0.129052         2263.26         2258.39         2258.39 
       0.135211         2158.85            2113            2113 
       0.141259         1987.73          1959.1          1959.1 
       0.147318         1821.89          1805.2          1805.2 
       0.153489         1705.39          1661.8          1661.8 
       0.159709         1622.28         1540.33         1540.33 
       0.165845         1490.56         1445.77         1445.77 
       0.171974         1459.05         1372.77         1372.77 
       0.178125         1407.72         1313.49         1313.49 
       0.184229         1312.67         1260.08         1260.08 
        0.19034         1283.08         1205.38         1205.38 
       0.196428         1236.44         1146.52         1146.52 
       0.202534         1151.44         1083.69         1083.69 
       0.208729         1122.06         1019.33         1019.33 
       0.214876         1071.23         958.957         958.957 
       0.220989         1003.75         905.579         905.579 
       0.227147          980.67         859.934         859.934 
        0.23329          944.75         821.974         821.974 
       0.239377         930.454         789.861         789.861 
       0.245482         885.426         760.625         760.625 
       0.251667         851.632         731.789         731.789 
       0.257832         840.752         702.439         702.439 
       0.263955          795.77         672.448         672.448 
       0.270079         768.857         642.302         642.302 
        0.27624         735.429         612.943         612.943 
       0.282372         720.121         585.767         585.767 
        0.28843         713.388         561.539         561.539 
       0.294538         677.726         539.817         539.817 
       0.300721         658.334         520.187         520.187 
        0.30691         647.343         502.168         502.168 
       0.313033         619.983          485.23          485.23 
       0.319153         610.026          468.63          468.63 
       0.325316         598.544         452.019         452.019 
        0.33145         584.952         435.634         435.634 
       0.337538         564.096          419.78          419.78 
       0.343633         547.365         404.615         404.615 
       0.349808         534.248         390.212         390.212 
       0.355968          523.97         376.913         376.913 
       0.362074         507.887         364.711         364.711 
       0.368217         504.057         353.266         353.266 
       0.374374         494.412         342.393         342.393 
       0.380519         475.135         331.946         331.946 
       0.386598         469.345         321.888         321.888 
       0.392688         458.946         312.035         312.035 
        0.39888         446.968         302.291         302.291 
       0.405048         439.134         292.925         292.925 
       0.411186         436.739         284.009         284.009 
       0.417313         430.216         275.565         275.565 
       0.423458         418.012          267.55          267.55 
       0.429607         407.494         259.945         259.945 
       0.435692         400.694         252.777         252.777 
       0.441815         394.386         245.855         245.855 
       0.447964         384.966         239.135         239.135 
       0.454126         380.111          232.61          232.61 
       0.460267         374.371         226.307         226.307 
       0.466387         367.913         220.223         220.223 
        0.47254          362.79         214.321         214.321 
       0.478662          353.86         208.678         208.678 
       0.484765         349.953         203.285         203.285 
       0.490885         346.161         198.096         198.096 
       0.497035         340.069         193.087         193.087 
       0.503198         338.271          188.26          188.26 
       0.509342         329.647         183.617         183.617 
       0.515458         325.091         179.143         179.143 
       0.521598         318.888         174.789         174.789 
       0.527764         314.886         170.552         170.552 
       0.533884         313.827         166.483         166.483 
           0.54         308.089         162.552         162.552 
       0.546137         301.314         158.738         158.738 
       0.552299         300.242         155.039         155.039 
       0.558452         295.169         151.472         151.472 
       0.564573         292.629         148.043         148.043 
       0.570708         287.714         144.718         144.718 
       0.576825         283.012         141.506         141.506 
       0.582926         280.444         138.399         138.399 
       0.589034         276.577         135.378         135.378 
       0.595184         274.682         132.427         132.427 
       0.601379         269.754         129.544         129.544 
       0.607522         264.782         126.772         126.772 
       0.613639         263.179         124.095         124.095 
       0.619772          261.51         121.492         121.492 
       0.625918         258.128          118.96          118.96 
       0.632068         253.624           116.5           116.5 
       0.638161         251.388         114.134         114.134 
         0.6443         249.702         111.817         111.817 
       0.650464         245.308         109.557         109.557 
       0.656582         243.417         107.376         107.376 
       0.662703         241.525         105.255         105.255 
       0.668861         237.129          103.18          103.18 
       0.675024         236.499          101.16          101.16 
       0.681124         233.467         99.2149         99.2149 
       0.687237         231.046         97.3179         97.3179 
       0.693381         228.582         95.4625         95.4625 
       0.699536         226.281          93.653          93.653 
       0.705665         223.817          91.899          91.899 
       0.711789         221.524         90.1924         90.1924 
       0.717957         219.193         88.5181         88.5181 
        0.72409         216.992         86.8964         86.8964 
       0.730186         217.584         85.3257         85.3257 
       0.736317         213.872         83.7859         83.7859 
       0.742472         211.048          82.279          82.279 
       0.748622         208.062          80.811          80.811 
        0.75476          208.79         79.3825         79.3825 
       0.760888         206.162         77.9911         77.9911 
       0.767043         203.201          76.628          76.628 
       0.773185         201.662         75.3008         75.3008 
       0.779291         198.947          74.013          74.013 
       0.785407         197.935         72.7538         72.7538 
       0.791564         196.168         71.5164         71.5164 
       0.797719         193.334         70.3088         70.3088 
       0.803834         193.987          69.137          69.137 
       0.809972          192.08         67.9882         67.9882 
       0.816124         189.283         66.8633         66.8633 
       0.822261         187.633         65.7672         65.7672 
       0.828378         187.493         64.6994         64.6994 
       0.834502         184.489         63.6546         63.6546 
       0.840667         184.131         62.6264         62.6264 
       0.846816         181.706         61.6242         61.6242 
       0.852925         180.456         60.6505         60.6505 
       0.859047         178.618          59.696          59.696 
       0.865192         178.078         58.7592         58.7592 
       0.871341         175.809         57.8421         57.8421 
       0.877463         174.435         56.9491         56.9491 
       0.883569         174.256         56.0774         56.0774 
       0.889708         172.614         55.2197         55.2197 
       0.895864         170.975          54.378          54.378 
       0.902008         169.248         53.5558         53.5558 
       0.908149         167.511         52.7513         52.7513 
       0.914301         167.242         51.9622         51.9622 
       0.920448         166.545         51.1903         51.1903 
       0.926574         164.021         50.4369         50.4369 
       0.932687         163.609         49.7004         49.7004 
       0.938823         162.315         48.9762         48.9762 
       0.944975         160.826          48.265          48.265 
       0.951105         159.529         47.5706         47.5706 
       0.957225         159.001         46.8912         46.8912 
       0.963368         157.436         46.2229         46.2229 
       0.969511         155.813         45.5678         45.5678 
       0.975621         154.654         44.9291         44.9291 
       0.981748         153.563         44.3011         44.3011 
       0.987916          152.87         43.6813         43.6813 
        0.99406         151.874         43.0758         43.0758 
        1.00019         150.683         42.4831         42.4831 
        1.00632         149.859         41.9023         41.9023 
        1.01246         148.647         41.3315         41.3315 
        1.01859         147.572         40.7725         40.7725 
        1.02471         146.486         40.2245         40.2245 
        1.03085         145.395         39.6849         39.6849 
        1.03698         144.302         39.1564         39.1564 
        1.04314         143.757         38.6354         38.6354 
        1.04929         143.034         38.1253         38.1253 
        1.05541         141.971         37.6264         37.6264 
        1.06154         140.921         37.1354         37.1354 
        1.06769         139.824         36.6525         36.6525 
        1.07382         139.099         36.1798         36.1798 
        1.07993          138.15         35.7166         35.7166 
        1.08607          137.11         35.2597         35.2597 
        1.09222         136.429         34.8104         34.8104 
        1.09836         135.282         34.3695         34.3695 
        1.10449          134.31         33.9369         33.9369 
        1.11063         133.447         33.5113         33.5113 
        1.11677         132.783         33.0932         33.0932 
         1.1229         131.676         32.6831         32.6831 
        1.12903         131.135         32.2797         32.2797 
        1.13518         130.169         31.8827         31.8827 
        1.14131         129.398         31.4928         31.4928 
        1.14745         128.556         31.1097         31.1097 
        1.15359         127.204         30.7329         30.7329 
        1.15973          126.86         30.3623         30.3623 
        1.16584         126.108         29.9995         29.9995 
        1.17197         125.417         29.6422         29.6422 
        1.17811         124.296         29.2897         29.2897 
        1.18424         123.641          28.944          28.944 
        1.19038         123.131         28.6029         28.6029 
        1.19652         122.184         28.2675         28.2675 
        1.20267         121.362         27.9375         27.9375 
        1.20881         120.567          27.613          27.613 
        1.21495         120.103         27.2941         27.2941 
        1.22108         119.285         26.9804         26.9804 
         1.2272         118.324         26.6724         26.6724 
        1.23334         118.021         26.3686         26.3686 
        1.23949         117.384         26.0688         26.0688 
        1.24562         116.362         25.7746         25.7746 
        1.25174         115.545         25.4854         25.4854 
        1.25789         115.098         25.1997         25.1997 
        1.26402         114.565         24.9191         24.9191 
        1.27014         113.782         24.6434         24.6434 
        1.27628         112.619          24.371          24.371 
        1.28244         112.517         24.1023         24.1023 
        1.28858         111.465         23.8381         23.8381 
        1.29471         110.862         23.5784         23.5784 
        1.30084         110.155         23.3229         23.3229 
        1.30697         109.857         23.0708         23.0708 
        1.31312         108.971         22.8221         22.8221 
        1.31925         108.203         22.5778         22.5778 
        1.32537         107.753         22.3375         22.3375 
        1.33151          107.45         22.0997         22.0997 
        1.33765         106.328         21.8657         21.8657 
        1.34378         106.172         21.6355         21.6355 
        1.34992         105.669         21.4085         21.4085 
        1.35606         104.804         21.1842         21.1842 
         1.3622         104.636         20.9637         20.9637 
        1.36833         103.432         20.7468         20.7468 
        1.37445         103.073         20.5331         20.5331 
        1.38059         102.614         20.3218         20.3218 
        1.38675         101.693          20.113          20.113 
        1.39288         101.292          19.908          19.908 
        1.39901         100.427          19.706          19.706 
        1.40515         100.184         19.5063         19.5063 
         1.4113         99.6415         19.3095         19.3095 
        1.41742         98.9063         19.1162         19.1162 
        1.42355         98.5613         18.9252         18.9252 
         1.4297         97.8686         18.7363         18.7363 
        1.43585         97.1768           18.55           18.55 
        1.44198         96.6792          18.367          18.367 
        1.44809         95.9717         18.1869         18.1869 
        1.45423         95.7105         18.0085         18.0085 
        1.46036         94.9205         17.8328         17.8328 
        1.46649         94.3702         17.6595         17.6595 
        1.47263         94.0821         17.4883         17.4883 
        1.47877         93.4315         17.3195         17.3195 
        1.48491         92.8837         17.1527         17.1527 
        1.49104         92.0258         16.9884         16.9884 
        1.49718         91.9445         16.8262         16.8262 
        1.50333         91.4082         16.6659         16.6659 
        1.50947         91.0612          16.508          16.508 
         1.5156         90.5646         16.3524         16.3524 
        1.52172         89.8443         16.1988         16.1988 
        1.52787         89.3078         16.0469         16.0469 
          1.534         88.9137         15.8972         15.8972 
        1.54013         88.5707         15.7495         15.7495 
        1.54627         87.7673         15.6034         15.6034 
        1.55241         87.4104         15.4592         15.4592 
        1.55855          86.906         15.3171         15.3171 
        1.56467         86.1382         15.1771         15.1771 
         1.5708         85.8905         15.0384         15.0384 
        1.57695         85.5175         14.9014         14.9014 
        1.58308         85.0204         14.7663         14.7663 
        1.58922         84.7644         14.6329         14.6329 
        1.59535         84.3148         14.5011         14.5011 
         1.6015         83.8309         14.3708         14.3708 
        1.60764         83.2695         14.2422         14.2422 
        1.61376          82.754         14.1155         14.1155 
        1.61989         82.1921         13.9903         13.9903 
        1.62604         81.9021         13.8663         13.8663 
        1.63218          81.623         13.7439         13.7439 
        1.63831         81.0384         13.6233         13.6233 
        1.64444         80.6966         13.5041         13.5041 
        1.65059         80.1821         13.3861         13.3861 
        1.65673         79.6158         13.2696         13.2696 
        1.66285         79.1188         13.1548         13.1548 
        1.66898         78.7162         13.0414         13.0414 
        1.67512         78.4015          12.929          12.929 
        1.68127         78.0489          12.818          12.818 
         1.6874          77.536         12.7084         12.7084 
        1.69353         77.0654         12.6003         12.6003 
        1.69967         76.8097         12.4931         12.4931 
        1.70581         76.3755         12.3872         12.3872 
        1.71193         75.8587          12.283          12.283 
        1.71806          75.381         12.1798         12.1798 
        1.72421         75.1016         12.0775         12.0775 
        1.73035         74.8649         11.9766         11.9766 
        1.73649         74.3095         11.8768         11.8768 
        1.74262         73.7157         11.7783         11.7783 
        1.74876         73.5094         11.6808         11.6808 
        1.75489         72.9639         11.5846         11.5846 
        1.76101         72.5695         11.4896         11.4896 
        1.76715         72.3884         11.3954         11.3954 
        1.77329         71.8337         11.3023         11.3023 
        1.77943         71.5974         11.2101         11.2101 
        1.78557         71.2698         11.1192         11.1192 
        1.79171         70.8293         11.0292         11.0292 
        1.79785         70.3915         10.9402         10.9402 
        1.80399         70.0472         10.8522         10.8522 
        1.81012         69.6368         10.7653         10.7653 
        1.81625         69.3547         10.6794         10.6794 
        1.82239         69.0513         10.5943         10.5943 
        1.82853         68.4986         10.5102         10.5102 
        1.83466         68.1935         10.4271         10.4271 
        1.84078         67.8692          10.345          10.345 
        1.84692         67.6333         10.2637         10.2637 
        1.85306         67.1958         10.1831         10.1831 
         1.8592         66.9042         10.1035         10.1035 
        1.86533         66.4865         10.0248         10.0248 
        1.87147         66.1034         9.94689         9.94689 
