# k  (h/Mpc)    Pcb(k)  (Mpc/h)^3    Pcb_linear(k) (Mpc/h)^3    Pcb_NL(k) (Mpc/h)^3   ShotnoiseSubtracted = false
     0.00783031         15562.3         15641.1         15641.1 
       0.013688         19351.5           19895           19895 
       0.019231         20190.4         20534.9         20534.9 
      0.0249154           19345           19351           19351 
      0.0312784         16903.7         17149.1         17149.1 
      0.0375637         14618.1         14965.9         14965.9 
      0.0433917         13155.4         13315.1         13315.1 
      0.0492413         11824.8         12084.4         12084.4 
      0.0555754         10939.6         11119.6         11119.6 
      0.0619321         9846.45         10342.4         10342.4 
       0.067871         9302.46         9633.89         9633.89 
      0.0738098         8651.94         8865.33         8865.33 
      0.0800417         7833.29         7998.99         7998.99 
      0.0862327         6989.86         7143.94         7143.94 
      0.0921407         6326.18         6408.61         6408.61 
      0.0982031          5811.5         5788.69         5788.69 
       0.104506         5253.28            5303            5303 
       0.110769         4929.24         4954.97         4954.97 
       0.116806         4747.05         4699.12         4699.12 
       0.122832          4472.4         4471.37         4471.37 
       0.129052         4216.07         4225.29         4225.29 
       0.135211         4059.34         3953.29         3953.29 
       0.141259         3735.38         3665.36         3665.36 
       0.147318         3446.63         3377.41         3377.41 
       0.153489         3245.81         3109.14         3109.14 
       0.159709         3124.26         2881.87         2881.87 
       0.165845         2872.71         2704.96         2704.96 
       0.171974         2809.16         2568.38         2568.38 
       0.178125         2732.81         2457.47         2457.47 
       0.184229         2524.99         2357.54         2357.54 
        0.19034         2487.92          2255.2          2255.2 
       0.196428          2413.9         2145.09         2145.09 
       0.202534         2267.75         2027.53         2027.53 
       0.208729         2215.95         1907.11         1907.11 
       0.214876         2116.09         1794.17         1794.17 
       0.220989         2017.47          1694.3          1694.3 
       0.227147         1964.95          1608.9          1608.9 
        0.23329          1891.6         1537.88         1537.88 
       0.239377         1883.74          1477.8          1477.8 
       0.245482         1800.33          1423.1          1423.1 
       0.251667         1734.99         1369.15         1369.15 
       0.257832          1707.3         1314.24         1314.24 
       0.263955          1633.1         1258.12         1258.12 
       0.270079         1593.52         1201.72         1201.72 
        0.27624         1527.24         1146.79         1146.79 
       0.282372         1512.03         1095.95         1095.95 
        0.28843         1482.82         1050.62         1050.62 
       0.294538         1419.41         1009.98         1009.98 
       0.300721         1395.31          973.25          973.25 
        0.30691         1360.48         939.538         939.538 
       0.313033         1312.07         907.848         907.848 
       0.319153         1299.42         876.789         876.789 
       0.325316         1283.45         845.712         845.712 
        0.33145         1255.67         815.055         815.055 
       0.337538         1216.94         785.395         785.395 
       0.343633          1189.7         757.021         757.021 
       0.349808         1170.14         730.072         730.072 
       0.355968         1145.86         705.191         705.191 
       0.362074            1114         682.362         682.362 
       0.368217          1110.6         660.949         660.949 
       0.374374         1093.71         640.606         640.606 
       0.380519         1057.43         621.059         621.059 
       0.386598         1053.07         602.241         602.241 
       0.392688         1026.41         583.807         583.807 
        0.39888         1007.24         565.576         565.576 
       0.405048         987.714         548.054         548.054 
       0.411186         984.293         531.371         531.371 
       0.417313         980.106         515.573         515.573 
       0.423458         950.853         500.578         500.578 
       0.429607         926.335         486.348         486.348 
       0.435692         919.168         472.938         472.938 
       0.441815         901.905         459.986         459.986 
       0.447964         892.116         447.414         447.414 
       0.454126         880.691         435.206         435.206 
       0.460267         870.295         423.413         423.413 
       0.466387         855.832         412.031         412.031 
        0.47254         841.942         400.987         400.987 
       0.478662         831.559          390.43          390.43 
       0.484765         822.525         380.339         380.339 
       0.490885         814.085         370.631         370.631 
       0.497035         799.191          361.26          361.26 
       0.503198         798.072         352.229         352.229 
       0.509342         783.464         343.541         343.541 
       0.515458         768.146         335.172         335.172 
       0.521598         767.338         327.024         327.024 
       0.527764         749.367         319.098         319.098 
       0.533884         741.879         311.485         311.485 
           0.54         736.717         304.129         304.129 
       0.546137         727.064         296.994         296.994 
       0.552299         721.797         290.073         290.073 
       0.558452         713.861         283.399         283.399 
       0.564573         709.423         276.984         276.984 
       0.570708         701.813         270.763         270.763 
       0.576825         687.636         264.754         264.754 
       0.582926         686.092          258.94          258.94 
       0.589034         677.398         253.289         253.289 
       0.595184         670.055         247.767         247.767 
       0.601379         659.882         242.373         242.373 
       0.607522         650.748         237.186         237.186 
       0.613639         649.891         232.178         232.178 
       0.619772         644.327         227.307         227.307 
       0.625918         634.663          222.57          222.57 
       0.632068          631.77         217.969         217.969 
       0.638161         623.116         213.541         213.541 
         0.6443         616.958         209.206         209.206 
       0.650464         612.214         204.977         204.977 
       0.656582         607.455         200.897         200.897 
       0.662703         600.039         196.929         196.929 
       0.668861         593.731         193.046         193.046 
       0.675024         590.415         189.267         189.267 
       0.681124         579.454         185.628         185.628 
       0.687237         579.885         182.079         182.079 
       0.693381          569.87         178.607         178.607 
       0.699536         571.179         175.222         175.222 
       0.705665         562.546          171.94          171.94 
       0.711789         561.303         168.747         168.747 
       0.717957         554.041         165.615         165.615 
        0.72409          549.41          162.58          162.58 
       0.730186         547.842         159.642         159.642 
       0.736317         540.396         156.761         156.761 
       0.742472         534.249         153.941         153.941 
       0.748622         532.837         151.195         151.195 
        0.75476         525.784         148.522         148.522 
       0.760888         523.485         145.919         145.919 
       0.767043         520.871         143.369         143.369 
       0.773185         516.561         140.885         140.885 
       0.779291          510.99         138.476         138.476 
       0.785407         506.849          136.12          136.12 
       0.791564         504.373         133.805         133.805 
       0.797719         496.645         131.546         131.546 
       0.803834         497.594         129.353         129.353 
       0.809972         489.952         127.204         127.204 
       0.816124         486.474         125.099         125.099 
       0.822261         483.803         123.048         123.048 
       0.828378         481.444         121.051         121.051 
       0.834502         473.936         119.096         119.096 
       0.840667         473.071         117.172         117.172 
       0.846816         468.048         115.297         115.297 
       0.852925         467.523         113.475         113.475 
       0.859047         462.331         111.689         111.689 
       0.865192         459.798         109.937         109.937 
       0.871341         454.124         108.221         108.221 
       0.877463           453.3          106.55          106.55 
       0.883569          448.72         104.919         104.919 
       0.889708         443.959         103.314         103.314 
       0.895864         439.399          101.74          101.74 
       0.902008         438.888         100.201         100.201 
       0.908149         434.579         98.6961         98.6961 
       0.914301         433.129         97.2198         97.2198 
       0.920448         427.697         95.7754         95.7754 
       0.926574         425.591         94.3658         94.3658 
       0.932687         424.423          92.988          92.988 
       0.938823         419.127          91.633          91.633 
       0.944975         417.683         90.3023         90.3023 
       0.951105         414.234         89.0031         89.0031 
       0.957225         408.793          87.732          87.732 
       0.963368         409.396         86.4817         86.4817 
       0.969511         403.368          85.256          85.256 
       0.975621         401.572          84.061          84.061 
       0.981748         399.693         82.8861         82.8861 
       0.987916         397.152         81.7264         81.7264 
        0.99406         392.969         80.5936         80.5936 
        1.00019         389.356         79.4847         79.4847 
        1.00632         388.239         78.3979         78.3979 
        1.01246         385.089           77.33           77.33 
        1.01859         381.615          76.284          76.284 
        1.02471         379.794         75.2589         75.2589 
        1.03085         377.534         74.2492         74.2492 
        1.03698          375.49         73.2605         73.2605 
        1.04314         372.612         72.2857         72.2857 
        1.04929         371.013         71.3312         71.3312 
        1.05541         366.284         70.3979         70.3979 
        1.06154         364.645         69.4792         69.4792 
        1.06769         361.421         68.5756         68.5756 
        1.07382           358.6         67.6913         67.6913 
        1.07993             358         66.8247         66.8247 
        1.08607         355.442         65.9698         65.9698 
        1.09222         352.123         65.1292         65.1292 
        1.09836         350.306         64.3043         64.3043 
        1.10449         347.462         63.4949         63.4949 
        1.11063         346.114         62.6986         62.6986 
        1.11677         341.927         61.9164         61.9164 
         1.1229         341.029         61.1491         61.1491 
        1.12903         337.916         60.3942         60.3942 
        1.13518         336.109         59.6516         59.6516 
        1.14131         334.312         58.9221         58.9221 
        1.14745           330.8         58.2052         58.2052 
        1.15359         328.274         57.5003         57.5003 
        1.15973         326.763         56.8069         56.8069 
        1.16584         325.221         56.1282         56.1282 
        1.17197           322.7         55.4596         55.4596 
        1.17811         319.105         54.8001         54.8001 
        1.18424         318.272         54.1533         54.1533 
        1.19038         316.386         53.5151         53.5151 
        1.19652         312.942         52.8876         52.8876 
        1.20267         312.045         52.2703         52.2703 
        1.20881         310.286          51.663          51.663 
        1.21495         307.205         51.0665         51.0665 
        1.22108         306.195         50.4796         50.4796 
         1.2272         301.797         49.9033         49.9033 
        1.23334         300.933         49.3349         49.3349 
        1.23949         298.881          48.774          48.774 
        1.24562          298.01         48.2235         48.2235 
        1.25174         295.605         47.6823         47.6823 
        1.25789         293.059          47.148          47.148 
        1.26402         291.725         46.6228         46.6228 
        1.27014         290.171          46.107          46.107 
        1.27628         287.809         45.5975         45.5975 
        1.28244         285.317         45.0948         45.0948 
        1.28858         284.376         44.6003         44.6003 
        1.29471         282.603         44.1145         44.1145 
        1.30084          281.61         43.6364         43.6364 
        1.30697         278.263         43.1647         43.1647 
        1.31312         276.673         42.6994         42.6994 
        1.31925         275.318         42.2425         42.2425 
        1.32537         274.115         41.7927         41.7927 
        1.33151         271.197          41.348          41.348 
        1.33765         269.072           40.91           40.91 
        1.34378         268.079         40.4793         40.4793 
        1.34992         265.332         40.0546         40.0546 
        1.35606         263.965         39.6351         39.6351 
         1.3622         262.147         39.2224         39.2224 
        1.36833         261.497         38.8166         38.8166 
        1.37445         260.224         38.4168         38.4168 
        1.38059         256.866         38.0215         38.0215 
        1.38675         255.626         37.6309         37.6309 
        1.39288         254.741         37.2473         37.2473 
        1.39901         252.328         36.8693         36.8693 
        1.40515         251.163         36.4958         36.4958 
         1.4113         249.217         36.1276         36.1276 
        1.41742         247.205         35.7659         35.7659 
        1.42355         246.556         35.4085         35.4085 
         1.4297          244.51          35.055          35.055 
        1.43585         242.508         34.7066         34.7066 
        1.44198         241.227         34.3642         34.3642 
        1.44809          239.99         34.0271         34.0271 
        1.45423         238.422         33.6933         33.6933 
        1.46036         237.454         33.3647         33.3647 
        1.46649         235.573         33.0403         33.0403 
        1.47263         233.562         32.7201         32.7201 
        1.47877         232.311         32.4043         32.4043 
        1.48491         230.488         32.0922         32.0922 
        1.49104          228.54         31.7849         31.7849 
        1.49718         227.809         31.4814         31.4814 
        1.50333         225.829         31.1814         31.1814 
        1.50947         224.677          30.886          30.886 
         1.5156         223.226         30.5949         30.5949 
        1.52172         221.724         30.3075         30.3075 
        1.52787         219.998         30.0233         30.0233 
          1.534         219.731         29.7431         29.7431 
        1.54013         217.576         29.4668         29.4668 
        1.54627         216.274         29.1936         29.1936 
        1.55241         215.243         28.9238         28.9238 
        1.55855         213.724         28.6577         28.6577 
        1.56467         212.435         28.3958         28.3958 
         1.5708         210.843         28.1365         28.1365 
        1.57695         209.944           27.88           27.88 
        1.58308         208.786         27.6273         27.6273 
        1.58922         206.868         27.3776         27.3776 
        1.59535          205.38         27.1311         27.1311 
         1.6015         204.571         26.8874         26.8874 
        1.60764         202.905         26.6467         26.6467 
        1.61376         201.459         26.4097         26.4097 
        1.61989         200.104         26.1754         26.1754 
        1.62604         199.043         25.9435         25.9435 
        1.63218         197.577         25.7145         25.7145 
        1.63831         196.882         25.4888         25.4888 
        1.64444         195.064         25.2658         25.2658 
        1.65059         194.172          25.045          25.045 
        1.65673         192.863          24.827          24.827 
        1.66285         191.656         24.6122         24.6122 
        1.66898         190.471            24.4            24.4 
        1.67512         189.198         24.1899         24.1899 
        1.68127         188.214          23.982          23.982 
         1.6874         186.796         23.7771         23.7771 
        1.69353         186.156         23.5747         23.5747 
        1.69967         184.584         23.3742         23.3742 
        1.70581         183.719         23.1761         23.1761 
        1.71193         182.393         22.9811         22.9811 
        1.71806         180.782          22.788          22.788 
        1.72421         180.051         22.5967         22.5967 
        1.73035         178.743         22.4078         22.4078 
        1.73649         177.301         22.2211         22.2211 
        1.74262         176.576         22.0368         22.0368 
        1.74876         175.493         21.8544         21.8544 
        1.75489           174.7         21.6744         21.6744 
        1.76101         173.583         21.4966         21.4966 
        1.76715         172.295         21.3205         21.3205 
        1.77329         170.888         21.1462         21.1462 
        1.77943         169.843         20.9738         20.9738 
        1.78557         168.837         20.8036         20.8036 
        1.79171         168.235         20.6353         20.6353 
        1.79785         166.802         20.4688         20.4688 
        1.80399         165.846         20.3041         20.3041 
        1.81012         165.252         20.1416         20.1416 
        1.81625         163.472         19.9809         19.9809 
        1.82239         163.008         19.8217         19.8217 
        1.82853         161.984         19.6643         19.6643 
        1.83466         160.463         19.5088         19.5088 
        1.84078          159.82         19.3552         19.3552 
        1.84692         159.095          19.203          19.203 
        1.85306         157.741         19.0522         19.0522 
         1.8592         157.102         18.9033         18.9033 
        1.86533         155.521         18.7561         18.7561 
        1.87147         154.689         18.6103         18.6103 
