# k  (h/Mpc)    P(k)  (Mpc/h)^3    P_linear(k)  (Mpc/h)^3     P_NL(k)  ShotnoiseSubtracted = false
     0.00783031           12926         12989.2         12989.2 
       0.013688           16031         16444.2         16444.2 
       0.019231         16699.8         16954.2         16954.2 
      0.0249154         15974.6         15969.5         15969.5 
      0.0312784           13979         14148.9         14148.9 
      0.0375637         12098.2           12346           12346 
      0.0433917         10880.7         10983.4         10983.4 
      0.0492413         9786.63          9967.8          9967.8 
      0.0555754         9057.14         9171.67         9171.67 
      0.0619321         8170.44         8530.39         8530.39 
       0.067871         7716.62         7945.88         7945.88 
      0.0738098         7165.97         7311.89         7311.89 
      0.0800417         6490.36         6597.28         6597.28 
      0.0862327         5787.39         5892.02         5892.02 
      0.0921407          5229.6         5285.52         5285.52 
      0.0982031         4796.61         4774.21         4774.21 
       0.104506         4336.42         4373.62         4373.62 
       0.110769          4067.3         4086.57         4086.57 
       0.116806          3917.5         3875.55         3875.55 
       0.122832         3686.92          3687.7          3687.7 
       0.129052         3482.22         3484.74         3484.74 
       0.135211         3342.89          3260.4          3260.4 
       0.141259         3076.01         3022.93         3022.93 
       0.147318         2830.42         2785.45         2785.45 
       0.153489         2660.37         2564.19         2564.19 
       0.159709         2551.47         2376.76         2376.76 
       0.165845            2344         2230.85         2230.85 
       0.171974         2294.91         2118.21         2118.21 
       0.178125          2226.4         2026.74         2026.74 
       0.184229         2061.72         1944.32         1944.32 
        0.19034         2026.38         1859.92         1859.92 
       0.196428         1962.01         1769.11         1769.11 
       0.202534         1836.18         1672.15         1672.15 
       0.208729         1794.65         1572.84         1572.84 
       0.214876         1713.13         1479.69         1479.69 
       0.220989         1623.36         1397.32         1397.32 
       0.227147         1583.07         1326.89         1326.89 
        0.23329         1524.42         1268.32         1268.32 
       0.239377         1513.85         1218.77         1218.77 
       0.245482         1443.86         1173.66         1173.66 
       0.251667         1390.83         1129.16         1129.16 
       0.257832         1370.43         1083.88         1083.88 
       0.263955         1306.03          1037.6          1037.6 
       0.270079         1269.88         991.083         991.083 
        0.27624         1216.52         945.782         945.782 
       0.282372         1200.31         903.851         903.851 
        0.28843         1182.12         866.466         866.466 
       0.294538         1127.12         832.946         832.946 
       0.300721         1104.23         802.658         802.658 
        0.30691         1080.29         774.855         774.855 
       0.313033         1038.17          748.72          748.72 
       0.319153         1025.93         723.103         723.103 
       0.325316         1012.78         697.474         697.474 
        0.33145         991.009         672.191         672.191 
       0.337538         957.907         647.729         647.729 
       0.343633         934.419         624.329         624.329 
       0.349808         916.409         602.104         602.104 
       0.355968         898.868         581.584         581.584 
       0.362074         870.772         562.756         562.756 
       0.368217         868.034         545.096         545.096 
       0.374374         855.084         528.319         528.319 
       0.380519         824.356         512.198         512.198 
       0.386598         818.767         496.679         496.679 
       0.392688         799.701         481.476         481.476 
        0.39888         781.228         466.441         466.441 
       0.405048         767.006         451.989         451.989 
       0.411186         764.848         438.231         438.231 
       0.417313          760.16         425.202         425.202 
       0.423458         736.808         412.835         412.835 
       0.429607         716.706           401.1           401.1 
       0.435692         709.876          390.04          390.04 
       0.441815         697.238         379.358         379.358 
       0.447964         686.808          368.99          368.99 
       0.454126         678.622         358.922         358.922 
       0.460267         668.885         349.196         349.196 
       0.466387         658.157         339.809         339.809 
        0.47254         647.385         330.701         330.701 
       0.478662         637.624         321.994         321.994 
       0.484765         630.807         313.672         313.672 
       0.490885         624.358         305.665         305.665 
       0.497035         612.254         297.937         297.937 
       0.503198         611.427         290.489         290.489 
       0.509342         599.628         283.324         283.324 
       0.515458         588.057         276.422         276.422 
       0.521598         583.922         269.702         269.702 
       0.527764         571.902         263.165         263.165 
       0.533884         567.709         256.887         256.887 
           0.54         562.003          250.82          250.82 
       0.546137         552.885         244.936         244.936 
       0.552299         550.683         239.228         239.228 
       0.558452         543.086         233.724         233.724 
       0.564573         538.216         228.433         228.433 
       0.570708         533.011         223.303         223.303 
       0.576825         522.329         218.347         218.347 
       0.582926         520.555         213.552         213.552 
       0.589034         512.868         208.891         208.891 
       0.595184          508.47         204.337         204.337 
       0.601379         500.493         199.889         199.889 
       0.607522         492.238         195.611         195.611 
       0.613639         491.071         191.481         191.481 
       0.619772         488.503         187.464         187.464 
       0.625918         479.404         183.557         183.557 
       0.632068         476.888         179.762         179.762 
       0.638161         471.603          176.11          176.11 
         0.6443         466.516         172.535         172.535 
       0.650464         461.736         169.048         169.048 
       0.656582         457.914         165.683         165.683 
       0.662703         453.541         162.411         162.411 
       0.668861         447.654         159.209         159.209 
       0.675024         444.907         156.091         156.091 
       0.681124         438.008          153.09          153.09 
       0.687237         436.764         150.163         150.163 
       0.693381         430.152           147.3           147.3 
       0.699536         429.066         144.508         144.508 
       0.705665         423.623         141.802         141.802 
       0.711789          422.31         139.168         139.168 
       0.717957         416.335         136.585         136.585 
        0.72409         412.226         134.083         134.083 
       0.730186         413.224         131.659         131.659 
       0.736317         406.169         129.283         129.283 
       0.742472         402.334         126.958         126.958 
       0.748622         399.434         124.693         124.693 
        0.75476         396.469         122.489         122.489 
       0.760888         393.263         120.342         120.342 
       0.767043         390.241         118.238         118.238 
       0.773185         387.739         116.191         116.191 
       0.779291         382.755         114.203         114.203 
       0.785407         380.399          112.26          112.26 
       0.791564         377.752         110.351         110.351 
       0.797719         371.932         108.488         108.488 
       0.803834         374.038          106.68          106.68 
       0.809972         367.868         104.907         104.907 
       0.816124         364.343         103.171         103.171 
       0.822261         361.834          101.48          101.48 
       0.828378         360.192         99.8323         99.8323 
       0.834502         354.766         98.2202         98.2202 
       0.840667         354.873         96.6338         96.6338 
       0.846816         349.006         95.0873         95.0873 
       0.852925         349.511         93.5848         93.5848 
       0.859047          346.06          92.112          92.112 
       0.865192         344.488         90.6665         90.6665 
       0.871341         339.588         89.2515         89.2515 
       0.877463         337.749         87.8735         87.8735 
       0.883569         335.269         86.5284         86.5284 
       0.889708         332.119          85.205          85.205 
       0.895864         329.036         83.9062         83.9062 
       0.902008         327.653         82.6376         82.6376 
       0.908149         324.704         81.3962         81.3962 
       0.914301         323.163         80.1787         80.1787 
       0.920448         320.602         78.9875         78.9875 
       0.926574         318.308          77.825          77.825 
       0.932687         316.874         76.6887         76.6887 
       0.938823          313.26         75.5712         75.5712 
       0.944975         312.438         74.4737         74.4737 
       0.951105         309.393         73.4023         73.4023 
       0.957225         305.723          72.354          72.354 
       0.963368         306.278         71.3229         71.3229 
       0.969511         300.478          70.312          70.312 
       0.975621          299.91         69.3265         69.3265 
       0.981748         298.466         68.3575         68.3575 
       0.987916           296.7         67.4011         67.4011 
        0.99406         293.713         66.4668         66.4668 
        1.00019         291.281         65.5523         65.5523 
        1.00632         290.887          64.656          64.656 
        1.01246         288.276         63.7753         63.7753 
        1.01859         284.903         62.9126         62.9126 
        1.02471         283.141         62.0672         62.0672 
        1.03085         282.126         61.2345         61.2345 
        1.03698         280.441         60.4191         60.4191 
        1.04314         279.403         59.6152         59.6152 
        1.04929         277.431          58.828          58.828 
        1.05541          274.33         58.0583         58.0583 
        1.06154         272.689         57.3006         57.3006 
        1.06769         270.242         56.5554         56.5554 
        1.07382         269.313         55.8261         55.8261 
        1.07993         266.962         55.1114         55.1114 
        1.08607         265.362         54.4064         54.4064 
        1.09222         263.341         53.7131         53.7131 
        1.09836         262.445         53.0328         53.0328 
        1.10449         260.435         52.3652         52.3652 
        1.11063         258.354         51.7086         51.7086 
        1.11677         256.069         51.0635         51.0635 
         1.1229         255.454         50.4306         50.4306 
        1.12903         253.321         49.8081         49.8081 
        1.13518          251.42         49.1957         49.1957 
        1.14131          250.61          48.594          48.594 
        1.14745         247.537         48.0028         48.0028 
        1.15359         245.818         47.4214         47.4214 
        1.15973         245.039         46.8496         46.8496 
        1.16584         243.647         46.2898         46.2898 
        1.17197         241.963         45.7384         45.7384 
        1.17811         239.787         45.1945         45.1945 
        1.18424         238.452         44.6611         44.6611 
        1.19038         237.308         44.1348         44.1348 
        1.19652         234.416         43.6173         43.6173 
        1.20267         234.038         43.1081         43.1081 
        1.20881         232.071         42.6073         42.6073 
        1.21495         231.437         42.1154         42.1154 
        1.22108         229.668         41.6313         41.6313 
         1.2272         227.076         41.1561         41.1561 
        1.23334         226.403         40.6872         40.6872 
        1.23949         225.213         40.2247         40.2247 
        1.24562         223.587         39.7706         39.7706 
        1.25174         222.179         39.3244         39.3244 
        1.25789         220.182         38.8837         38.8837 
        1.26402         219.881         38.4506         38.4506 
        1.27014         218.734         38.0252         38.0252 
        1.27628         216.442          37.605          37.605 
        1.28244         215.258         37.1904         37.1904 
        1.28858         213.921         36.7826         36.7826 
        1.29471         212.832         36.3819         36.3819 
        1.30084         211.609         35.9876         35.9876 
        1.30697           209.5         35.5986         35.5986 
        1.31312         208.353         35.2149         35.2149 
        1.31925          207.12          34.838          34.838 
        1.32537         206.429         34.4671         34.4671 
        1.33151         204.783         34.1003         34.1003 
        1.33765         203.162         33.7391         33.7391 
        1.34378         202.215         33.3839         33.3839 
        1.34992         200.583         33.0336         33.0336 
        1.35606         199.627         32.6877         32.6877 
         1.3622         198.362         32.3473         32.3473 
        1.36833         196.784         32.0127         32.0127 
        1.37445         196.607          31.683          31.683 
        1.38059         194.404         31.3569         31.3569 
        1.38675         193.121         31.0348         31.0348 
        1.39288         192.036         30.7184         30.7184 
        1.39901          190.71         30.4067         30.4067 
        1.40515         190.055         30.0986         30.0986 
         1.4113         188.457          29.795          29.795 
        1.41742         186.857         29.4967         29.4967 
        1.42355         187.021          29.202          29.202 
         1.4297          185.19         28.9105         28.9105 
        1.43585         184.273          28.623          28.623 
        1.44198         182.462         28.3407         28.3407 
        1.44809         181.831         28.0627         28.0627 
        1.45423         180.706         27.7874         27.7874 
        1.46036         179.628         27.5164         27.5164 
        1.46649         178.497         27.2489         27.2489 
        1.47263         177.815         26.9848         26.9848 
        1.47877         176.294         26.7243         26.7243 
        1.48491         174.851         26.4669         26.4669 
        1.49104         173.395         26.2135         26.2135 
        1.49718         172.876         25.9632         25.9632 
        1.50333         171.449         25.7158         25.7158 
        1.50947         170.671         25.4722         25.4722 
         1.5156         169.517         25.2321         25.2321 
        1.52172         168.708         24.9951         24.9951 
        1.52787         167.646         24.7607         24.7607 
          1.534         166.699         24.5296         24.5296 
        1.54013         165.525         24.3018         24.3018 
        1.54627         164.609         24.0764         24.0764 
        1.55241         163.801         23.8539         23.8539 
        1.55855         163.002         23.6345         23.6345 
        1.56467         161.756         23.4185         23.4185 
         1.5708         160.377         23.2046         23.2046 
        1.57695         159.727         22.9931         22.9931 
        1.58308         158.565         22.7847         22.7847 
        1.58922         157.753         22.5788         22.5788 
        1.59535         156.457         22.3755         22.3755 
         1.6015         155.818         22.1744         22.1744 
        1.60764         154.732          21.976          21.976 
        1.61376         153.556         21.7805         21.7805 
        1.61989         152.849         21.5873         21.5873 
        1.62604         151.723          21.396          21.396 
        1.63218         151.003         21.2072         21.2072 
        1.63831          150.15          21.021          21.021 
        1.64444         148.985         20.8371         20.8371 
        1.65059          148.25          20.655          20.655 
        1.65673         147.235         20.4752         20.4752 
        1.66285           146.7         20.2981         20.2981 
        1.66898         145.581         20.1231         20.1231 
        1.67512         144.644         19.9498         19.9498 
        1.68127          143.92         19.7783         19.7783 
         1.6874         142.882         19.6093         19.6093 
        1.69353         142.479         19.4424         19.4424 
        1.69967         141.163         19.2771         19.2771 
        1.70581         140.727         19.1137         19.1137 
        1.71193         139.561         18.9529         18.9529 
        1.71806         138.285         18.7936         18.7936 
        1.72421         137.904         18.6358         18.6358 
        1.73035         136.994         18.4801         18.4801 
        1.73649         135.969         18.3261         18.3261 
        1.74262         135.528         18.1741         18.1741 
        1.74876         134.625         18.0236         18.0236 
        1.75489         133.905         17.8752         17.8752 
        1.76101         132.745         17.7286         17.7286 
        1.76715         131.885         17.5834         17.5834 
        1.77329         131.258         17.4396         17.4396 
        1.77943          130.27         17.2974         17.2974 
        1.78557         129.776         17.1571         17.1571 
        1.79171         129.005         17.0182         17.0182 
        1.79785         127.969         16.8809         16.8809 
        1.80399         127.347         16.7452         16.7452 
        1.81012          126.43         16.6111         16.6111 
        1.81625         125.888         16.4785         16.4785 
        1.82239         125.035         16.3473         16.3473 
        1.82853         124.287         16.2175         16.2175 
        1.83466         123.311         16.0892         16.0892 
        1.84078         122.924         15.9625         15.9625 
        1.84692         122.377          15.837          15.837 
        1.85306         121.341         15.7127         15.7127 
         1.8592         120.822         15.5899         15.5899 
        1.86533         119.744         15.4685         15.4685 
        1.87147         119.323         15.3482         15.3482 
        1.87761         118.333         15.2292         15.2292 
