# k  (h/Mpc)    Pcb(k)  (Mpc/h)^3    Pcb_linear(k) (Mpc/h)^3    Pcb_NL(k) (Mpc/h)^3   ShotnoiseSubtracted = false
     0.00783031            3614         3636.23         3636.23 
       0.013688         4528.43         4598.36         4598.36 
       0.019231         4704.81         4740.12         4740.12 
      0.0249154         4470.62         4464.58         4464.58 
      0.0312784          3942.3         3955.58         3955.58 
      0.0375637         3427.03         3451.56         3451.56 
      0.0433917         3070.26         3070.62         3070.62 
      0.0492413         2772.24         2786.69         2786.69 
      0.0555754         2564.42         2564.13         2564.13 
      0.0619321         2343.87         2384.86         2384.86 
       0.067871         2204.31         2221.45         2221.45 
      0.0738098         2035.48         2044.21         2044.21 
      0.0800417         1843.56         1844.43         1844.43 
      0.0862327         1642.26         1647.26         1647.26 
      0.0921407         1475.08          1477.7          1477.7 
      0.0982031         1342.94         1334.75         1334.75 
       0.104506         1217.95         1222.76         1222.76 
       0.110769         1140.29         1142.51         1142.51 
       0.116806         1093.73         1083.51         1083.51 
       0.122832         1030.35            1031            1031 
       0.129052         978.092         974.254         974.254 
       0.135211           924.8         911.536         911.536 
       0.141259         852.833         845.144         845.144 
       0.147318         780.756         778.751         778.751 
       0.153489         726.376         716.892         716.892 
       0.159709         682.887          664.49          664.49 
       0.165845         630.142         623.697         623.697 
       0.171974         612.801         592.206         592.206 
       0.178125         587.545         566.632         566.632 
       0.184229         554.628          543.59          543.59 
        0.19034         538.101         519.993         519.993 
       0.196428         514.607         494.604         494.604 
       0.202534         479.288         467.499         467.499 
       0.208729          461.86         439.732         439.732 
       0.214876          440.31          413.69          413.69 
       0.220989         409.401         390.663         390.663 
       0.227147         398.757         370.972         370.972 
        0.23329          383.57         354.596         354.596 
       0.239377         372.961         340.743         340.743 
       0.245482         355.768          328.13          328.13 
       0.251667         341.086         315.691         315.691 
       0.257832          335.16         303.029         303.029 
       0.263955         316.496         290.091         290.091 
       0.270079         304.013         277.087         277.087 
        0.27624         289.835         264.421         264.421 
       0.282372         280.571         252.698         252.698 
        0.28843         276.899         242.246         242.246 
       0.294538         264.169         232.875         232.875 
       0.300721         253.637         224.407         224.407 
        0.30691         249.326         216.633         216.633 
       0.313033         239.244         209.327         209.327 
       0.319153          234.89         202.165         202.165 
       0.325316           226.3         194.999         194.999 
        0.33145         219.444         187.931         187.931 
       0.337538         212.223         181.092         181.092 
       0.343633         205.481          174.55          174.55 
       0.349808         199.247         168.336         168.336 
       0.355968         193.988         162.599         162.599 
       0.362074         189.872         157.335         157.335 
       0.368217          185.68         152.398         152.398 
       0.374374         181.511         147.707         147.707 
       0.380519         173.914           143.2           143.2 
       0.386598         170.085         138.861         138.861 
       0.392688         165.378         134.611         134.611 
        0.39888          162.15         130.407         130.407 
       0.405048         158.488         126.367         126.367 
       0.411186         155.479          122.52          122.52 
       0.417313         151.513         118.878         118.878 
       0.423458         147.659          115.42          115.42 
       0.429607          144.87         112.139         112.139 
       0.435692         142.305         109.047         109.047 
       0.441815         138.102         106.061         106.061 
       0.447964         133.994         103.162         103.162 
       0.454126         131.561         100.347         100.347 
       0.460267          130.46         97.6281         97.6281 
       0.466387         127.344         95.0036         95.0036 
        0.47254          125.78         92.4572         92.4572 
       0.478662         121.499         90.0231         90.0231 
       0.484765          119.65         87.6963         87.6963 
       0.490885         116.928         85.4578         85.4578 
       0.497035         115.933         83.2972         83.2972 
       0.503198         113.199         81.2148         81.2148 
       0.509342         110.347         79.2117         79.2117 
       0.515458         109.022         77.2819         77.2819 
       0.521598         106.379         75.4033         75.4033 
       0.527764         105.212         73.5757         73.5757 
       0.533884         104.144         71.8203         71.8203 
           0.54         101.433         70.1243         70.1243 
       0.546137         98.8894         68.4792         68.4792 
       0.552299         97.4962         66.8832         66.8832 
       0.558452         95.6428         65.3445         65.3445 
       0.564573         95.1947         63.8653         63.8653 
       0.570708          92.392         62.4309         62.4309 
       0.576825         91.4577         61.0453         61.0453 
       0.582926         90.3666         59.7048         59.7048 
       0.589034         88.7586         58.4018         58.4018 
       0.595184         87.5955         57.1286         57.1286 
       0.601379         85.3742         55.8849         55.8849 
       0.607522          84.158          54.689          54.689 
       0.613639         83.3278         53.5342         53.5342 
       0.619772         81.8458         52.4111         52.4111 
       0.625918         80.7745         51.3188         51.3188 
       0.632068         79.6996         50.2579         50.2579 
       0.638161         78.2032         49.2369         49.2369 
         0.6443         77.6014         48.2374         48.2374 
       0.650464         75.9246         47.2624         47.2624 
       0.656582         75.5755         46.3217         46.3217 
       0.662703         74.5885         45.4067         45.4067 
       0.668861         72.9002         44.5115         44.5115 
       0.675024         72.5945           43.64           43.64 
       0.681124         71.5874          42.801          42.801 
       0.687237         70.1478         41.9827         41.9827 
       0.693381         69.5648         41.1822         41.1822 
       0.699536         68.8588         40.4016         40.4016 
       0.705665         67.7036         39.6449         39.6449 
       0.711789         66.7071         38.9087         38.9087 
       0.717957         65.7844         38.1864         38.1864 
        0.72409         65.1945         37.4868         37.4868 
       0.730186         64.7726         36.8092         36.8092 
       0.736317         63.5928          36.145          36.145 
       0.742472         62.8966         35.4949         35.4949 
       0.748622         61.9182         34.8616         34.8616 
        0.75476           61.01         34.2453         34.2453 
       0.760888          60.893         33.6451         33.6451 
       0.767043         59.7305         33.0571         33.0571 
       0.773185         59.1438         32.4845         32.4845 
       0.779291         58.4176          31.929          31.929 
       0.785407         57.5603         31.3858         31.3858 
       0.791564          57.548          30.852          30.852 
       0.797719         56.6183          30.331          30.331 
       0.803834         56.1089         29.8255         29.8255 
       0.809972         55.4379         29.3299         29.3299 
       0.816124         54.8605         28.8446         28.8446 
       0.822261         54.1595         28.3718         28.3718 
       0.828378         53.8872         27.9111         27.9111 
       0.834502         53.1876         27.4604         27.4604 
       0.840667         52.7769         27.0169         27.0169 
       0.846816         51.9332         26.5845         26.5845 
       0.852925         51.6757         26.1644         26.1644 
       0.859047         51.3391         25.7527         25.7527 
       0.865192         50.4848         25.3485         25.3485 
       0.871341         49.9609         24.9529         24.9529 
       0.877463         49.5765         24.5677         24.5677 
       0.883569         49.3595         24.1916         24.1916 
       0.889708         48.7825         23.8216         23.8216 
       0.895864         48.2652         23.4585         23.4585 
       0.902008         47.7295         23.1038         23.1038 
       0.908149         47.3605         22.7567         22.7567 
       0.914301         47.0094         22.4163         22.4163 
       0.920448         46.5997         22.0833         22.0833 
       0.926574         45.8368         21.7583         21.7583 
       0.932687         45.5577         21.4406         21.4406 
       0.938823         45.0611         21.1282         21.1282 
       0.944975         44.6514         20.8214         20.8214 
       0.951105         44.2883         20.5218         20.5218 
       0.957225         44.0718         20.2287         20.2287 
       0.963368         43.5335         19.9404         19.9404 
       0.969511         43.1905         19.6578         19.6578 
       0.975621          42.843         19.3823         19.3823 
       0.981748         42.3667         19.1114         19.1114 
       0.987916         42.0913          18.844          18.844 
        0.99406         41.6608         18.5828         18.5828 
        1.00019         41.3779         18.3271         18.3271 
        1.00632         41.0352         18.0765         18.0765 
        1.01246         40.7174         17.8303         17.8303 
        1.01859         40.3378         17.5891         17.5891 
        1.02471          39.927         17.3527         17.3527 
        1.03085         39.7882         17.1199         17.1199 
        1.03698         39.4624          16.892          16.892 
        1.04314         39.1412         16.6672         16.6672 
        1.04929         38.6876         16.4471         16.4471 
        1.05541         38.5427         16.2319         16.2319 
        1.06154         38.3243         16.0201         16.0201 
        1.06769         37.7411         15.8118         15.8118 
        1.07382         37.5951         15.6079         15.6079 
        1.07993         37.2573          15.408          15.408 
        1.08607         37.0073         15.2109         15.2109 
        1.09222           36.76         15.0171         15.0171 
        1.09836         36.4163         14.8269         14.8269 
        1.10449          36.256         14.6403         14.6403 
        1.11063         35.9108         14.4567         14.4567 
        1.11677         35.8535         14.2763         14.2763 
         1.1229         35.4652         14.0994         14.0994 
        1.12903         35.2321         13.9253         13.9253 
        1.13518         35.0956         13.7541         13.7541 
        1.14131         34.7442         13.5859         13.5859 
        1.14745         34.3613         13.4206         13.4206 
        1.15359         34.0738         13.2581         13.2581 
        1.15973         33.9118         13.0982         13.0982 
        1.16584         33.6822         12.9417         12.9417 
        1.17197         33.2882         12.7876         12.7876 
        1.17811         33.1626         12.6355         12.6355 
        1.18424         32.7945         12.4863         12.4863 
        1.19038         32.6906         12.3392         12.3392 
        1.19652          32.443         12.1945         12.1945 
        1.20267         32.2774         12.0522         12.0522 
        1.20881         32.0373         11.9122         11.9122 
        1.21495         31.8456         11.7746         11.7746 
        1.22108         31.7548         11.6393         11.6393 
         1.2272         31.5076         11.5064         11.5064 
        1.23334         31.2829         11.3753         11.3753 
        1.23949         31.0368          11.246          11.246 
        1.24562         30.7423         11.1191         11.1191 
        1.25174          30.612         10.9943         10.9943 
        1.25789         30.5133         10.8711         10.8711 
        1.26402         30.3091           10.75           10.75 
        1.27014          30.093         10.6311         10.6311 
        1.27628         29.8071         10.5136         10.5136 
        1.28244         29.7768         10.3977         10.3977 
        1.28858         29.4778         10.2837         10.2837 
        1.29471         29.2839         10.1717         10.1717 
        1.30084         29.0725         10.0614         10.0614 
        1.30697         28.9532         9.95267         9.95267 
        1.31312         28.7045         9.84537         9.84537 
        1.31925         28.5236         9.74002         9.74002 
        1.32537         28.3425         9.63632         9.63632 
        1.33151         28.1632         9.53377         9.53377 
        1.33765         28.1007         9.43278         9.43278 
        1.34378         27.9236         9.33348         9.33348 
        1.34992         27.7298         9.23555         9.23555 
        1.35606         27.5466         9.13882         9.13882 
         1.3622         27.3301         9.04366         9.04366 
        1.36833         27.2394          8.9501          8.9501 
        1.37445         27.0676         8.85793         8.85793 
        1.38059         26.9005         8.76678         8.76678 
        1.38675         26.6827          8.6767          8.6767 
        1.39288         26.5595         8.58826         8.58826 
        1.39901         26.3969         8.50111         8.50111 
        1.40515         26.2782         8.41498         8.41498 
         1.4113         26.1795         8.33008         8.33008 
        1.41742         26.0355         8.24669         8.24669 
        1.42355         25.8043         8.16429         8.16429 
         1.4297          25.645         8.08278         8.08278 
        1.43585         25.4978         8.00243         8.00243 
        1.44198         25.4107         7.92349         7.92349 
        1.44809         25.2566         7.84577         7.84577 
        1.45423         25.1198         7.76881         7.76881 
        1.46036         24.9771         7.69303         7.69303 
        1.46649         24.8291         7.61825         7.61825 
        1.47263         24.6836         7.54441         7.54441 
        1.47877         24.5934         7.47159         7.47159 
        1.48491         24.4538         7.39962         7.39962 
        1.49104         24.2795         7.32877         7.32877 
        1.49718         24.1939         7.25879         7.25879 
        1.50333         24.0967         7.18963         7.18963 
        1.50947         23.9409         7.12151         7.12151 
         1.5156         23.8004         7.05439         7.05439 
        1.52172           23.64         6.98813         6.98813 
        1.52787         23.5281          6.9226          6.9226 
          1.534         23.4497           6.858           6.858 
        1.54013         23.3542         6.79429         6.79429 
        1.54627         23.1484         6.73128         6.73128 
        1.55241         23.0329         6.66907         6.66907 
        1.55855           22.94         6.60773         6.60773 
        1.56467         22.8781         6.54734         6.54734 
         1.5708         22.7349         6.48754         6.48754 
        1.57695         22.6131         6.42841         6.42841 
        1.58308          22.412         6.37015         6.37015 
        1.58922         22.3216         6.31257         6.31257 
        1.59535         22.2252         6.25574         6.25574 
         1.6015         22.0928         6.19953         6.19953 
        1.60764         22.0109         6.14405         6.14405 
        1.61376         21.9196          6.0894          6.0894 
        1.61989         21.7459         6.03538         6.03538 
        1.62604         21.6745         5.98189         5.98189 
        1.63218         21.5745          5.9291          5.9291 
        1.63831         21.4374         5.87707         5.87707 
        1.64444         21.3413         5.82564         5.82564 
        1.65059         21.2295         5.77472         5.77472 
        1.65673         21.1657         5.72446         5.72446 
        1.66285         21.0104         5.67495         5.67495 
        1.66898         20.9512         5.62601         5.62601 
        1.67512         20.8885         5.57755         5.57755 
        1.68127         20.7506         5.52963         5.52963 
         1.6874         20.6724         5.48238         5.48238 
        1.69353          20.499         5.43572         5.43572 
        1.69967         20.4213         5.38949         5.38949 
        1.70581         20.3381         5.34382         5.34382 
        1.71193          20.183         5.29885         5.29885 
        1.71806          20.151         5.25432         5.25432 
        1.72421         20.0599         5.21021         5.21021 
        1.73035          19.933         5.16666         5.16666 
        1.73649         19.8537         5.12362         5.12362 
        1.74262         19.7336         5.08111         5.08111 
        1.74876         19.6507         5.03905         5.03905 
        1.75489         19.5873         4.99756         4.99756 
        1.76101         19.4662         4.95656         4.95656 
        1.76715         19.3954         4.91596         4.91596 
        1.77329         19.2881         4.87578         4.87578 
        1.77943         19.1989         4.83602         4.83602 
        1.78557         19.1339         4.79677         4.79677 
        1.79171         19.0053         4.75796         4.75796 
        1.79785         18.9412         4.71957         4.71957 
        1.80399         18.8387         4.68161         4.68161 
        1.81012         18.7882         4.64413         4.64413 
        1.81625          18.658         4.60707         4.60707 
        1.82239         18.5795         4.57037         4.57037 
        1.82853          18.505         4.53409         4.53409 
        1.83466          18.393         4.49823         4.49823 
        1.84078         18.3528         4.46281         4.46281 
        1.84692         18.3031         4.42771         4.42771 
        1.85306         18.1895         4.39295         4.39295 
         1.8592         18.1277         4.35862         4.35862 
        1.86533         17.9558         4.32468         4.32468 
        1.87147         17.9026         4.29106         4.29106 
