# k  (h/Mpc)    Pcb(k)  (Mpc/h)^3    Pcb_linear(k) (Mpc/h)^3    Pcb_NL(k) (Mpc/h)^3   ShotnoiseSubtracted = false
     0.00783031         424.243         427.436         427.436 
       0.013688          536.07         540.823         540.823 
       0.019231           555.7         557.613         557.613 
      0.0249154          525.08         525.258         525.258 
      0.0312784         465.181         465.408         465.408 
      0.0375637         405.652         406.122         406.122 
      0.0433917         361.926          361.31          361.31 
      0.0492413          327.81         327.907         327.907 
      0.0555754         302.283         301.723         301.723 
      0.0619321         279.277         280.631         280.631 
       0.067871         261.075         261.405         261.405 
      0.0738098         240.435          240.55          240.55 
      0.0800417         217.323         217.042         217.042 
      0.0862327         193.876         193.841         193.841 
      0.0921407         173.857         173.888         173.888 
      0.0982031         157.468         157.068         157.068 
       0.104506          143.62         143.889         143.889 
       0.110769         134.237         134.446         134.446 
       0.116806         127.776         127.504         127.504 
       0.122832         121.093         121.324         121.324 
       0.129052         114.699         114.647         114.647 
       0.135211         107.555         107.266         107.266 
       0.141259         99.4847         99.4538         99.4538 
       0.147318          91.411         91.6409         91.6409 
       0.153489         84.4207         84.3616         84.3616 
       0.159709         78.4364         78.1952         78.1952 
       0.165845         73.1487         73.3949         73.3949 
       0.171974         70.0091         69.6891         69.6891 
       0.178125         66.9257         66.6797         66.6797 
       0.184229         63.9496         63.9682         63.9682 
        0.19034         61.4851         61.1914         61.1914 
       0.196428          58.424         58.2037         58.2037 
       0.202534         54.8797          55.014          55.014 
       0.208729          51.956         51.7466         51.7466 
       0.214876         49.1282         48.6819         48.6819 
       0.220989         46.0051         45.9722         45.9722 
       0.227147         44.1119         43.6551         43.6551 
        0.23329         42.2091          41.728          41.728 
       0.239377         40.6107         40.0978         40.0978 
       0.245482         39.0388         38.6136         38.6136 
       0.251667         37.4159         37.1497         37.1497 
       0.257832         36.1508         35.6598         35.6598 
       0.263955         34.4632         34.1373         34.1373 
       0.270079         32.9354         32.6069         32.6069 
        0.27624         31.3298         31.1165         31.1165 
       0.282372         30.0017         29.7369         29.7369 
        0.28843         29.0014         28.5069         28.5069 
       0.294538         27.8428         27.4042         27.4042 
       0.300721         26.7072         26.4077         26.4077 
        0.30691         25.9536         25.4929         25.4929 
       0.313033         25.0308         24.6331         24.6331 
       0.319153         24.3903         23.7903         23.7903 
       0.325316         23.2685         22.9471         22.9471 
        0.33145         22.4421         22.1153         22.1153 
       0.337538          21.691         21.3105         21.3105 
       0.343633         20.9784         20.5406         20.5406 
       0.349808         20.2081         19.8094         19.8094 
       0.355968          19.502         19.1343         19.1343 
       0.362074         18.9753         18.5149         18.5149 
       0.368217         18.3746         17.9339         17.9339 
       0.374374         17.9324         17.3819         17.3819 
       0.380519         17.2616         16.8515         16.8515 
       0.386598         16.7142         16.3409         16.3409 
       0.392688         16.1862         15.8407         15.8407 
        0.39888          15.759         15.3461         15.3461 
       0.405048          15.304         14.8706         14.8706 
       0.411186         14.8283         14.4179         14.4179 
       0.417313         14.4047         13.9893         13.9893 
       0.423458         13.9369         13.5824         13.5824 
       0.429607         13.6363         13.1963         13.1963 
       0.435692         13.3035         12.8325         12.8325 
       0.441815         12.8761          12.481          12.481 
       0.447964         12.4719         12.1399         12.1399 
       0.454126         12.2166         11.8087         11.8087 
       0.460267         11.9709         11.4887         11.4887 
       0.466387         11.6168         11.1798         11.1798 
        0.47254         11.3529         10.8802         10.8802 
       0.478662         11.0331         10.5937         10.5937 
       0.484765         10.7642         10.3199         10.3199 
       0.490885         10.4617         10.0565         10.0565 
       0.497035         10.1803         9.80225         9.80225 
       0.503198         9.97209          9.5572          9.5572 
       0.509342         9.68862         9.32147         9.32147 
       0.515458         9.50852         9.09438         9.09438 
       0.521598         9.28579         8.87331         8.87331 
       0.527764         9.11507         8.65824         8.65824 
       0.533884         8.83092         8.45167         8.45167 
           0.54         8.65224         8.25208         8.25208 
       0.546137         8.41315         8.05849         8.05849 
       0.552299         8.24921         7.87069         7.87069 
       0.558452         8.06457         7.68962         7.68962 
       0.564573         7.90719         7.51554         7.51554 
       0.570708         7.73088         7.34674         7.34674 
       0.576825          7.5699          7.1837          7.1837 
       0.582926         7.39356         7.02595         7.02595 
       0.589034         7.26292         6.87261         6.87261 
       0.595184         7.13537         6.72278         6.72278 
       0.601379         6.94844         6.57642         6.57642 
       0.607522         6.80642         6.43569         6.43569 
       0.613639         6.64435          6.2998          6.2998 
       0.619772          6.5411         6.16763         6.16763 
       0.625918         6.40163          6.0391          6.0391 
       0.632068         6.29306         5.91425         5.91425 
       0.638161         6.15887          5.7941          5.7941 
         0.6443         6.03431         5.67648         5.67648 
       0.650464         5.90634         5.56175         5.56175 
       0.656582         5.82914         5.45105         5.45105 
       0.662703         5.71862         5.34337         5.34337 
       0.668861         5.57041         5.23803         5.23803 
       0.675024         5.47795         5.13547         5.13547 
       0.681124         5.43929         5.03674         5.03674 
       0.687237         5.30763         4.94044         4.94044 
       0.693381          5.1746         4.84624         4.84624 
       0.699536          5.1211         4.75438         4.75438 
       0.705665          5.0241         4.66534         4.66534 
       0.711789         4.91065          4.5787          4.5787 
       0.717957         4.82068         4.49371         4.49371 
        0.72409          4.7492         4.41138         4.41138 
       0.730186         4.69339         4.33164         4.33164 
       0.736317         4.58839         4.25347         4.25347 
       0.742472         4.52504         4.17697         4.17697 
       0.748622         4.45113         4.10245         4.10245 
        0.75476         4.34821         4.02993         4.02993 
       0.760888         4.29929         3.95929         3.95929 
       0.767043         4.18709         3.89009         3.89009 
       0.773185         4.13482         3.82272         3.82272 
       0.779291         4.10117         3.75734         3.75734 
       0.785407         4.01599         3.69342         3.69342 
       0.791564         3.95274          3.6306          3.6306 
       0.797719         3.88407         3.56929         3.56929 
       0.803834         3.82594         3.50981         3.50981 
       0.809972         3.76126         3.45149         3.45149 
       0.816124         3.70346         3.39438         3.39438 
       0.822261         3.65193         3.33874         3.33874 
       0.828378         3.58792         3.28453         3.28453 
       0.834502         3.53609         3.23149         3.23149 
       0.840667         3.49302         3.17929         3.17929 
       0.846816         3.43072         3.12841         3.12841 
       0.852925         3.37456         3.07898         3.07898 
       0.859047          3.3263         3.03053         3.03053 
       0.865192         3.27633         2.98297         2.98297 
       0.871341         3.23099         2.93641         2.93641 
       0.877463          3.1766         2.89108         2.89108 
       0.883569         3.13341         2.84682         2.84682 
       0.889708         3.09413         2.80328         2.80328 
       0.895864         3.04937         2.76055         2.76055 
       0.902008         2.99464         2.71881         2.71881 
       0.908149         2.95928         2.67797         2.67797 
       0.914301         2.92382         2.63791         2.63791 
       0.920448         2.88341         2.59872         2.59872 
       0.926574         2.85463         2.56048         2.56048 
       0.932687         2.80717         2.52309         2.52309 
       0.938823         2.75579         2.48633         2.48633 
       0.944975         2.73028         2.45022         2.45022 
       0.951105         2.67746         2.41497         2.41497 
       0.957225         2.64935         2.38048         2.38048 
       0.963368         2.62128         2.34655         2.34655 
       0.969511         2.58866          2.3133          2.3133 
       0.975621          2.5455         2.28087         2.28087 
       0.981748         2.49921         2.24899         2.24899 
       0.987916         2.47332         2.21753         2.21753 
        0.99406         2.45139         2.18679         2.18679 
        1.00019         2.41767          2.1567          2.1567 
        1.00632         2.39406         2.12721         2.12721 
        1.01246          2.3573         2.09824         2.09824 
        1.01859         2.32759         2.06985         2.06985 
        1.02471         2.28856         2.04204         2.04204 
        1.03085         2.26421         2.01464         2.01464 
        1.03698         2.23914         1.98782         1.98782 
        1.04314         2.21258         1.96137         1.96137 
        1.04929         2.18698         1.93547         1.93547 
        1.05541         2.15114         1.91014         1.91014 
        1.06154         2.13276         1.88522         1.88522 
        1.06769         2.11177          1.8607          1.8607 
        1.07382         2.07938          1.8367          1.8367 
        1.07993         2.05286         1.81319         1.81319 
        1.08607         2.03362         1.78999         1.78999 
        1.09222         2.00226         1.76718         1.76718 
        1.09836         1.98969          1.7448          1.7448 
        1.10449         1.95246         1.72284         1.72284 
        1.11063         1.93255         1.70123         1.70123 
        1.11677          1.9139         1.68001         1.68001 
         1.1229         1.88456         1.65919         1.65919 
        1.12903         1.87137         1.63871         1.63871 
        1.13518         1.84325         1.61856         1.61856 
        1.14131         1.82482         1.59876         1.59876 
        1.14745         1.80544         1.57931         1.57931 
        1.15359         1.78389         1.56019         1.56019 
        1.15973         1.76441         1.54137         1.54137 
        1.16584         1.74282         1.52296         1.52296 
        1.17197         1.72121         1.50482         1.50482 
        1.17811         1.70207         1.48692         1.48692 
        1.18424         1.68336         1.46937         1.46937 
        1.19038         1.66327         1.45205         1.45205 
        1.19652         1.65085         1.43503         1.43503 
        1.20267          1.6354         1.41828         1.41828 
        1.20881         1.61045          1.4018          1.4018 
        1.21495         1.59644         1.38561         1.38561 
        1.22108         1.58004         1.36969         1.36969 
         1.2272         1.55649         1.35405         1.35405 
        1.23334          1.5455         1.33863         1.33863 
        1.23949         1.53012         1.32341         1.32341 
        1.24562         1.51315         1.30847         1.30847 
        1.25174          1.4985         1.29379         1.29379 
        1.25789         1.47786         1.27929         1.27929 
        1.26402         1.46301         1.26504         1.26504 
        1.27014          1.4451         1.25105         1.25105 
        1.27628         1.43433         1.23722         1.23722 
        1.28244         1.42037         1.22358         1.22358 
        1.28858         1.40308         1.21017         1.21017 
        1.29471          1.3867         1.19698         1.19698 
        1.30084         1.37535         1.18401         1.18401 
        1.30697          1.3651         1.17121         1.17121 
        1.31312          1.3496         1.15859         1.15859 
        1.31925          1.3361         1.14619         1.14619 
        1.32537         1.32336         1.13398         1.13398 
        1.33151         1.30829         1.12192         1.12192 
        1.33765         1.29614         1.11003         1.11003 
        1.34378         1.28171         1.09835         1.09835 
        1.34992         1.27335         1.08682         1.08682 
        1.35606         1.25838         1.07544         1.07544 
         1.3622          1.2473         1.06424         1.06424 
        1.36833         1.23459         1.05323         1.05323 
        1.37445         1.22236         1.04238         1.04238 
        1.38059          1.2107         1.03166         1.03166 
        1.38675         1.19947         1.02106         1.02106 
        1.39288          1.1884         1.01065         1.01065 
        1.39901         1.17672          1.0004          1.0004 
        1.40515         1.16414        0.990259        0.990259 
         1.4113          1.1585        0.980269        0.980269 
        1.41742         1.14341        0.970456        0.970456 
        1.42355         1.13014        0.960759        0.960759 
         1.4297         1.12461        0.951168        0.951168 
        1.43585         1.11139        0.941712        0.941712 
        1.44198          1.1024        0.932422        0.932422 
        1.44809         1.09151        0.923276        0.923276 
        1.45423         1.08276         0.91422         0.91422 
        1.46036         1.07285        0.905302        0.905302 
        1.46649         1.06038        0.896502        0.896502 
        1.47263          1.0523        0.887813        0.887813 
        1.47877         1.04763        0.879243        0.879243 
        1.48491         1.03105        0.870774        0.870774 
        1.49104         1.02702        0.862436        0.862436 
        1.49718         1.01401        0.854202        0.854202 
        1.50333         1.00728        0.846062        0.846062 
        1.50947        0.999141        0.838047        0.838047 
         1.5156        0.989499        0.830148        0.830148 
        1.52172        0.982106        0.822351        0.822351 
        1.52787        0.971445         0.81464         0.81464 
          1.534        0.965628        0.807037        0.807037 
        1.54013        0.956151         0.79954         0.79954 
        1.54627        0.947433        0.792125        0.792125 
        1.55241        0.938175        0.784804        0.784804 
        1.55855        0.931173        0.777586        0.777586 
        1.56467        0.923595         0.77048         0.77048 
         1.5708         0.91495        0.763443        0.763443 
        1.57695        0.906093        0.756483        0.756483 
        1.58308        0.897215        0.749628        0.749628 
        1.58922        0.893158        0.742853        0.742853 
        1.59535        0.882783        0.736165        0.736165 
         1.6015         0.87534         0.72955         0.72955 
        1.60764        0.869237        0.723021        0.723021 
        1.61376        0.861242         0.71659         0.71659 
        1.61989        0.855069        0.710233        0.710233 
        1.62604        0.845886        0.703939        0.703939 
        1.63218        0.841932        0.697726        0.697726 
        1.63831        0.833151        0.691603        0.691603 
        1.64444        0.826876        0.685551        0.685551 
        1.65059        0.820418        0.679559        0.679559 
        1.65673        0.812831        0.673645        0.673645 
        1.66285        0.806905        0.667818        0.667818 
        1.66898         0.80113        0.662059        0.662059 
        1.67512        0.792057        0.656357        0.656357 
        1.68127        0.785388        0.650717        0.650717 
         1.6874        0.781938        0.645157        0.645157 
        1.69353        0.774322        0.639665        0.639665 
        1.69967        0.768866        0.634225        0.634225 
        1.70581        0.763793        0.628851        0.628851 
        1.71193        0.756885         0.62356         0.62356 
        1.71806        0.751132        0.618319        0.618319 
        1.72421        0.744935        0.613128        0.613128 
        1.73035        0.736576        0.608003        0.608003 
        1.73649        0.735512        0.602938        0.602938 
        1.74262        0.726677        0.597936        0.597936 
        1.74876        0.722557        0.592987        0.592987 
        1.75489         0.71712        0.588105        0.588105 
        1.76101        0.709889        0.583279        0.583279 
        1.76715        0.705361        0.578502        0.578502 
        1.77329        0.700371        0.573773        0.573773 
        1.77943        0.694741        0.569095        0.569095 
        1.78557        0.691455        0.564476        0.564476 
        1.79171        0.685756        0.559908        0.559908 
        1.79785         0.67956        0.555391        0.555391 
        1.80399        0.673117        0.550924        0.550924 
        1.81012        0.669216        0.546513        0.546513 
        1.81625        0.664752        0.542152        0.542152 
        1.82239        0.659917        0.537833        0.537833 
        1.82853        0.654561        0.533563        0.533563 
        1.83466         0.64924        0.529345        0.529345 
        1.84078        0.643753        0.525176        0.525176 
        1.84692        0.640161        0.521046        0.521046 
        1.85306        0.636216        0.516955        0.516955 
         1.8592        0.630393        0.512915        0.512915 
        1.86533        0.627007        0.508921        0.508921 
        1.87147        0.620056        0.504965        0.504965 
