# k  (h/Mpc)    Pcb(k)  (Mpc/h)^3    Pcb_linear(k) (Mpc/h)^3    Pcb_NL(k) (Mpc/h)^3   ShotnoiseSubtracted = false
     0.00783031         949.668          956.45          956.45 
       0.013688         1197.37         1209.93         1209.93 
       0.019231         1241.98         1247.41         1247.41 
      0.0249154         1175.33         1174.99         1174.99 
      0.0312784         1040.09         1041.08         1041.08 
      0.0375637         906.264          908.45          908.45 
      0.0433917         809.524         808.204         808.204 
      0.0492413         732.612         733.482         733.482 
      0.0555754         676.258         674.909         674.909 
      0.0619321         623.009         627.727         627.727 
       0.067871         583.435         584.719         584.719 
      0.0738098         537.619         538.069         538.069 
      0.0800417         486.261         485.486         485.486 
      0.0862327         433.552         433.588         433.588 
      0.0921407         388.833         388.958         388.958 
      0.0982031         352.631         351.333         351.333 
       0.104506         321.055         321.854         321.854 
       0.110769         300.206         300.731         300.731 
       0.116806         286.373         285.202         285.202 
       0.122832         270.919         271.379         271.379 
       0.129052         256.864         256.444         256.444 
       0.135211         241.276         239.935         239.935 
       0.141259          222.96          222.46          222.46 
       0.147318         204.594         204.984         204.984 
       0.153489          189.28         188.701         188.701 
       0.159709         176.269         174.908         174.908 
       0.165845         163.885         164.171         164.171 
       0.171974         157.552         155.882         155.882 
       0.178125         150.642          149.15          149.15 
       0.184229         143.587         143.085         143.085 
        0.19034         138.382         136.874         136.874 
       0.196428         131.605         130.191         130.191 
       0.202534         123.274         123.056         123.056 
       0.208729         117.199         115.747         115.747 
       0.214876         111.108         108.892         108.892 
       0.220989         103.697         102.831         102.831 
       0.227147         99.9203         97.6481         97.6481 
        0.23329         95.7302         93.3376         93.3376 
       0.239377         92.2793         89.6911         89.6911 
       0.245482         88.5388         86.3713         86.3713 
       0.251667         84.7944         83.0969         83.0969 
       0.257832         82.3079         79.7641         79.7641 
       0.263955          78.239         76.3586         76.3586 
       0.270079          74.849         72.9355         72.9355 
        0.27624         71.1783         69.6016         69.6016 
       0.282372         68.3031         66.5157         66.5157 
        0.28843         66.4006         63.7645         63.7645 
       0.294538         63.6791          61.298          61.298 
       0.300721          60.996         59.0689         59.0689 
        0.30691          59.492         57.0229         57.0229 
       0.313033         57.3069         55.0995         55.0995 
       0.319153         56.0338         53.2145         53.2145 
       0.325316         53.3791         51.3283         51.3283 
        0.33145         51.5058         49.4677         49.4677 
       0.337538         49.8464         47.6675         47.6675 
       0.343633         48.2712         45.9454         45.9454 
       0.349808         46.5401         44.3099         44.3099 
       0.355968         44.9552         42.7997         42.7997 
       0.362074         43.8963         41.4142         41.4142 
       0.368217         42.5419         40.1146         40.1146 
       0.374374         41.6043         38.8799         38.8799 
       0.380519         39.9368         37.6936         37.6936 
       0.386598         38.7049         36.5515         36.5515 
       0.392688         37.5042         35.4327         35.4327 
        0.39888         36.6338         34.3262         34.3262 
       0.405048         35.6418         33.2627         33.2627 
       0.411186         34.5704         32.2502         32.2502 
       0.417313         33.5822         31.2914         31.2914 
       0.423458         32.5296         30.3813         30.3813 
       0.429607         31.9161         29.5176         29.5176 
       0.435692         31.2396         28.7038         28.7038 
       0.441815         30.1287         27.9177         27.9177 
       0.447964         29.1828         27.1547         27.1547 
       0.454126         28.6537         26.4137         26.4137 
       0.460267         28.2144          25.698          25.698 
       0.466387         27.3656         25.0071         25.0071 
        0.47254           26.84         24.3369         24.3369 
       0.478662         26.0396         23.6962         23.6962 
       0.484765         25.4363         23.0837         23.0837 
       0.490885         24.7065         22.4945         22.4945 
       0.497035         24.1455         21.9257         21.9257 
       0.503198         23.6432         21.3776         21.3776 
       0.509342         22.9775         20.8504         20.8504 
       0.515458         22.6199         20.3424         20.3424 
       0.521598         22.0925         19.8479         19.8479 
       0.527764         21.7451         19.3668         19.3668 
       0.533884         21.0985         18.9048         18.9048 
           0.54         20.6888         18.4583         18.4583 
       0.546137         20.0767         18.0253         18.0253 
       0.552299         19.7205         17.6052         17.6052 
       0.558452         19.2888         17.2002         17.2002 
       0.564573         18.9913         16.8108         16.8108 
       0.570708         18.5444         16.4333         16.4333 
       0.576825         18.2121         16.0685         16.0685 
       0.582926          17.827         15.7157         15.7157 
       0.589034         17.4899         15.3727         15.3727 
       0.595184         17.2345         15.0376         15.0376 
       0.601379         16.7633         14.7102         14.7102 
       0.607522         16.4645         14.3954         14.3954 
       0.613639         16.1076         14.0914         14.0914 
       0.619772         15.8556         13.7958         13.7958 
       0.625918          15.513         13.5083         13.5083 
       0.632068         15.3238          13.229          13.229 
       0.638161         14.9944         12.9603         12.9603 
         0.6443         14.7149         12.6972         12.6972 
       0.650464         14.3613         12.4406         12.4406 
       0.656582         14.2362          12.193          12.193 
       0.662703         14.0163         11.9521         11.9521 
       0.668861         13.6346         11.7165         11.7165 
       0.675024         13.4222         11.4871         11.4871 
       0.681124         13.3608         11.2662         11.2662 
       0.687237         13.0572         11.0508         11.0508 
       0.693381         12.7276         10.8401         10.8401 
       0.699536         12.6397         10.6346         10.6346 
       0.705665         12.3957         10.4355         10.4355 
       0.711789         12.1369         10.2417         10.2417 
       0.717957         11.8875         10.0516         10.0516 
        0.72409          11.768          9.8674          9.8674 
       0.730186         11.6639         9.68905         9.68905 
       0.736317         11.3996          9.5142          9.5142 
       0.742472         11.2517         9.34308         9.34308 
       0.748622         11.0684         9.17639         9.17639 
        0.75476         10.7868         9.01417         9.01417 
       0.760888         10.7041         8.85618         8.85618 
       0.767043         10.4726         8.70139         8.70139 
       0.773185         10.3384         8.55068         8.55068 
       0.779291         10.2747         8.40445         8.40445 
       0.785407         10.0624         8.26146         8.26146 
       0.791564         9.93249         8.12095         8.12095 
       0.797719         9.73799         7.98382         7.98382 
       0.803834         9.64756         7.85077         7.85077 
       0.809972         9.46573         7.72031         7.72031 
       0.816124         9.34146         7.59258         7.59258 
       0.822261         9.21958         7.46811         7.46811 
       0.828378          9.0794         7.34685         7.34685 
       0.834502         8.96613         7.22822         7.22822 
       0.840667         8.86967         7.11147         7.11147 
       0.846816         8.68801         6.99766         6.99766 
       0.852925         8.59293         6.88709         6.88709 
       0.859047         8.47662          6.7787          6.7787 
       0.865192         8.35049         6.67233         6.67233 
       0.871341         8.22814         6.56819         6.56819 
       0.877463         8.12143         6.46678         6.46678 
       0.883569         8.03508         6.36779         6.36779 
       0.889708         7.91159          6.2704          6.2704 
       0.895864          7.8073         6.17482         6.17482 
       0.902008         7.68853         6.08146         6.08146 
       0.908149         7.58791         5.99011         5.99011 
       0.914301         7.51811         5.90051         5.90051 
       0.920448         7.41234         5.81285         5.81285 
       0.926574         7.35845         5.72729         5.72729 
       0.932687         7.22971         5.64367         5.64367 
       0.938823         7.11465         5.56143         5.56143 
       0.944975         7.05903         5.48067         5.48067 
       0.951105         6.93733         5.40182         5.40182 
       0.957225         6.88818         5.32467         5.32467 
       0.963368         6.80291         5.24879         5.24879 
       0.969511         6.71877          5.1744          5.1744 
       0.975621         6.62705         5.10187         5.10187 
       0.981748          6.5138         5.03056         5.03056 
       0.987916         6.45621         4.96018         4.96018 
        0.99406         6.40817         4.89142         4.89142 
        1.00019         6.33332         4.82412         4.82412 
        1.00632         6.26743         4.75816         4.75816 
        1.01246         6.17717         4.69335         4.69335 
        1.01859         6.10149         4.62987         4.62987 
        1.02471         6.00848         4.56765         4.56765 
        1.03085         5.97654         4.50637         4.50637 
        1.03698         5.90449         4.44636         4.44636 
        1.04314         5.83911          4.3872          4.3872 
        1.04929         5.75119         4.32927         4.32927 
        1.05541         5.69431         4.27262         4.27262 
        1.06154         5.64315         4.21686         4.21686 
        1.06769         5.60845         4.16203         4.16203 
        1.07382         5.50736         4.10835         4.10835 
        1.07993         5.44176         4.05576         4.05576 
        1.08607         5.40834         4.00387         4.00387 
        1.09222         5.32787         3.95285         3.95285 
        1.09836         5.31618         3.90279         3.90279 
        1.10449         5.19852         3.85366         3.85366 
        1.11063         5.17346         3.80534         3.80534 
        1.11677         5.12158         3.75786         3.75786 
         1.1229         5.06512         3.71129         3.71129 
        1.12903         5.02588         3.66548         3.66548 
        1.13518         4.94683         3.62041         3.62041 
        1.14131         4.89744         3.57613         3.57613 
        1.14745         4.83773         3.53262         3.53262 
        1.15359         4.79672         3.48984         3.48984 
        1.15973         4.74401         3.44775         3.44775 
        1.16584         4.70373         3.40656         3.40656 
        1.17197         4.64909         3.36598         3.36598 
        1.17811         4.60074         3.32595         3.32595 
        1.18424         4.55571          3.2867          3.2867 
        1.19038         4.51442         3.24797         3.24797 
        1.19652         4.47872         3.20988         3.20988 
        1.20267          4.4371         3.17241         3.17241 
        1.20881         4.38512         3.13556         3.13556 
        1.21495         4.34586         3.09935         3.09935 
        1.22108          4.3057         3.06373         3.06373 
         1.2272         4.24862         3.02876         3.02876 
        1.23334         4.23757         2.99426         2.99426 
        1.23949         4.18164         2.96021         2.96021 
        1.24562         4.14598          2.9268          2.9268 
        1.25174         4.11574         2.89396         2.89396 
        1.25789         4.05361         2.86153         2.86153 
        1.26402         4.02345         2.82965         2.82965 
        1.27014         3.98856         2.79835         2.79835 
        1.27628         3.94532         2.76742         2.76742 
        1.28244            3.92         2.73691         2.73691 
        1.28858         3.88985         2.70691         2.70691 
        1.29471         3.83388         2.67742         2.67742 
        1.30084          3.8012          2.6484          2.6484 
        1.30697         3.77824         2.61978         2.61978 
        1.31312         3.74312         2.59153         2.59153 
        1.31925         3.70753          2.5638          2.5638 
        1.32537            3.68          2.5365          2.5365 
        1.33151         3.64012         2.50951         2.50951 
        1.33765         3.61086         2.48293         2.48293 
        1.34378         3.58837         2.45679         2.45679 
        1.34992         3.55406         2.43101         2.43101 
        1.35606         3.52445         2.40555         2.40555 
         1.3622         3.49473          2.3805          2.3805 
        1.36833          3.4553         2.35588         2.35588 
        1.37445         3.42214         2.33161         2.33161 
        1.38059         3.39578         2.30762         2.30762 
        1.38675         3.36837         2.28391         2.28391 
        1.39288         3.34965         2.26063         2.26063 
        1.39901         3.30757         2.23769         2.23769 
        1.40515         3.28314         2.21502         2.21502 
         1.4113         3.26162         2.19267         2.19267 
        1.41742         3.22748         2.17072         2.17072 
        1.42355         3.20006         2.14903         2.14903 
         1.4297         3.18203         2.12758         2.12758 
        1.43585         3.15435         2.10643         2.10643 
        1.44198          3.1262         2.08565         2.08565 
        1.44809         3.10781         2.06519         2.06519 
        1.45423         3.08036         2.04493         2.04493 
        1.46036         3.05741         2.02499         2.02499 
        1.46649         3.02069          2.0053          2.0053 
        1.47263         3.01119         1.98587         1.98587 
        1.47877          2.9879          1.9667          1.9667 
        1.48491         2.95711         1.94775         1.94775 
        1.49104         2.93608          1.9291          1.9291 
        1.49718         2.91494         1.91068         1.91068 
        1.50333         2.88955         1.89248         1.89248 
        1.50947         2.86407         1.87455         1.87455 
         1.5156         2.84615         1.85688         1.85688 
        1.52172         2.82632         1.83944         1.83944 
        1.52787         2.80437         1.82219         1.82219 
          1.534         2.78312         1.80519         1.80519 
        1.54013         2.75971         1.78842         1.78842 
        1.54627         2.73931         1.77183         1.77183 
        1.55241         2.71422         1.75546         1.75546 
        1.55855         2.69961         1.73931         1.73931 
        1.56467         2.68051         1.72342         1.72342 
         1.5708           2.658         1.70767         1.70767 
        1.57695         2.63221         1.69211         1.69211 
        1.58308         2.61167         1.67677         1.67677 
        1.58922         2.60398         1.66162         1.66162 
        1.59535         2.57656         1.64666         1.64666 
         1.6015          2.5555         1.63186         1.63186 
        1.60764         2.54325         1.61726         1.61726 
        1.61376         2.51937         1.60287         1.60287 
        1.61989         2.50052         1.58865         1.58865 
        1.62604         2.48095         1.57458         1.57458 
        1.63218          2.4709         1.56068         1.56068 
        1.63831         2.45543         1.54698         1.54698 
        1.64444         2.43407         1.53345         1.53345 
        1.65059         2.42151         1.52004         1.52004 
        1.65673          2.3965         1.50681         1.50681 
        1.66285         2.38041         1.49378         1.49378 
        1.66898         2.36585          1.4809          1.4809 
        1.67512         2.34458         1.46814         1.46814 
        1.68127         2.32791         1.45553         1.45553 
         1.6874         2.32216         1.44309         1.44309 
        1.69353         2.29436         1.43081         1.43081 
        1.69967          2.2825         1.41864         1.41864 
        1.70581         2.27207         1.40662         1.40662 
        1.71193          2.2456         1.39478         1.39478 
        1.71806         2.23463         1.38306         1.38306 
        1.72421         2.22289         1.37145         1.37145 
        1.73035          2.2023         1.35999         1.35999 
        1.73649         2.19401         1.34866         1.34866 
        1.74262         2.17741         1.33747         1.33747 
        1.74876         2.16221          1.3264          1.3264 
        1.75489         2.14815         1.31548         1.31548 
        1.76101         2.12993         1.30468         1.30468 
        1.76715         2.12163           1.294           1.294 
        1.77329         2.10328         1.28342         1.28342 
        1.77943         2.09127         1.27296         1.27296 
        1.78557         2.07835         1.26262         1.26262 
        1.79171         2.06737         1.25241         1.25241 
        1.79785         2.05226          1.2423          1.2423 
        1.80399         2.03824         1.23231         1.23231 
        1.81012          2.0233         1.22244         1.22244 
        1.81625         2.00745         1.21269         1.21269 
        1.82239         1.99838         1.20303         1.20303 
        1.82853         1.98451         1.19348         1.19348 
        1.83466         1.96729         1.18404         1.18404 
        1.84078         1.95711         1.17472         1.17472 
        1.84692         1.94542         1.16548         1.16548 
        1.85306         1.93567         1.15633         1.15633 
         1.8592         1.92103         1.14729         1.14729 
        1.86533         1.90976         1.13836         1.13836 
        1.87147         1.89772         1.12951         1.12951 
