# k  (h/Mpc)    P(k)  (Mpc/h)^3    P_linear(k)  (Mpc/h)^3     P_NL(k)  ShotnoiseSubtracted = false
     0.00783031         10431.9         10484.7         10484.7 
       0.013688         12958.7         13262.3         13262.3 
       0.019231         13490.6           13671           13671 
      0.0249154         12886.8           12876           12876 
      0.0312784         11296.6         11407.7         11407.7 
      0.0375637         9785.86         9953.96         9953.96 
      0.0433917         8795.12         8855.28         8855.28 
      0.0492413         7916.81         8036.38         8036.38 
      0.0555754         7328.56         7394.49         7394.49 
      0.0619321         6628.21         6877.45         6877.45 
       0.067871         6256.65         6406.19         6406.19 
      0.0738098         5801.79         5895.04         5895.04 
      0.0800417         5256.22          5318.9          5318.9 
      0.0862327         4684.42         4750.29         4750.29 
      0.0921407         4226.24         4261.31         4261.31 
      0.0982031         3869.98         3849.09         3849.09 
       0.104506         3499.79         3526.12         3526.12 
       0.110769         3281.35         3294.69         3294.69 
       0.116806         3159.99         3124.56         3124.56 
       0.122832          2971.8         2973.11         2973.11 
       0.129052          2811.8         2809.48         2809.48 
       0.135211         2690.59         2628.61         2628.61 
       0.141259         2476.31         2437.16         2437.16 
       0.147318         2273.32          2245.7          2245.7 
       0.153489         2132.27         2067.31         2067.31 
       0.159709         2036.58          1916.2          1916.2 
       0.165845         1870.54         1798.56         1798.56 
       0.171974            1832         1707.75         1707.75 
       0.178125         1772.24            1634            1634 
       0.184229         1646.47         1567.55         1567.55 
        0.19034          1613.7         1499.51         1499.51 
       0.196428         1558.81         1426.29         1426.29 
       0.202534         1454.36         1348.13         1348.13 
       0.208729          1420.1         1268.06         1268.06 
       0.214876         1355.62         1192.96         1192.96 
       0.220989         1276.66         1126.55         1126.55 
       0.227147         1246.52         1069.77         1069.77 
        0.23329         1200.62         1022.55         1022.55 
       0.239377         1187.69           982.6           982.6 
       0.245482         1131.03          946.23          946.23 
       0.251667         1088.79         910.357         910.357 
       0.257832         1074.13         873.846         873.846 
       0.263955         1019.83         836.536         836.536 
       0.270079         988.093         799.034         799.034 
        0.27624          945.96         762.511         762.511 
       0.282372         929.809         728.705         728.705 
        0.28843         919.149         698.564         698.564 
       0.294538         873.953         671.539         671.539 
       0.300721         852.674         647.121         647.121 
        0.30691         836.772         624.706         624.706 
       0.313033         802.121         603.635         603.635 
       0.319153         790.799         582.982         582.982 
       0.325316         778.943         562.319         562.319 
        0.33145         762.019         541.936         541.936 
       0.337538          735.28         522.213         522.213 
       0.343633         715.269         503.348         503.348 
       0.349808         699.641          485.43          485.43 
       0.355968         686.633         468.886         468.886 
       0.362074         664.435         453.706         453.706 
       0.368217         661.502         439.469         439.469 
       0.374374         650.513         425.943         425.943 
       0.380519         625.896         412.946         412.946 
       0.386598         619.893         400.434         400.434 
       0.392688         606.273         388.177         388.177 
        0.39888         590.646         376.055         376.055 
       0.405048          580.37         364.404         364.404 
       0.411186          578.25         353.312         353.312 
       0.417313         572.438         342.807         342.807 
       0.423458         555.308         332.837         332.837 
       0.429607         540.382         323.375         323.375 
       0.435692         533.183         314.459         314.459 
       0.441815         524.535         305.847         305.847 
       0.447964         514.209         297.488         297.488 
       0.454126         508.315         289.371         289.371 
       0.460267         500.172          281.53          281.53 
       0.466387          492.19         273.961         273.961 
        0.47254         484.611         266.618         266.618 
       0.478662         475.028         259.599         259.599 
       0.484765         469.987         252.889         252.889 
       0.490885          465.27         246.434         246.434 
       0.497035         456.041         240.204         240.204 
       0.503198         455.322         234.199         234.199 
       0.509342         444.992         228.422         228.422 
       0.515458         437.418         222.857         222.857 
       0.521598         431.423          217.44          217.44 
       0.527764         424.474          212.17          212.17 
       0.533884         422.359         207.108         207.108 
           0.54         416.615         202.217         202.217 
       0.546137         408.285         197.473         197.473 
       0.552299         407.459         192.871         192.871 
       0.558452         400.917         188.434         188.434 
       0.564573         396.974         184.168         184.168 
       0.570708         392.255         180.031         180.031 
       0.576825          384.91         176.036         176.036 
       0.582926          382.57          172.17          172.17 
       0.589034         376.895         168.413         168.413 
       0.595184         374.233         164.741         164.741 
       0.601379         368.091         161.155         161.155 
       0.607522         361.429         157.706         157.706 
       0.613639         359.887         154.376         154.376 
       0.619772         358.431         151.137         151.137 
       0.625918         352.161         147.988         147.988 
       0.632068         348.523         144.928         144.928 
       0.638161         345.395         141.984         141.984 
         0.6443           342.1         139.102         139.102 
       0.650464         337.311          136.29          136.29 
       0.656582         334.225         133.578         133.578 
       0.662703         331.837         130.939         130.939 
       0.668861         326.483         128.357         128.357 
       0.675024         324.717         125.844         125.844 
       0.681124         320.795         123.425         123.425 
       0.687237         318.429         121.065         121.065 
       0.693381         314.388         118.757         118.757 
       0.699536          312.13         116.506         116.506 
       0.705665         308.783         114.324         114.324 
       0.711789         306.674         112.201         112.201 
       0.717957         302.925         110.118         110.118 
        0.72409         299.553           108.1           108.1 
       0.730186         301.191         106.147         106.147 
       0.736317         295.699         104.231         104.231 
       0.742472         292.521         102.356         102.356 
       0.748622         289.149          100.53          100.53 
        0.75476         288.982         98.7531         98.7531 
       0.760888          285.51         97.0222         97.0222 
       0.767043         282.412         95.3265         95.3265 
       0.773185         280.914         93.6754         93.6754 
       0.779291         276.653         92.0733         92.0733 
       0.785407         275.651         90.5069         90.5069 
       0.791564         273.024         88.9675         88.9675 
       0.797719         268.764         87.4652         87.4652 
       0.803834         270.767         86.0076         86.0076 
       0.809972          266.88         84.5784         84.5784 
       0.816124         263.392          83.179          83.179 
       0.822261         261.159         81.8155         81.8155 
       0.828378         260.783          80.487          80.487 
       0.834502         256.889         79.1873         79.1873 
       0.840667         256.879         77.9083         77.9083 
       0.846816         252.326         76.6615         76.6615 
       0.852925         252.031         75.4501         75.4501 
       0.859047         249.445         74.2628         74.2628 
       0.865192         248.996         73.0974         73.0974 
       0.871341         245.449         71.9565         71.9565 
       0.877463         243.473         70.8456         70.8456 
       0.883569         242.828         69.7611         69.7611 
       0.889708         240.439         68.6942         68.6942 
       0.895864          238.42          67.647          67.647 
       0.902008         236.312         66.6242         66.6242 
       0.908149         234.419         65.6234         65.6234 
       0.914301         233.128         64.6418         64.6418 
       0.920448         232.287         63.6815         63.6815 
       0.926574         229.802         62.7443         62.7443 
       0.932687         228.656         61.8281         61.8281 
       0.938823         226.638         60.9272         60.9272 
       0.944975         225.502         60.0424         60.0424 
       0.951105         223.186         59.1786         59.1786 
       0.957225         221.525         58.3334         58.3334 
       0.963368         220.908         57.5021         57.5021 
       0.969511         217.307         56.6871         56.6871 
       0.975621         216.209         55.8925         55.8925 
       0.981748         215.138         55.1113         55.1113 
       0.987916         214.161         54.3403         54.3403 
        0.99406         212.182          53.587          53.587 
        1.00019         210.868         52.8497         52.8497 
        1.00632         210.039         52.1271         52.1271 
        1.01246         208.201         51.4171         51.4171 
        1.01859         206.155         50.7216         50.7216 
        1.02471         204.576           50.04           50.04 
        1.03085         203.517         49.3686         49.3686 
        1.03698          202.16         48.7112         48.7112 
        1.04314         201.783         48.0631         48.0631 
        1.04929           200.3         47.4284         47.4284 
        1.05541         198.687         46.8079         46.8079 
        1.06154         196.992          46.197          46.197 
        1.06769         195.577         45.5963         45.5963 
        1.07382         195.151         45.0082         45.0082 
        1.07993         192.891          44.432          44.432 
        1.08607         191.789         43.8636         43.8636 
        1.09222         190.562         43.3047         43.3047 
        1.09836         189.732         42.7562         42.7562 
        1.10449         187.945          42.218          42.218 
        1.11063         186.722         41.6886         41.6886 
        1.11677         185.873         41.1685         41.1685 
         1.1229         184.414         40.6583         40.6583 
        1.12903         183.521         40.1564         40.1564 
        1.13518         182.062         39.6626         39.6626 
        1.14131         181.159         39.1775         39.1775 
        1.14745          179.45         38.7009         38.7009 
        1.15359          177.88         38.2322         38.2322 
        1.15973         177.608         37.7712         37.7712 
        1.16584          176.69         37.3199         37.3199 
        1.17197         175.489         36.8754         36.8754 
        1.17811         173.817         36.4368         36.4368 
        1.18424         172.952         36.0067         36.0067 
        1.19038          171.82         35.5824         35.5824 
        1.19652         170.394         35.1652         35.1652 
        1.20267         169.552         34.7547         34.7547 
        1.20881         168.257          34.351          34.351 
        1.21495         167.951         33.9543         33.9543 
        1.22108         166.565         33.5641         33.5641 
         1.2272         165.199         33.1809         33.1809 
        1.23334         164.535          32.803          32.803 
        1.23949         163.912           32.43           32.43 
        1.24562         162.558          32.064          32.064 
        1.25174         161.468         31.7042         31.7042 
        1.25789         160.219         31.3489         31.3489 
        1.26402         160.032         30.9997         30.9997 
        1.27014         158.955         30.6567         30.6567 
        1.27628         157.169          30.318          30.318 
        1.28244           156.7         29.9837         29.9837 
        1.28858         155.576          29.655          29.655 
        1.29471         154.726         29.3319         29.3319 
        1.30084          153.67          29.014          29.014 
        1.30697         152.673         28.7004         28.7004 
        1.31312         151.693          28.391          28.391 
        1.31925         150.649         28.0872         28.0872 
        1.32537          150.11         27.7882         27.7882 
        1.33151         149.188         27.4924         27.4924 
        1.33765         147.738         27.2012         27.2012 
        1.34378         147.614         26.9149         26.9149 
        1.34992         146.715         26.6325         26.6325 
        1.35606         145.671         26.3535         26.3535 
         1.3622         145.223         26.0791         26.0791 
        1.36833         143.492         25.8093         25.8093 
        1.37445         143.398         25.5435         25.5435 
        1.38059         142.206         25.2807         25.2807 
        1.38675         141.385         25.0209         25.0209 
        1.39288          140.29         24.7659         24.7659 
        1.39901          139.58         24.5146         24.5146 
        1.40515         139.013         24.2662         24.2662 
         1.4113         138.043         24.0214         24.0214 
        1.41742         137.014         23.7809         23.7809 
        1.42355         136.874         23.5433         23.5433 
         1.4297         135.562         23.3083         23.3083 
        1.43585          134.81         23.0765         23.0765 
        1.44198         133.551         22.8489         22.8489 
        1.44809           132.9         22.6248         22.6248 
        1.45423          132.53         22.4028         22.4028 
        1.46036         131.446         22.1843         22.1843 
        1.46649         130.656         21.9687         21.9687 
        1.47263           130.2         21.7557         21.7557 
        1.47877         128.986         21.5457         21.5457 
        1.48491         128.446         21.3382         21.3382 
        1.49104         126.943         21.1339         21.1339 
        1.49718         126.906         20.9321         20.9321 
        1.50333          126.36         20.7327         20.7327 
        1.50947         125.432         20.5362         20.5362 
         1.5156         124.551         20.3427         20.3427 
        1.52172         123.924         20.1516         20.1516 
        1.52787         123.246         19.9626         19.9626 
          1.534         122.547         19.7763         19.7763 
        1.54013          121.84         19.5926         19.5926 
        1.54627         120.927         19.4109         19.4109 
        1.55241         120.537         19.2315         19.2315 
        1.55855         119.753         19.0547         19.0547 
        1.56467         118.897         18.8805         18.8805 
         1.5708         117.999         18.7081         18.7081 
        1.57695         117.637         18.5375         18.5375 
        1.58308         116.785         18.3695         18.3695 
        1.58922         116.696         18.2035         18.2035 
        1.59535         115.956         18.0396         18.0396 
         1.6015         114.732         17.8775         17.8775 
        1.60764         114.052         17.7175         17.7175 
        1.61376         113.523         17.5599         17.5599 
        1.61989         113.008         17.4042         17.4042 
        1.62604         112.227         17.2499         17.2499 
        1.63218         111.735         17.0977         17.0977 
        1.63831         110.931         16.9476         16.9476 
        1.64444         110.231         16.7993         16.7993 
        1.65059         109.509         16.6525         16.6525 
        1.65673         109.251         16.5076         16.5076 
        1.66285         108.688         16.3648         16.3648 
        1.66898         107.719         16.2237         16.2237 
        1.67512         107.288         16.0839         16.0839 
        1.68127         106.648         15.9457         15.9457 
         1.6874         105.766         15.8095         15.8095 
        1.69353         105.265         15.6749         15.6749 
        1.69967         104.676         15.5416         15.5416 
        1.70581         104.356         15.4099         15.4099 
        1.71193         103.513         15.2803         15.2803 
        1.71806         102.867         15.1518         15.1518 
        1.72421         102.275         15.0246         15.0246 
        1.73035         101.819          14.899          14.899 
        1.73649         101.099         14.7749         14.7749 
        1.74262         100.678         14.6523         14.6523 
        1.74876         99.8912         14.5311         14.5311 
        1.75489         99.5135         14.4114         14.4114 
        1.76101         98.8634         14.2932         14.2932 
        1.76715         98.1201         14.1761         14.1761 
        1.77329         97.7603         14.0602         14.0602 
        1.77943         97.0776         13.9456         13.9456 
        1.78557         96.7049         13.8324         13.8324 
        1.79171         96.2362         13.7205         13.7205 
        1.79785         95.2957         13.6098         13.6098 
        1.80399         95.1695         13.5003         13.5003 
        1.81012         94.2746         13.3922         13.3922 
        1.81625         93.8645         13.2854         13.2854 
        1.82239         93.4085         13.1795         13.1795 
        1.82853         92.8564         13.0749         13.0749 
        1.83466         92.1104         12.9715         12.9715 
        1.84078         91.8288         12.8694         12.8694 
        1.84692         91.5129         12.7682         12.7682 
        1.85306         90.8117         12.6679         12.6679 
         1.8592         90.4709         12.5689         12.5689 
        1.86533         89.8012          12.471          12.471 
        1.87147         89.3512         12.3741         12.3741 
        1.87761         88.6068         12.2781         12.2781 
