#  k  (h/Mpc)          P(k)  (Mpc/h)^3     P_linear(k)   P_NL(k) (Mpc/h)^3
     0.00783031         2743.82         2766.29         2740.99 
       0.013688         3041.81          3082.9         3063.49 
       0.019231         2830.63         2846.84         2831.38 
      0.0249154         2406.25         2396.99          2389.3 
      0.0312784         1884.21         1880.75         1881.82 
      0.0375637         1479.52         1480.82          1483.1 
      0.0433917         1237.97          1232.4         1234.63 
      0.0492413         1081.47         1080.38         1082.47 
      0.0555754         989.018         984.082          984.56 
      0.0619321         906.599         914.523          914.17 
       0.067871         843.632         844.576         843.821 
      0.0738098         759.283         758.359         757.044 
      0.0800417         658.972         655.316         655.365 
      0.0862327         557.443         554.907         556.971 
      0.0921407         476.912         474.102         476.879 
      0.0982031         419.043         413.268          417.22 
       0.104506         374.814         373.278         377.677 
       0.110769         352.821         350.903          353.92 
       0.116806         341.346         337.492         339.603 
       0.122832         325.528         324.389         326.236 
       0.129052         307.915         305.817         307.334 
       0.135211         285.013         281.108         283.028 
       0.141259         255.869         253.139         255.879 
       0.147318         227.467           225.5         229.496 
       0.153489         204.587         201.448         205.008 
       0.159709         187.819         183.371         187.352 
       0.165845         173.524         171.534         176.144 
       0.171974         168.681         164.102         167.977 
       0.178125         162.559         158.779         162.787 
       0.184229         155.589         153.431         157.046 
        0.19034         149.915         146.579         149.868 
       0.196428         141.332         137.917          140.83 
       0.202534         129.645         128.024         131.314 
       0.208729         121.718         117.926         121.456 
       0.214876         113.639         108.964          113.32 
       0.220989         104.888         101.756         106.287 
       0.227147         100.811         96.3122         100.676 
        0.23329         96.7239         92.3297         96.8191 
       0.239377         93.8352         89.1909         93.4763 
       0.245482         90.0924         86.2043         89.9004 
       0.251667         86.0377          82.873         86.7829 
       0.257832         83.4558         79.0733         82.8067 
       0.263955         78.3287         74.9376         78.6007 
       0.270079          74.086         70.7377         74.4853 
        0.27624         69.9607         66.7761         70.4622 
       0.282372         66.7479         63.3254         67.2796 
        0.28843         64.8949         60.4821         64.4575 
       0.294538         62.0526          58.114         62.0142 
       0.300721         59.3925          56.071         60.0034 
        0.30691         58.0336         54.1794         58.0803 
       0.313033         55.6951          52.308          55.983 
       0.319153         54.3505         50.3502         54.0094 
       0.325316          51.656         48.3002          52.042 
        0.33145         49.5083         46.2404         49.8458 
       0.337538         47.5938         44.2705         47.8132 
       0.343633         45.9356         42.4436         46.0338 
       0.349808         44.1241         40.7853         44.4981 
       0.355968          42.586         39.3181         43.2102 
       0.362074         41.6311         38.0126          41.719 
       0.368217         40.2867         36.7964         40.2505 
       0.374374         39.2219         35.6203         39.1181 
       0.380519         37.5876         34.4591         37.8278 
       0.386598         36.3291         33.3089         36.6974 
       0.392688         35.0265         32.1652         35.5602 
        0.39888         34.2127         31.0344         34.4003 
       0.405048         33.2037         29.9608         33.2267 
       0.411186         32.1217         28.9608         32.3751 
       0.417313         31.1034          28.037          31.333 
       0.423458         30.1175         27.1755          30.493 
       0.429607         29.5085         26.3657         29.5957 
       0.435692         28.8948         25.6022          28.829 
       0.441815         27.7673         24.8569         28.1485 
       0.447964          26.756         24.1245         27.2887 
       0.454126         26.2644         23.4074         26.5012 
       0.460267         25.8147         22.7126         25.9055 
       0.466387         25.0062         22.0441         25.1107 
        0.47254         24.5173         21.4014         24.4994 
       0.478662         23.6629         20.7948         23.8501 
       0.484765         23.0828         20.2212         23.1892 
       0.490885         22.3605          19.673         22.7506 
       0.497035         21.8872         19.1455         22.2524 
       0.503198          21.427          18.637         21.5947 
       0.509342         20.7403         18.1463         21.1225 
       0.515458         20.3662         17.6714         20.7188 
       0.521598         19.8679         17.2081         20.0801 
       0.527764         19.5057         16.7579         19.5508 
       0.533884         18.9663         16.3274         19.1119 
           0.54         18.5578         15.9137         18.6892 
       0.546137         17.9564         15.5145         18.3253 
       0.552299         17.5969         15.1289         17.8066 
       0.558452         17.1584         14.7584          17.427 
       0.564573         16.8956          14.403         17.1458 
       0.570708          16.467         14.0587          16.767 
       0.576825         16.1837         13.7261          16.392 
       0.582926         15.8261         13.4041         16.0595 
       0.589034         15.4675         13.0912         15.7917 
       0.595184         15.2365         12.7858         15.3436 
       0.601379          14.795         12.4882         15.1389 
       0.607522         14.4899          12.203         14.7616 
       0.613639         14.2121         11.9286         14.4675 
       0.619772         13.9222         11.6624         14.2274 
       0.625918          13.622         11.4041         13.9332 
       0.632068         13.4479         11.1535          13.628 
       0.638161         13.1281         10.9125         13.3739 
         0.6443         12.8863         10.6767         13.0901 
       0.650464         12.5478          10.447         12.9003 
       0.656582         12.4183         10.2256         12.6512 
       0.662703         12.2062         10.0106         12.3867 
       0.668861         11.8738         9.80073         12.2174 
       0.675024         11.6601          9.5968         11.9309 
       0.681124          11.599         9.40082         11.7165 
       0.687237         11.3236         9.20998         11.4844 
       0.693381         11.0412          9.0236         11.2666 
       0.699536         10.9428         8.84208         11.0997 
       0.705665         10.6945         8.66634         10.9553 
       0.711789         10.4881         8.49554         10.7089 
       0.717957         10.2412         8.32819          10.525 
        0.72409         10.1335         8.16629         10.3737 
       0.730186         10.0473          8.0097         10.1753 
       0.736317         9.79673         7.85639         9.99353 
       0.742472         9.67179         7.70657         9.86905 
       0.748622         9.48316         7.56083         9.69132 
        0.75476         9.22435         7.41921         9.52744 
       0.760888         9.16503         7.28146         9.39086 
       0.767043         8.96459          7.1467         9.24741 
       0.773185         8.83285         7.01565         9.09539 
       0.779291         8.74457         6.88866         8.96624 
       0.785407         8.57816         6.76464         8.80703 
       0.791564         8.46087         6.64291         8.67822 
       0.797719         8.26237         6.52425         8.53781 
       0.803834         8.20917         6.40925         8.39718 
       0.809972         8.02933         6.29662         8.30105 
       0.816124         7.92069         6.18647         8.15364 
       0.822261          7.8087         6.07925         8.02846 
       0.828378         7.69866         5.97491         7.91076 
       0.834502         7.58765         5.87295         7.80337 
       0.840667         7.49314         5.77271         7.67964 
       0.846816         7.31598         5.67511         7.57694 
       0.852925         7.26334         5.58039         7.49171 
       0.859047         7.13925         5.48763         7.38117 
       0.865192         7.02892          5.3967         7.26876 
       0.871341         6.92774         5.30777         7.17981 
       0.877463         6.81922         5.22125         7.07006 
       0.883569         6.75381          5.1369         6.96703 
       0.889708         6.62961         5.05398         6.87881 
       0.895864         6.53426         4.97269         6.77633 
       0.902008         6.44545         4.89337         6.69629 
       0.908149         6.33686         4.81583         6.59703 
       0.914301         6.27428         4.73985         6.54068 
       0.920448         6.18617         4.66559         6.42221 
       0.926574         6.12664         4.59319         6.34862 
       0.932687         6.01365         4.52248         6.22877 
       0.938823         5.91735         4.45301         6.17308 
       0.944975         5.87756         4.38485         6.09995 
       0.951105         5.77255         4.31836         5.99946 
       0.957225         5.72904         4.25338         5.94806 
       0.963368         5.62641         4.18951         5.86071 
       0.969511         5.55448         4.12697         5.79368 
       0.975621         5.48408         4.06604         5.71306 
       0.981748         5.39949         4.00619         5.64253 
       0.987916         5.34686         3.94717         5.57215 
        0.99406         5.27757         3.88957         5.51285 
        1.00019         5.22247         3.83324         5.45559 
        1.00632         5.17001         3.77807         5.38309 
        1.01246            5.09         3.72392         5.33682 
        1.01859          5.0245         3.67092         5.25793 
        1.02471         4.94822         3.61902         5.17179 
        1.03085         4.91439         3.56794         5.12221 
        1.03698          4.8533         3.51797         5.07302 
        1.04314         4.78316         3.46874         5.00721 
        1.04929         4.71155         3.42058         4.95512 
        1.05541         4.66377         3.37352         4.90695 
        1.06154         4.61269         3.32724         4.84321 
        1.06769         4.57663         3.28176         4.78881 
        1.07382         4.49045         3.23728         4.73627 
        1.07993         4.44535         3.19372         4.67847 
        1.08607         4.40921         3.15079         4.63449 
        1.09222         4.34364         3.10861         4.58159 
        1.09836         4.31835         3.06724         4.51578 
        1.10449         4.23688         3.02668         4.47377 
        1.11063         4.21367         2.98681         4.42718 
        1.11677         4.16522         2.94768         4.37838 
         1.1229         4.12039         2.90931         4.33776 
        1.12903         4.07393          2.8716         4.29996 
        1.13518         4.01575         2.83452         4.24643 
        1.14131         3.97169         2.79812         4.19389 
        1.14745         3.91309         2.76238         4.15019 
        1.15359         3.86813         2.72726         4.11208 
        1.15973         3.83159         2.69274         4.06518 
        1.16584         3.79767         2.65898         4.03126 
        1.17197         3.74602         2.62574         3.99043 
        1.17811         3.70702         2.59298         3.94104 
        1.18424         3.67171         2.56086         3.90078 
        1.19038         3.64316          2.5292         3.86276 
        1.19652         3.60305         2.49809         3.82605 
        1.20267         3.56883         2.46751         3.78615 
        1.20881         3.51555         2.43744         3.75253 
        1.21495         3.48817         2.40793         3.71787 
        1.22108         3.44616          2.3789         3.68104 
         1.2272         3.40761         2.35043          3.6361 
        1.23334         3.39101         2.32236         3.60832 
        1.23949         3.34312         2.29468          3.5792 
        1.24562         3.31157         2.26753         3.54159 
        1.25174          3.2907         2.24086         3.50405 
        1.25789         3.23166         2.21454         3.46678 
        1.26402         3.21136         2.18869         3.43444 
        1.27014          3.1874         2.16332         3.40732 
        1.27628         3.14391         2.13828         3.37177 
        1.28244          3.1226         2.11358          3.3412 
        1.28858         3.09384         2.08931         3.31003 
        1.29471         3.05053         2.06547         3.28393 
        1.30084         3.02027         2.04202         3.26018 
        1.30697         3.00402         2.01891         3.21854 
        1.31312         2.96758         1.99612         3.19095 
        1.31925         2.93758         1.97375         3.17318 
        1.32537         2.91295         1.95175         3.14443 
        1.33151         2.88181            1.93         3.11348 
        1.33765         2.85286          1.9086         3.08224 
        1.34378          2.8422         1.88757         3.05634 
        1.34992         2.80908         1.86683         3.03082 
        1.35606         2.78229         1.84637         3.00066 
         1.3622         2.75244         1.82625         2.97192 
        1.36833          2.7276         1.80648         2.95907 
        1.37445         2.69772         1.78701         2.92957 
        1.38059         2.66898         1.76777         2.89832 
        1.38675         2.64769         1.74876         2.87492 
        1.39288         2.63154         1.73011         2.85834 
        1.39901         2.59691         1.71175         2.83181 
        1.40515         2.57834          1.6936         2.80621 
         1.4113         2.55496         1.67573         2.78382 
        1.41742         2.53583         1.65819          2.7604 
        1.42355         2.50733         1.64086         2.73663 
         1.4297         2.48511         1.62373         2.71536 
        1.43585         2.47009         1.60685         2.69721 
        1.44198         2.44091         1.59027         2.67027 
        1.44809         2.42302         1.57396         2.65031 
        1.45423         2.39979         1.55782         2.62849 
        1.46036         2.38344         1.54194         2.60738 
        1.46649          2.3614         1.52627         2.58852 
        1.47263         2.34385         1.51081          2.5681 
        1.47877         2.32298         1.49556         2.54266 
        1.48491         2.30208         1.48051         2.52744 
        1.49104         2.28329         1.46569         2.50611 
        1.49718         2.26692         1.45107         2.48613 
        1.50333         2.24237         1.43662         2.46739 
        1.50947         2.22183          1.4224         2.44791 
         1.5156         2.20726         1.40839         2.43161 
        1.52172         2.18597         1.39457          2.4159 
        1.52787         2.17261         1.38091         2.38759 
          1.534         2.15107         1.36745          2.3722 
        1.54013          2.1393         1.35418         2.35542 
        1.54627          2.1148         1.34106         2.33586 
        1.55241         2.09649         1.32812         2.31971 
        1.55855         2.08415         1.31536         2.29754 
        1.56467         2.07131         1.30281         2.28549 
         1.5708         2.04598         1.29039         2.27179 
        1.57695         2.02736          1.2781         2.24966 
        1.58308         2.00899         1.26601         2.23371 
        1.58922         2.00368         1.25406         2.22217 
        1.59535         1.98447         1.24228         2.20803 
         1.6015         1.96292         1.23062         2.18941 
        1.60764         1.95359         1.21913         2.17189 
        1.61376          1.9342         1.20781         2.15836 
        1.61989         1.91512         1.19662         2.14294 
        1.62604         1.90432         1.18556         2.12699 
        1.63218         1.89165         1.17464         2.11396 
        1.63831         1.87762         1.16388         2.10029 
        1.64444         1.86048         1.15325         2.08177 
        1.65059          1.8493         1.14273         2.06807 
        1.65673         1.83277         1.13235         2.05347 
        1.66285         1.81806         1.12214         2.03815 
        1.66898          1.8035         1.11204         2.02446 
        1.67512         1.79127         1.10205         2.01071 
        1.68127         1.77565         1.09217         1.99941 
         1.6874          1.7632         1.08244         1.98903 
        1.69353         1.74748         1.07283         1.97482 
        1.69967         1.73411         1.06331         1.95657 
        1.70581         1.72269         1.05391         1.94378 
        1.71193          1.7075         1.04466         1.93464 
        1.71806         1.69817         1.03551         1.91909 
        1.72421         1.68626         1.02644         1.90531 
        1.73035         1.67073          1.0175         1.89322 
        1.73649         1.65984         1.00866         1.88103 
        1.74262         1.64756        0.999932         1.86993 
        1.74876         1.63696        0.991303          1.8592 
        1.75489         1.62251        0.982794          1.8457 
        1.76101         1.60924        0.974388         1.83018 
        1.76715         1.60552        0.966068         1.81927 
        1.77329         1.58889        0.957836         1.80892 
        1.77943         1.57471        0.949695         1.79724 
        1.78557          1.5678        0.941662         1.78549 
        1.79171         1.55426         0.93372         1.77307 
        1.79785          1.5471        0.925868          1.7614 
        1.80399         1.53204        0.918108         1.75163 
        1.81012         1.52429        0.910448         1.74083 
        1.81625         1.50923        0.902878         1.72939 
        1.82239         1.50203        0.895383          1.7193 
        1.82853         1.49126        0.887976         1.71072 
        1.83466         1.47594        0.880661         1.70095 
        1.84078         1.46558        0.873436         1.68949 
        1.84692         1.45557         0.86628         1.67788 
        1.85306         1.44538        0.859195         1.66515 
         1.8592         1.43781        0.852201         1.65478 
        1.86533         1.42835        0.845289         1.64806 
        1.87147         1.42151        0.838445         1.63808 
        1.87761          1.4104        0.831673          1.6272 
