#  k  (h/Mpc)          P(k)  (Mpc/h)^3     P_linear(k)   P_NL(k) (Mpc/h)^3
     0.00783031         14212.1         14260.5         14241.7 
       0.013688         18533.9         19053.3           18928 
       0.019231           20213         20577.1         20360.4 
      0.0249154         20132.6         20208.9         19934.3 
      0.0312784         18240.2           18590         18251.1 
      0.0375637         16146.9         16627.8         16271.3 
      0.0433917         14689.9         14966.1         14567.8 
      0.0492413         13232.8         13636.7         13231.2 
      0.0555754         12258.1         12578.4         12176.4 
      0.0619321         11094.2         11789.7         11375.2 
       0.067871         10629.2         11151.8         10744.1 
      0.0738098         10076.1         10493.4         9981.84 
      0.0800417         9323.83         9719.97         9226.44 
      0.0862327         8482.44         8878.36         8499.22 
      0.0921407         7744.72         8064.93         7712.66 
      0.0982031         7119.92         7292.35         7068.62 
       0.104506         6397.48          6616.1         6504.55 
       0.110769         5935.51          6097.5         5950.02 
       0.116806         5691.87         5730.54         5583.85 
       0.122832         5368.14         5458.06         5341.52 
       0.129052         5107.58         5225.79         5120.28 
       0.135211         4984.52         4998.63         4888.36 
       0.141259         4656.51         4749.25         4698.11 
       0.147318         4346.39            4466         4457.52 
       0.153489         4123.92          4155.6         4107.96 
       0.159709         3974.17         3845.22         3878.97 
       0.165845         3636.88         3566.51         3718.82 
       0.171974         3537.29         3332.38         3512.33 
       0.178125         3437.06         3146.94         3412.02 
       0.184229         3175.15         3005.89         3252.64 
        0.19034         3143.46         2893.95         3149.76 
       0.196428         3069.65         2795.13         3031.94 
       0.202534          2910.2         2694.31         2951.14 
       0.208729         2851.82         2581.24         2814.68 
       0.214876         2742.15         2456.77         2746.04 
       0.220989         2623.36         2325.73         2662.67 
       0.227147         2555.55         2194.89         2571.53 
        0.23329         2459.06         2074.09         2493.95 
       0.239377         2449.28          1969.9         2402.45 
       0.245482         2346.76         1882.89          2307.5 
       0.251667         2263.25         1810.67         2263.65 
       0.257832         2230.36         1749.99         2203.33 
       0.263955         2144.11          1695.2         2152.03 
       0.270079         2104.74         1640.66          2097.7 
        0.27624         2017.57         1582.89         2039.34 
       0.282372         2004.29         1521.66         2006.37 
        0.28843         1963.31         1458.86         1962.68 
       0.294538         1886.44         1395.96         1907.63 
       0.300721         1859.57         1335.66         1852.87 
        0.30691         1811.71         1281.01         1831.03 
       0.313033         1753.52         1233.46         1781.41 
       0.319153         1739.85         1192.14         1734.92 
       0.325316         1719.38         1155.25          1717.1 
        0.33145         1686.74         1121.41         1662.15 
       0.337538         1639.74         1088.75         1642.07 
       0.343633         1606.19         1055.78          1624.1 
       0.349808         1584.36         1021.58         1597.99 
       0.355968         1549.52         986.919         1573.65 
       0.362074         1515.27         952.861         1543.08 
       0.368217         1510.57         919.836         1508.34 
       0.374374         1485.83         888.878         1484.25 
       0.380519         1442.29         860.503         1460.69 
       0.386598         1441.38         834.961         1440.17 
       0.392688         1403.57         811.506         1415.38 
        0.39888         1382.88         789.179         1398.89 
       0.405048         1357.21          767.86         1379.01 
       0.411186         1347.81         747.003          1355.3 
       0.417313         1348.73         726.239            1341 
       0.423458         1309.11         705.534         1316.15 
       0.429607          1277.5         685.074         1295.25 
       0.435692         1269.45         665.389         1271.68 
       0.441815         1246.24         646.467         1271.47 
       0.447964         1237.74         628.526         1255.36 
       0.454126         1221.14         611.643          1222.6 
       0.460267         1208.53         595.867         1223.18 
       0.466387         1190.98         580.988         1200.41 
        0.47254         1168.89         566.617         1186.59 
       0.478662         1158.79         552.725         1174.52 
       0.484765         1148.75         539.175         1162.94 
       0.490885         1135.14         525.808         1141.54 
       0.497035         1116.82         512.606         1133.15 
       0.503198         1116.39         499.723         1121.79 
       0.509342         1095.93         487.323         1101.99 
       0.515458         1075.03         475.472         1096.83 
       0.521598         1078.21         464.081         1088.74 
       0.527764         1051.57         453.161          1078.5 
       0.533884         1041.44         442.803         1067.53 
           0.54         1034.27         432.845         1057.83 
       0.546137         1024.49         423.157         1046.54 
       0.552299         1014.57         413.671         1032.52 
       0.558452         1007.26         404.429         1025.14 
       0.564573         1001.43         395.462         1014.67 
       0.570708          989.92         386.704         1003.24 
       0.576825          971.48          378.21         991.666 
       0.582926         969.025         369.994         985.391 
       0.589034         960.274         362.041         971.863 
       0.595184         947.767         354.321         965.025 
       0.601379         933.339         346.828         957.714 
       0.607522         923.849         339.645         944.252 
       0.613639          922.14         332.704         940.935 
       0.619772         910.899          325.93         938.011 
       0.625918         903.824          319.31          927.81 
       0.632068          895.67         312.856         922.271 
       0.638161         882.816         306.628         905.948 
         0.6443         876.289         300.522         901.808 
       0.650464         870.886         294.564         892.311 
       0.656582         864.916         288.814          885.87 
       0.662703         851.703         283.222         879.129 
       0.668861         844.195         277.753         875.934 
       0.675024         839.105         272.431         872.514 
       0.681124         825.789          267.31         857.592 
       0.687237         826.602         262.318          852.14 
       0.693381         810.899         257.434         843.517 
       0.699536         813.701         252.668         837.994 
       0.705665          802.36         248.044         830.429 
       0.711789         799.032         243.539         823.388 
       0.717957         790.777         239.111         821.914 
        0.72409         783.871         234.817         815.696 
       0.730186         779.655         230.654         806.961 
       0.736317         771.536          226.57         800.291 
       0.742472         761.533          222.57         795.495 
       0.748622         759.124         218.674         788.412 
        0.75476         749.875         214.882         788.203 
       0.760888         745.975         211.189         780.611 
       0.767043         743.138         207.571         770.113 
       0.773185         737.863         204.047         765.856 
       0.779291         729.424         200.628          759.08 
       0.785407         723.504         197.283         754.535 
       0.791564          718.67         193.994         754.161 
       0.797719         707.898         190.782         746.502 
       0.803834         708.031         187.664         741.491 
       0.809972         699.613         184.605         738.426 
       0.816124         695.217         181.609         729.643 
       0.822261         690.386         178.687         724.841 
       0.828378         687.938         175.839         720.515 
       0.834502         676.897         173.052         718.393 
       0.840667          675.27         170.308         713.688 
       0.846816         670.801         167.632         708.295 
       0.852925         665.847         165.031         703.398 
       0.859047         660.051         162.481         696.402 
       0.865192         655.922         159.977         693.116 
       0.871341         649.543         157.525          689.33 
       0.877463           648.5         155.136         685.642 
       0.883569         641.348         152.804         679.748 
       0.889708         633.955         150.508         674.125 
       0.895864          628.45         148.254          670.26 
       0.902008         627.026         146.051         666.687 
       0.908149         620.989         143.896         660.446 
       0.914301         618.392          141.78         655.879 
       0.920448         611.329          139.71         654.136 
       0.926574         607.962         137.689         649.343 
       0.932687         605.238         135.713         645.122 
       0.938823         598.699         133.769         642.065 
       0.944975          594.61         131.859         638.452 
       0.951105         590.745         129.994         632.146 
       0.957225         582.821         128.169         630.996 
       0.963368         583.597         126.372         626.292 
       0.969511         576.186         124.611         621.825 
       0.975621         573.369         122.893         618.072 
       0.981748         569.111         121.203         613.498 
       0.987916         566.155         119.535          612.41 
        0.99406         560.655         117.905         607.469 
        1.00019         555.847         116.309         601.462 
        1.00632          551.91         114.744         598.308 
        1.01246         548.555         113.206         595.539 
        1.01859         544.025         111.699         590.604 
        1.02471         542.323         110.222         588.183 
        1.03085         536.441         108.766         587.276 
        1.03698         535.311          107.34         584.067 
        1.04314          528.53         105.935         579.954 
        1.04929         527.417         104.557         574.754 
        1.05541         520.453         103.211         570.564 
        1.06154         518.752         101.884          567.02 
        1.06769         514.556          100.58         563.138 
        1.07382         509.293         99.3024         560.428 
        1.07993         509.463         98.0505         557.394 
        1.08607         504.889         96.8152         553.778 
        1.09222         500.851         95.6002         549.886 
        1.09836         495.977         94.4077          548.63 
        1.10449         491.502         93.2372          546.12 
        1.11063         489.992         92.0854         540.502 
        1.11677         485.174         90.9538         539.182 
         1.1229         482.312         89.8434         535.226 
        1.12903         477.704         88.7507          531.81 
        1.13518         476.744         87.6755         528.584 
        1.14131         473.292         86.6189         526.115 
        1.14745         468.239         85.5805         522.319 
        1.15359         465.488         84.5592         520.729 
        1.15973         462.734         83.5542          517.41 
        1.16584          460.46         82.5703          514.69 
        1.17197         456.956         81.6009         511.521 
        1.17811         451.384         80.6443         508.329 
        1.18424         449.871          79.706         506.064 
        1.19038         447.203         78.7801         503.085 
        1.19652         442.413         77.8694         499.598 
        1.20267         440.729         76.9732         497.079 
        1.20881          438.14         76.0915         493.636 
        1.21495         432.653         75.2252         491.343 
        1.22108          432.75         74.3726         488.526 
         1.2272         426.948         73.5353         485.816 
        1.23334         425.777         72.7092         482.461 
        1.23949         421.298         71.8939         479.931 
        1.24562         420.933         71.0935         477.762 
        1.25174         417.024         70.3066         475.489 
        1.25789         413.823         69.5293         472.902 
        1.26402         411.098         68.7653         470.586 
        1.27014         408.711         68.0147         466.644 
        1.27628         404.712         67.2731         465.515 
        1.28244         402.226         66.5413           463.5 
        1.28858         400.025         65.8214         460.376 
        1.29471         398.375         65.1139         457.888 
        1.30084         395.409         64.4176         454.582 
        1.30697           391.5         63.7305         452.609 
        1.31312         389.231         63.0525         450.724 
        1.31925         386.307         62.3866         447.702 
        1.32537         384.515         61.7311          445.18 
        1.33151         380.752         61.0827         443.742 
        1.33765         377.963         60.4441         441.568 
        1.34378         375.723          59.816         437.807 
        1.34992         372.597         59.1965         435.146 
        1.35606         370.033         58.5845         433.369 
         1.3622         368.316         57.9824         431.789 
        1.36833         366.826         57.3902         429.687 
        1.37445         364.273         56.8066         426.875 
        1.38059          360.24         56.2295         425.023 
        1.38675         358.429         55.6591         423.406 
        1.39288         356.206         55.0989         420.318 
        1.39901         353.646         54.5468         417.661 
        1.40515         351.866          54.001         415.091 
         1.4113         349.284          53.463         412.859 
        1.41742         346.048         52.9344         411.318 
        1.42355         344.933         52.4121         409.302 
         1.4297         342.955         51.8953         406.592 
        1.43585         338.229         51.3857          405.22 
        1.44198         337.988          50.885         403.108 
        1.44809         335.589          50.392         401.082 
        1.45423          332.48         49.9037         397.689 
        1.46036         331.142         49.4229         396.143 
        1.46649         328.872         48.9483         394.417 
        1.47263         325.555         48.4796         391.532 
        1.47877         324.706         48.0172         389.625 
        1.48491         321.281         47.5603         387.352 
        1.49104         318.751         47.1103         385.264 
        1.49718         316.896         46.6658          384.96 
        1.50333         315.227         46.2264         382.621 
        1.50947         313.717         45.7936         380.085 
         1.5156          310.02         45.3671         378.233 
        1.52172         308.574          44.946         376.112 
        1.52787         306.239         44.5294         374.132 
          1.534          305.35         44.1187         372.441 
        1.54013         302.642         43.7136         370.588 
        1.54627          300.38         43.3129         368.866 
        1.55241         299.133         42.9172         367.491 
        1.55855         296.237          42.527         365.899 
        1.56467         294.483         42.1428         363.109 
         1.5708         292.773         41.7623         360.828 
        1.57695         291.051          41.386         359.089 
        1.58308         289.704         41.0152         357.105 
        1.58922         287.294         40.6487         355.759 
        1.59535         284.289         40.2869         354.472 
         1.6015         283.314          39.929         353.056 
        1.60764         281.487         39.5757         350.924 
        1.61376         279.458         39.2277         348.662 
        1.61989         277.821         38.8836         347.275 
        1.62604         275.775         38.5429          345.15 
        1.63218         273.877         38.2065         343.482 
        1.63831         272.339         37.8749         342.265 
        1.64444         270.459         37.5472         339.974 
        1.65059         269.051         37.2226         338.558 
        1.65673          266.96         36.9022         337.265 
        1.66285         265.223         36.5866         335.242 
        1.66898         263.621         36.2745         332.906 
        1.67512         261.053         35.9655         331.917 
        1.68127         259.716         35.6598          330.53 
         1.6874         258.113         35.3584         328.715 
        1.69353         257.623         35.0607         327.396 
        1.69967         255.301         34.7657         325.505 
        1.70581         252.785         34.4743           323.8 
        1.71193         251.942         34.1874         322.464 
        1.71806         249.788         33.9031         320.807 
        1.72421         248.455         33.6215         319.021 
        1.73035         246.397         33.3435         317.218 
        1.73649         244.908         33.0687          315.63 
        1.74262          243.57         32.7972         314.518 
        1.74876         241.687         32.5286         312.921 
        1.75489         240.448         32.2636         311.371 
        1.76101         238.835         32.0017         310.291 
        1.76715         237.067         31.7423         308.836 
        1.77329         235.062         31.4856         307.441 
        1.77943         233.735         31.2315         306.005 
        1.78557         232.629         30.9807         304.234 
        1.79171          231.14         30.7326         302.724 
        1.79785         229.077         30.4872         301.325 
        1.80399         228.239         30.2445          299.76 
        1.81012         226.405         30.0049          298.68 
        1.81625         225.083         29.7679         297.352 
        1.82239         223.325         29.5332         295.658 
        1.82853         222.433         29.3011         294.464 
        1.83466         220.669         29.0717         293.138 
        1.84078         219.172         28.8451         291.651 
        1.84692         217.984         28.6206         290.559 
        1.85306         216.296         28.3981         289.184 
         1.8592         215.358         28.1784         287.633 
        1.86533         213.297         27.9612         286.405 
        1.87147         212.699          27.746         285.039 
        1.87761         210.923          27.533         283.842 
