# k  (h/Mpc)    Pcb(k)  (Mpc/h)^3    Pcb_linear(k) (Mpc/h)^3    Pcb_NL(k) (Mpc/h)^3   ShotnoiseSubtracted = false
     0.00783031         2889.84          2908.2          2908.2 
       0.013688         3625.98         3677.93         3677.93 
       0.019231         3765.97         3791.42         3791.42 
      0.0249154         3575.46         3571.09         3571.09 
      0.0312784         3155.47         3163.98         3163.98 
      0.0375637         2744.46         2760.84         2760.84 
      0.0433917         2457.32         2456.15         2456.15 
      0.0492413         2219.88         2229.04         2229.04 
      0.0555754         2052.75         2051.02         2051.02 
      0.0619321         1879.38         1907.63         1907.63 
       0.067871         1766.05         1776.92         1776.92 
      0.0738098         1629.96         1635.15         1635.15 
      0.0800417         1475.97         1475.35         1475.35 
      0.0862327         1314.94         1317.63         1317.63 
      0.0921407         1180.55            1182            1182 
      0.0982031         1073.89         1067.66         1067.66 
       0.104506         974.627         978.078         978.078 
       0.110769         912.247         913.887         913.887 
       0.116806         874.085         866.697         866.697 
       0.122832         824.071         824.689         824.689 
       0.129052          782.25           779.3           779.3 
       0.135211         738.449         729.134         729.134 
       0.141259         681.254         676.028         676.028 
       0.147318         623.849         622.919         622.919 
       0.153489         579.675         573.438         573.438 
       0.159709         543.723         531.522         531.522 
       0.165845         502.438         498.892         498.892 
       0.171974         487.556         473.703         473.703 
       0.178125         467.052         453.246         453.246 
       0.184229         441.944         434.815         434.815 
        0.19034         428.149          415.94          415.94 
       0.196428         408.866         395.632         395.632 
       0.202534         381.133         373.951         373.951 
       0.208729         366.208         351.741         351.741 
       0.214876         348.826         330.908         330.908 
       0.220989         324.324         312.488         312.488 
       0.227147         315.345         296.739         296.739 
        0.23329         303.106         283.641         283.641 
       0.239377         294.074         272.558         272.558 
       0.245482         280.826         262.471         262.471 
       0.251667         269.094         252.521         252.521 
       0.257832         263.848          242.39          242.39 
       0.263955         249.376         232.043         232.043 
       0.270079         239.319         221.641         221.641 
        0.27624         227.985         211.509         211.509 
       0.282372         220.218         202.133         202.133 
        0.28843         216.775          193.77          193.77 
       0.294538         207.081         186.277         186.277 
       0.300721         198.544         179.501         179.501 
        0.30691         194.946         173.285         173.285 
       0.313033         187.216         167.439         167.439 
       0.319153         183.758         161.712         161.712 
       0.325316         176.365         155.978         155.978 
        0.33145         170.747         150.326         150.326 
       0.337538         165.232         144.854         144.854 
       0.343633          160.04         139.622         139.622 
       0.349808         154.965         134.651         134.651 
       0.355968         150.567         130.062         130.062 
       0.362074         147.502         125.852         125.852 
       0.368217         143.846         121.902         121.902 
       0.374374          140.67         118.151         118.151 
       0.380519         134.734         114.545         114.545 
       0.386598         131.456         111.074         111.074 
       0.392688         127.694         107.676         107.676 
        0.39888         125.253         104.312         104.312 
       0.405048         122.295         101.081         101.081 
       0.411186         119.579         98.0043         98.0043 
       0.417313         116.382         95.0893         95.0893 
       0.423458         113.351         92.3245         92.3245 
       0.429607         111.304         89.7004         89.7004 
       0.435692         109.362         87.2262         87.2262 
       0.441815          105.74         84.8374         84.8374 
       0.447964         102.569         82.5198         82.5198 
       0.454126          100.72         80.2673         80.2673 
       0.460267         99.8559         78.0918         78.0918 
       0.466387         97.2969         75.9933         75.9933 
        0.47254          96.029         73.9568         73.9568 
       0.478662         92.7744         72.0088         72.0088 
       0.484765         91.1917         70.1475         70.1475 
       0.490885         88.8921         68.3577         68.3577 
       0.497035         88.0067         66.6296         66.6296 
       0.503198          85.857         64.9633         64.9633 
       0.509342         83.6838         63.3607         63.3607 
       0.515458         82.6562         61.8174         61.8174 
       0.521598         80.6605         60.3154         60.3154 
       0.527764         79.7114         58.8532         58.8532 
       0.533884         78.5748         57.4485         57.4485 
           0.54          76.656         56.0917         56.0917 
       0.546137          74.582         54.7762         54.7762 
       0.552299         73.4529         53.5001         53.5001 
       0.558452         72.0121         52.2693         52.2693 
       0.564573         71.5942         51.0857         51.0857 
       0.570708         69.4744         49.9379         49.9379 
       0.576825         68.7621         48.8296         48.8296 
       0.582926         67.8278         47.7577         47.7577 
       0.589034          66.556         46.7157         46.7157 
       0.595184          65.642         45.6974         45.6974 
       0.601379         63.9317         44.7023         44.7023 
       0.607522         63.0223         43.7454         43.7454 
       0.613639         62.2963         42.8215         42.8215 
       0.619772         61.1614         41.9231         41.9231 
       0.625918         60.1798         41.0496         41.0496 
       0.632068         59.5665         40.2013         40.2013 
       0.638161         58.3614         39.3848         39.3848 
         0.6443         57.7547         38.5853         38.5853 
       0.650464         56.4248         37.8053         37.8053 
       0.656582         56.1252         37.0527         37.0527 
       0.662703         55.4219         36.3205         36.3205 
       0.668861         54.0971         35.6043         35.6043 
       0.675024         53.7081         34.9072         34.9072 
       0.681124          53.095         34.2362         34.2362 
       0.687237         52.0283         33.5817         33.5817 
       0.693381         51.3676         32.9416         32.9416 
       0.699536         50.9698         32.3173         32.3173 
       0.705665         50.0679         31.7121         31.7121 
       0.711789         49.2691         31.1232         31.1232 
       0.717957         48.4657         30.5454         30.5454 
        0.72409          48.014         29.9857         29.9857 
       0.730186         47.7445         29.4437         29.4437 
       0.736317         46.8479         28.9123         28.9123 
       0.742472         46.3171         28.3922         28.3922 
       0.748622         45.5773         27.8856         27.8856 
        0.75476         44.6847         27.3926         27.3926 
       0.760888         44.6182         26.9125         26.9125 
       0.767043          43.804         26.4422         26.4422 
       0.773185         43.4041         25.9842         25.9842 
       0.779291         42.8552         25.5398         25.5398 
       0.785407         42.2025         25.1053         25.1053 
       0.791564         42.1175         24.6784         24.6784 
       0.797719          41.318         24.2617         24.2617 
       0.803834         41.0322         23.8573         23.8573 
       0.809972         40.4053         23.4609         23.4609 
       0.816124         39.9899         23.0727         23.0727 
       0.822261         39.5246         22.6945         22.6945 
       0.828378         39.2367          22.326          22.326 
       0.834502         38.7877         21.9655         21.9655 
       0.840667         38.4294         21.6107         21.6107 
       0.846816         37.6892         21.2649         21.2649 
       0.852925         37.5836         20.9289         20.9289 
       0.859047         37.2364         20.5995         20.5995 
       0.865192         36.6637         20.2762         20.2762 
       0.871341         36.2625         19.9598         19.9598 
       0.877463         35.9325         19.6516         19.6516 
       0.883569         35.7569         19.3508         19.3508 
       0.889708         35.2739         19.0548         19.0548 
       0.895864         34.8591         18.7644         18.7644 
       0.902008         34.4531         18.4807         18.4807 
       0.908149         34.1635         18.2031         18.2031 
       0.914301          33.941         17.9308         17.9308 
       0.920448         33.5244         17.6644         17.6644 
       0.926574          33.091         17.4044         17.4044 
       0.932687         32.8153         17.1503         17.1503 
       0.938823         32.4213         16.9004         16.9004 
       0.944975         32.1574         16.6549         16.6549 
       0.951105         31.8718         16.4153         16.4153 
       0.957225         31.6931         16.1809         16.1809 
       0.963368         31.2359         15.9503         15.9503 
       0.969511         30.9941         15.7242         15.7242 
       0.975621          30.724         15.5038         15.5038 
       0.981748         30.3684         15.2871         15.2871 
       0.987916         30.1884         15.0733         15.0733 
        0.99406         29.8284         14.8643         14.8643 
        1.00019         29.6377         14.6598         14.6598 
        1.00632         29.3737         14.4594         14.4594 
        1.01246         29.1501         14.2624         14.2624 
        1.01859         28.8083         14.0695         14.0695 
        1.02471         28.5462         13.8804         13.8804 
        1.03085         28.4393         13.6942         13.6942 
        1.03698         28.1855         13.5118         13.5118 
        1.04314         27.8921          13.332          13.332 
        1.04929         27.5782          13.156          13.156 
        1.05541         27.4751         12.9839         12.9839 
        1.06154         27.2987         12.8144         12.8144 
        1.06769         26.9214         12.6478         12.6478 
        1.07382         26.7112         12.4847         12.4847 
        1.07993          26.477         12.3248         12.3248 
        1.08607         26.3279         12.1672         12.1672 
        1.09222         26.0857         12.0121         12.0121 
        1.09836         25.8705           11.86           11.86 
        1.10449         25.7133         11.7107         11.7107 
        1.11063         25.5099         11.5639         11.5639 
        1.11677         25.4171         11.4196         11.4196 
         1.1229         25.1447         11.2781         11.2781 
        1.12903         24.9513         11.1389         11.1389 
        1.13518         24.7824         11.0019         11.0019 
        1.14131         24.6013         10.8673         10.8673 
        1.14745         24.2869         10.7351         10.7351 
        1.15359          24.085         10.6051         10.6051 
        1.15973         23.9294         10.4772         10.4772 
        1.16584         23.7549          10.352          10.352 
        1.17197         23.5093         10.2287         10.2287 
        1.17811         23.3928         10.1071         10.1071 
        1.18424         23.1876          9.9878          9.9878 
        1.19038         23.0849          9.8701          9.8701 
        1.19652         22.8589         9.75436         9.75436 
        1.20267         22.7451          9.6405          9.6405 
        1.20881         22.5363          9.5285          9.5285 
        1.21495         22.3934         9.41847         9.41847 
        1.22108         22.3397         9.31021         9.31021 
         1.2272         22.1531         9.20393         9.20393 
        1.23334         21.9913         9.09908         9.09908 
        1.23949         21.8117         8.99563         8.99563 
        1.24562         21.5929         8.89409         8.89409 
        1.25174         21.5152         8.79429         8.79429 
        1.25789         21.3791         8.69573         8.69573 
        1.26402         21.2611         8.59887         8.59887 
        1.27014         21.1236         8.50374         8.50374 
        1.27628         20.8944         8.40977         8.40977 
        1.28244          20.886         8.31706         8.31706 
        1.28858         20.6515         8.22588         8.22588 
        1.29471         20.4509         8.13628         8.13628 
        1.30084         20.3305         8.04811         8.04811 
        1.30697         20.2748         7.96112         7.96112 
        1.31312         20.0811          7.8753          7.8753 
        1.31925         19.9747         7.79103         7.79103 
        1.32537         19.8205         7.70808         7.70808 
        1.33151         19.6975         7.62605         7.62605 
        1.33765          19.627         7.54528         7.54528 
        1.34378         19.5075         7.46584         7.46584 
        1.34992         19.3582         7.38751         7.38751 
        1.35606         19.1944         7.31013         7.31013 
         1.3622         19.0505         7.23402         7.23402 
        1.36833         19.0136         7.15918         7.15918 
        1.37445         18.9014         7.08544         7.08544 
        1.38059         18.7714         7.01253         7.01253 
        1.38675         18.6279         6.94048         6.94048 
        1.39288         18.4907         6.86974         6.86974 
        1.39901          18.408         6.80002         6.80002 
        1.40515          18.291         6.73113         6.73113 
         1.4113         18.1873         6.66322         6.66322 
        1.41742         18.1058         6.59651         6.59651 
        1.42355         17.9403          6.5306          6.5306 
         1.4297         17.8458          6.4654          6.4654 
        1.43585         17.7541         6.40113         6.40113 
        1.44198         17.6811         6.33798         6.33798 
        1.44809         17.5566         6.27581         6.27581 
        1.45423         17.4423         6.21425         6.21425 
        1.46036         17.3453         6.15363         6.15363 
        1.46649         17.2365         6.09381         6.09381 
        1.47263         17.1611         6.03474         6.03474 
        1.47877         17.0701         5.97649         5.97649 
        1.48491         16.9586         5.91892         5.91892 
        1.49104         16.8505         5.86224         5.86224 
        1.49718         16.7785         5.80627         5.80627 
        1.50333          16.694         5.75094         5.75094 
        1.50947         16.6019         5.69645         5.69645 
         1.5156          16.514         5.64276         5.64276 
        1.52172          16.397         5.58977         5.58977 
        1.52787         16.3203         5.53735         5.53735 
          1.534         16.2569         5.48567         5.48567 
        1.54013         16.1712         5.43472         5.43472 
        1.54627         16.0409         5.38432         5.38432 
        1.55241         15.9338         5.33456         5.33456 
        1.55855         15.8856          5.2855          5.2855 
        1.56467         15.8199          5.2372          5.2372 
         1.5708         15.7457         5.18937         5.18937 
        1.57695         15.6371         5.14206         5.14206 
        1.58308         15.5168         5.09546         5.09546 
        1.58922         15.4662         5.04941         5.04941 
        1.59535         15.3728         5.00395         5.00395 
         1.6015         15.2491         4.95899         4.95899 
        1.60764          15.201         4.91461         4.91461 
        1.61376         15.1501          4.8709          4.8709 
        1.61989         15.0298         4.82769         4.82769 
        1.62604         14.9926         4.78491         4.78491 
        1.63218         14.9206         4.74267         4.74267 
        1.63831         14.8034         4.70105         4.70105 
        1.64444         14.7259         4.65992         4.65992 
        1.65059         14.6438         4.61919         4.61919 
        1.65673         14.6081         4.57899         4.57899 
        1.66285         14.4936         4.53938         4.53938 
        1.66898         14.4685         4.50024         4.50024 
        1.67512         14.4053         4.46148         4.46148 
        1.68127          14.275         4.42314         4.42314 
         1.6874         14.2521         4.38535         4.38535 
        1.69353         14.1252         4.34802         4.34802 
        1.69967         14.0716         4.31105         4.31105 
        1.70581          14.024         4.27452         4.27452 
        1.71193         13.9433         4.23855         4.23855 
        1.71806          13.894         4.20293         4.20293 
        1.72421         13.8034         4.16764         4.16764 
        1.73035         13.7367         4.13281         4.13281 
        1.73649         13.6997         4.09838         4.09838 
        1.74262         13.5696         4.06438         4.06438 
        1.74876         13.5566         4.03074         4.03074 
        1.75489         13.4921         3.99755         3.99755 
        1.76101         13.3976         3.96475         3.96475 
        1.76715         13.3565         3.93227         3.93227 
        1.77329         13.2864         3.90013         3.90013 
        1.77943          13.195         3.86833         3.86833 
        1.78557         13.1828         3.83693         3.83693 
        1.79171         13.0911         3.80588         3.80588 
        1.79785           13.06         3.77517         3.77517 
        1.80399         12.9588         3.74481         3.74481 
        1.81012         12.9287         3.71482         3.71482 
        1.81625         12.8339         3.68518         3.68518 
        1.82239         12.7812         3.65582         3.65582 
        1.82853         12.7202          3.6268          3.6268 
        1.83466         12.6383         3.59812         3.59812 
        1.84078         12.6171         3.56979         3.56979 
        1.84692         12.5824         3.54171         3.54171 
        1.85306          12.512         3.51391         3.51391 
         1.8592         12.4618         3.48645         3.48645 
        1.86533         12.3687          3.4593          3.4593 
        1.87147         12.3167         3.43241         3.43241 
