# k  (h/Mpc)    P(k)  (Mpc/h)^3    P_linear(k)  (Mpc/h)^3     P_NL(k)  ShotnoiseSubtracted = false
     0.00783031          4252.2         4277.67         4277.67 
       0.013688         5321.95         5409.24         5409.24 
       0.019231         5530.73         5575.87         5575.87 
      0.0249154         5259.14         5251.69         5251.69 
      0.0312784         4634.39         4652.91         4652.91 
      0.0375637          4026.9         4060.01         4060.01 
      0.0433917          3609.4         3611.92         3611.92 
      0.0492413         3257.71         3277.93         3277.93 
      0.0555754         3014.23         3016.13         3016.13 
      0.0619321         2751.14         2805.25         2805.25 
       0.067871         2588.96         2613.04         2613.04 
      0.0738098         2391.75         2404.55         2404.55 
      0.0800417         2166.56         2169.55         2169.55 
      0.0862327         1929.89         1937.63         1937.63 
      0.0921407         1734.17         1738.18         1738.18 
      0.0982031         1579.97         1570.03         1570.03 
       0.104506         1432.15         1438.29         1438.29 
       0.110769         1341.11          1343.9          1343.9 
       0.116806         1287.38          1274.5          1274.5 
       0.122832         1212.11         1212.73         1212.73 
       0.129052         1150.54         1145.98         1145.98 
       0.135211         1089.39         1072.21         1072.21 
       0.141259          1004.3         994.117         994.117 
       0.147318         919.324          916.02          916.02 
       0.153489         856.203         843.255         843.255 
       0.159709         806.541         781.618         781.618 
       0.165845         743.458         733.634         733.634 
       0.171974         724.177         696.593         696.593 
       0.178125         694.933         666.511         666.511 
       0.184229         654.617         639.406         639.406 
        0.19034          635.91          611.65          611.65 
       0.196428         608.924         581.786         581.786 
       0.202534          566.83         549.904         549.904 
       0.208729         547.511         517.244         517.244 
       0.214876         522.251         486.608         486.608 
       0.220989         485.811         459.521         459.521 
       0.227147         473.735         436.363         436.363 
        0.23329         455.938         417.102         417.102 
       0.239377          444.21         400.803         400.803 
       0.245482         423.397         385.969         385.969 
       0.251667         406.137         371.339         371.339 
       0.257832         399.697         356.441         356.441 
       0.263955         377.287         341.225         341.225 
       0.270079         362.703         325.928         325.928 
        0.27624         346.013         311.029         311.029 
       0.282372           335.6         297.242         297.242 
        0.28843          331.78         284.944         284.944 
       0.294538         316.192         273.924         273.924 
       0.300721         304.054         263.961         263.961 
        0.30691         299.094          254.82          254.82 
       0.313033         286.821         246.222         246.222 
       0.319153          281.64         237.802         237.802 
       0.325316         272.272          229.37          229.37 
        0.33145         264.428         221.058         221.058 
       0.337538         255.565         213.011         213.011 
       0.343633         247.395         205.318         205.318 
       0.349808          240.18         198.007         198.007 
       0.355968         234.237          191.26          191.26 
       0.362074         228.966         185.068         185.068 
       0.368217         224.498          179.26          179.26 
       0.374374         219.425         173.744         173.744 
       0.380519         210.345         168.441         168.441 
       0.386598         206.117         163.338         163.338 
       0.392688         200.616         158.339         158.339 
        0.39888         196.526         153.393         153.393 
       0.405048          192.28         148.641         148.641 
       0.411186         189.177         144.118         144.118 
       0.417313         184.591         139.831         139.831 
       0.423458         179.904         135.765         135.765 
       0.429607         176.345         131.906         131.906 
       0.435692         173.164         128.268         128.268 
       0.441815         168.635         124.755         124.755 
       0.447964         163.666         121.347         121.347 
       0.454126          160.75         118.035         118.035 
       0.460267         159.327         114.836         114.836 
       0.466387         155.747          111.75          111.75 
        0.47254         153.875         108.755         108.755 
       0.478662         148.718         105.891         105.891 
       0.484765         146.652         103.154         103.154 
       0.490885         143.674         100.522         100.522 
       0.497035         142.458         97.9804         97.9804 
       0.503198         139.361         95.5301         95.5301 
       0.509342         135.811         93.1733         93.1733 
       0.515458         134.223          90.904          90.904 
       0.521598         130.973         88.6951         88.6951 
       0.527764         129.602          86.545          86.545 
       0.533884         128.646         84.4794         84.4794 
           0.54         125.223         82.4842         82.4842 
       0.546137         122.251         80.5497         80.5497 
       0.552299         120.689         78.6732         78.6732 
       0.558452         118.449         76.8632         76.8632 
       0.564573         117.926         75.1226         75.1226 
       0.570708         114.582         73.4348         73.4348 
       0.576825         113.363          71.805          71.805 
       0.582926         112.114         70.2288         70.2288 
       0.589034         110.226         68.6966         68.6966 
       0.595184         108.904          67.199          67.199 
       0.601379         106.216         65.7358         65.7358 
       0.607522         104.671         64.3286         64.3286 
       0.613639         103.721           62.97           62.97 
       0.619772         101.996         61.6489         61.6489 
       0.625918         100.904         60.3644         60.3644 
       0.632068          99.237         59.1169         59.1169 
       0.638161          97.548         57.9162         57.9162 
         0.6443         96.9825         56.7406         56.7406 
       0.650464         94.9787         55.5936         55.5936 
       0.656582         94.5883         54.4868         54.4868 
       0.662703         93.3383         53.4102         53.4102 
       0.668861         91.3108          52.357          52.357 
       0.675024         91.1227         51.3319         51.3319 
       0.681124         89.7117          50.345          50.345 
       0.687237         87.9638         49.3826         49.3826 
       0.693381         87.4572         48.4413         48.4413 
       0.699536         86.4151         47.5233         47.5233 
       0.705665         85.0452         46.6333         46.6333 
       0.711789          83.873         45.7673         45.7673 
       0.717957         82.8524         44.9177         44.9177 
        0.72409         82.1698         44.0947         44.0947 
       0.730186         81.6069         43.2976         43.2976 
       0.736317         80.1411         42.5161         42.5161 
       0.742472          79.254         41.7514         41.7514 
       0.748622         78.0406         41.0064         41.0064 
        0.75476         77.2692         40.2815         40.2815 
       0.760888         77.0177         39.5755         39.5755 
       0.767043         75.5372         38.8838         38.8838 
       0.773185         74.7212         38.2103         38.2103 
       0.779291         73.8614         37.5569         37.5569 
       0.785407         72.8333          36.918          36.918 
       0.791564         72.8272         36.2901         36.2901 
       0.797719         71.8086         35.6773         35.6773 
       0.803834         71.1103         35.0828         35.0828 
       0.809972         70.4524         34.4998         34.4998 
       0.816124         69.6755          33.929          33.929 
       0.822261         68.7476         33.3728         33.3728 
       0.828378         68.5034         32.8309         32.8309 
       0.834502          67.524         32.3008         32.3008 
       0.840667          67.085         31.7791         31.7791 
       0.846816         66.2146         31.2705         31.2705 
       0.852925         65.7207         30.7764         30.7764 
       0.859047         65.4069          30.292          30.292 
       0.865192         64.3102         29.8167         29.8167 
       0.871341         63.6493         29.3513         29.3513 
       0.877463         63.2282         28.8981         28.8981 
       0.883569         62.9866         28.4558         28.4558 
       0.889708         62.3159         28.0206         28.0206 
       0.895864         61.7218         27.5934         27.5934 
       0.902008          61.077         27.1762         27.1762 
       0.908149         60.5361          26.768          26.768 
       0.914301          60.138         26.3676         26.3676 
       0.920448         59.7687         25.9759         25.9759 
       0.926574         58.6611         25.5936         25.5936 
       0.932687         58.3826         25.2199         25.2199 
       0.938823         57.8231         24.8524         24.8524 
       0.944975         57.2219         24.4915         24.4915 
       0.951105         56.7838         24.1391         24.1391 
       0.957225         56.5761         23.7944         23.7944 
       0.963368         55.9522         23.4553         23.4553 
       0.969511         55.4772         23.1229         23.1229 
       0.975621         55.0749         22.7987         22.7987 
       0.981748          54.477         22.4801         22.4801 
       0.987916         54.0996         22.1656         22.1656 
        0.99406         53.6717         21.8583         21.8583 
        1.00019          53.213         21.5576         21.5576 
        1.00632         52.8172         21.2628         21.2628 
        1.01246         52.4119         20.9732         20.9732 
        1.01859         52.0555         20.6895         20.6895 
        1.02471         51.4607         20.4115         20.4115 
        1.03085          51.245         20.1376         20.1376 
        1.03698         50.8673         19.8694         19.8694 
        1.04314         50.5114         19.6051         19.6051 
        1.04929         49.9531         19.3462         19.3462 
        1.05541         49.7383          19.093          19.093 
        1.06154         49.4707         18.8439         18.8439 
        1.06769         48.7383         18.5988         18.5988 
        1.07382         48.5798          18.359          18.359 
        1.07993         48.2166          18.124          18.124 
        1.08607         47.8552         17.8921         17.8921 
        1.09222         47.6045         17.6641         17.6641 
        1.09836           47.17         17.4404         17.4404 
        1.10449          46.947         17.2209         17.2209 
        1.11063         46.4883         17.0049         17.0049 
        1.11677         46.4336         16.7928         16.7928 
         1.1229         45.9215         16.5847         16.5847 
        1.12903         45.7092         16.3799         16.3799 
        1.13518         45.5707         16.1785         16.1785 
        1.14131          45.054         15.9807         15.9807 
        1.14745         44.6103         15.7862         15.7862 
        1.15359          44.225         15.5951         15.5951 
        1.15973         44.1062          15.407          15.407 
        1.16584         43.7975         15.2229         15.2229 
        1.17197         43.2656         15.0416         15.0416 
        1.17811         43.1179         14.8627         14.8627 
        1.18424         42.5855         14.6873         14.6873 
        1.19038         42.4862         14.5142         14.5142 
        1.19652         42.2533          14.344          14.344 
        1.20267         42.0042         14.1766         14.1766 
        1.20881            41.7         14.0119         14.0119 
        1.21495         41.4971         13.8501         13.8501 
        1.22108         41.3493         13.6909         13.6909 
         1.2272         41.0154         13.5346         13.5346 
        1.23334         40.7391         13.3804         13.3804 
        1.23949         40.4609         13.2283         13.2283 
        1.24562          40.111          13.079          13.079 
        1.25174         39.8951         12.9322         12.9322 
        1.25789         39.8525         12.7873         12.7873 
        1.26402          39.535         12.6448         12.6448 
        1.27014         39.2809         12.5049         12.5049 
        1.27628         38.9057         12.3668         12.3668 
        1.28244           38.85         12.2304         12.2304 
        1.28858         38.5082         12.0963         12.0963 
        1.29471         38.3098         11.9646         11.9646 
        1.30084         37.9941         11.8349         11.8349 
        1.30697          37.871          11.707          11.707 
        1.31312         37.5434         11.5808         11.5808 
        1.31925          37.272         11.4569         11.4569 
        1.32537         37.0886         11.3349         11.3349 
        1.33151         36.8489         11.2143         11.2143 
        1.33765         36.7377         11.0955         11.0955 
        1.34378         36.5689         10.9787         10.9787 
        1.34992         36.2823         10.8635         10.8635 
        1.35606         36.0818         10.7497         10.7497 
         1.3622         35.8152         10.6378         10.6378 
        1.36833          35.663         10.5277         10.5277 
        1.37445         35.4108         10.4193         10.4193 
        1.38059         35.2485         10.3121         10.3121 
        1.38675         34.9303         10.2061         10.2061 
        1.39288         34.8482         10.1021         10.1021 
        1.39901         34.6049         9.99959         9.99959 
        1.40515         34.4479         9.89827         9.89827 
         1.4113          34.398         9.79841         9.79841 
        1.41742         34.1746         9.70032         9.70032 
        1.42355         33.8464          9.6034          9.6034 
         1.4297         33.6602         9.50752         9.50752 
        1.43585         33.4426           9.413           9.413 
        1.44198         33.3228         9.32014         9.32014 
        1.44809         33.1243         9.22872         9.22872 
        1.45423         32.9949         9.13819         9.13819 
        1.46036         32.8079         9.04905         9.04905 
        1.46649         32.6289         8.96108         8.96108 
        1.47263         32.4036         8.87422         8.87422 
        1.47877         32.2841         8.78856         8.78856 
        1.48491         32.1534         8.70391         8.70391 
        1.49104         31.8929         8.62056         8.62056 
        1.49718         31.7997         8.53825         8.53825 
        1.50333         31.6917         8.45689         8.45689 
        1.50947         31.4429         8.37676         8.37676 
         1.5156         31.2903         8.29781         8.29781 
        1.52172         31.0626         8.21987         8.21987 
        1.52787         30.9339          8.1428          8.1428 
          1.534         30.7941         8.06681         8.06681 
        1.54013         30.7022         7.99187         7.99187 
        1.54627         30.4189         7.91776         7.91776 
        1.55241         30.3011         7.84459         7.84459 
        1.55855         30.1911         7.77244         7.77244 
        1.56467         30.0868         7.70141         7.70141 
         1.5708         29.8876         7.63108         7.63108 
        1.57695         29.7474         7.56152         7.56152 
        1.58308         29.4822         7.49299         7.49299 
        1.58922         29.3387         7.42527         7.42527 
        1.59535         29.2557         7.35842         7.35842 
         1.6015         29.1232         7.29231         7.29231 
        1.60764         28.9907         7.22704         7.22704 
        1.61376         28.8188         7.16276         7.16276 
        1.61989         28.6145         7.09922         7.09922 
        1.62604         28.5153         7.03631         7.03631 
        1.63218         28.3877         6.97421         6.97421 
        1.63831         28.2601         6.91301         6.91301 
        1.64444         28.1095         6.85252         6.85252 
        1.65059         27.9624         6.79262         6.79262 
        1.65673         27.8599          6.7335          6.7335 
        1.66285         27.7296         6.67526         6.67526 
        1.66898         27.5615          6.6177          6.6177 
        1.67512         27.4992          6.5607          6.5607 
        1.68127         27.3436         6.50433         6.50433 
         1.6874         27.2032         6.44876         6.44876 
        1.69353         27.0724         6.39387         6.39387 
        1.69967         26.9391         6.33949         6.33949 
        1.70581         26.7477         6.28577         6.28577 
        1.71193         26.5923         6.23289         6.23289 
        1.71806         26.5552          6.1805          6.1805 
        1.72421         26.4582         6.12861         6.12861 
        1.73035         26.2764         6.07739         6.07739 
        1.73649         26.1324         6.02676         6.02676 
        1.74262         25.9915         5.97675         5.97675 
        1.74876         25.8838         5.92729         5.92729 
        1.75489         25.7834         5.87849         5.87849 
        1.76101         25.6719         5.83025         5.83025 
        1.76715         25.5715          5.7825          5.7825 
        1.77329         25.3968         5.73522         5.73522 
        1.77943         25.3376         5.68846         5.68846 
        1.78557         25.2104         5.64229         5.64229 
        1.79171         25.0678         5.59663         5.59663 
        1.79785         24.9609         5.55147         5.55147 
        1.80399         24.8492         5.50682         5.50682 
        1.81012         24.7692         5.46273         5.46273 
        1.81625         24.5887         5.41914         5.41914 
        1.82239         24.5026         5.37597         5.37597 
        1.82853         24.3898         5.33329         5.33329 
        1.83466         24.2605         5.29112         5.29112 
        1.84078         24.1671         5.24945         5.24945 
        1.84692         24.0988         5.20817         5.20817 
        1.85306          23.939         5.16728         5.16728 
         1.8592          23.878          5.1269          5.1269 
        1.86533         23.6764         5.08697         5.08697 
        1.87147         23.5833         5.04743         5.04743 
        1.87761         23.5094         5.00829         5.00829 
