# k  (h/Mpc)    Pcb(k)  (Mpc/h)^3    Pcb_linear(k) (Mpc/h)^3    Pcb_NL(k) (Mpc/h)^3   ShotnoiseSubtracted = false
     0.00783031         9951.77         10002.4         10002.4 
       0.013688         12362.3         12644.8         12644.8 
       0.019231         12866.4         13032.7         13032.7 
      0.0249154           12286         12274.1         12274.1 
      0.0312784         10774.3         10874.2         10874.2 
      0.0375637         9335.57         9488.26         9488.26 
      0.0433917         8388.99         8440.92         8440.92 
      0.0492413         7552.73         7660.28         7660.28 
      0.0555754         6991.89          7048.4          7048.4 
      0.0619321         6327.92         6555.55         6555.55 
       0.067871         5972.33         6106.33         6106.33 
      0.0738098         5536.43          5619.1          5619.1 
      0.0800417         5016.06         5069.92         5069.92 
      0.0862327         4470.04         4527.93         4527.93 
      0.0921407         4031.47         4061.83         4061.83 
      0.0982031         3690.22          3668.9          3668.9 
       0.104506         3337.64         3361.05         3361.05 
       0.110769         3129.13         3140.45         3140.45 
       0.116806         3013.15         2978.29         2978.29 
       0.122832         2833.49         2833.93         2833.93 
       0.129052         2682.03         2677.95         2677.95 
       0.135211          2564.4         2505.56         2505.56 
       0.141259         2360.45         2323.06         2323.06 
       0.147318            2166         2140.56         2140.56 
       0.153489         2030.58         1970.53         1970.53 
       0.159709         1937.52         1826.49         1826.49 
       0.165845         1779.67         1714.36         1714.36 
       0.171974         1742.95          1627.8          1627.8 
       0.178125         1684.98          1557.5          1557.5 
       0.184229         1566.85         1494.17         1494.17 
        0.19034         1534.64          1429.3          1429.3 
       0.196428          1481.6         1359.52         1359.52 
       0.202534         1381.56         1285.02         1285.02 
       0.208729         1348.49          1208.7          1208.7 
       0.214876         1287.34         1137.11         1137.11 
       0.220989         1210.72         1073.81         1073.81 
       0.227147         1182.45         1019.69         1019.69 
        0.23329         1139.01         974.682         974.682 
       0.239377         1125.54         936.596         936.596 
       0.245482         1071.63         901.932         901.932 
       0.251667         1031.41         867.741         867.741 
       0.257832         1017.83         832.929         832.929 
       0.263955         965.573         797.374         797.374 
       0.270079         934.835         761.627         761.627 
        0.27624          894.83         726.812         726.812 
       0.282372         878.712         694.592         694.592 
        0.28843         869.296         665.854         665.854 
       0.294538         826.261         640.105         640.105 
       0.300721         805.277         616.822         616.822 
        0.30691         790.779         595.462         595.462 
       0.313033         757.798         575.371         575.371 
       0.319153         746.732         555.693         555.693 
       0.325316         734.946          535.99          535.99 
        0.33145         718.887         516.568         516.568 
       0.337538         693.509         497.763         497.763 
       0.343633         674.212         479.785         479.785 
       0.349808         659.105         462.703         462.703 
       0.355968         646.855         446.934         446.934 
       0.362074         626.096         432.467         432.467 
       0.368217         622.977         418.892         418.892 
       0.374374         612.268         406.004         406.004 
       0.380519         588.913         393.612         393.612 
       0.386598           582.9         381.685         381.685 
       0.392688          570.19         370.006         370.006 
        0.39888         555.336         358.447         358.447 
       0.405048         545.736         347.344         347.344 
       0.411186          543.59         336.773         336.773 
       0.417313         537.488         326.756         326.756 
       0.423458         521.627         317.255         317.255 
       0.429607         507.807         308.238         308.238 
       0.435692          500.57         299.736         299.736 
       0.441815         492.629         291.527         291.527 
       0.447964         482.404         283.563         283.563 
       0.454126         476.829         275.823         275.823 
       0.460267          469.21         268.347         268.347 
       0.466387         461.655         261.136         261.136 
        0.47254         454.737         254.138         254.138 
       0.478662         445.191         247.444         247.444 
       0.484765         440.465         241.048         241.048 
       0.490885         436.045         234.898         234.898 
       0.497035         427.549          228.96          228.96 
       0.503198         426.664         223.234         223.234 
       0.509342          416.63         217.727         217.727 
       0.515458         409.891         212.424         212.424 
       0.521598         403.678         207.262         207.262 
       0.527764         397.624         202.238         202.238 
       0.533884         395.863         197.411         197.411 
           0.54          390.08         192.748         192.748 
       0.546137         382.028         188.228         188.228 
       0.552299         381.244         183.843         183.843 
       0.558452         375.036         179.613         179.613 
       0.564573         371.423         175.546         175.546 
       0.570708         366.628         171.602         171.602 
       0.576825         359.981         167.793         167.793 
       0.582926         357.518          164.11          164.11 
       0.589034          352.32         160.529         160.529 
       0.595184         349.926          157.03          157.03 
       0.601379         344.123         153.611         153.611 
       0.607522         337.835         150.323         150.323 
       0.613639         336.263         147.148         147.148 
       0.619772          334.82          144.06          144.06 
       0.625918         329.294         141.059         141.059 
       0.632068         325.342         138.144         138.144 
       0.638161         322.523         135.338         135.338 
         0.6443         319.672         132.591         132.591 
       0.650464         314.899         129.911         129.911 
       0.656582         312.075         127.324         127.324 
       0.662703         309.907         124.808         124.808 
       0.668861         304.737         122.347         122.347 
       0.675024         303.276         119.952         119.952 
       0.681124         299.703         117.646         117.646 
       0.687237         297.273         115.397         115.397 
       0.693381         293.632         113.197         113.197 
       0.699536         291.288         111.052         111.052 
       0.705665          288.26         108.972         108.972 
       0.711789         286.022         106.949         106.949 
       0.717957         282.701         104.963         104.963 
        0.72409         279.593          103.04          103.04 
       0.730186         281.083         101.177         101.177 
       0.736317         276.043         99.3513         99.3513 
       0.742472         272.885         97.5642         97.5642 
       0.748622         269.536         95.8234         95.8234 
        0.75476          269.79         94.1294         94.1294 
       0.760888         266.418         92.4795         92.4795 
       0.767043         263.312         90.8632         90.8632 
       0.773185         261.879         89.2895         89.2895 
       0.779291          257.93         87.7625         87.7625 
       0.785407         257.022         86.2695         86.2695 
       0.791564         254.547         84.8023         84.8023 
       0.797719          250.63         83.3704         83.3704 
       0.803834         252.376          81.981          81.981 
       0.809972         249.053         80.6188         80.6188 
       0.816124         245.661         79.2849         79.2849 
       0.822261         243.567         77.9852         77.9852 
       0.828378          243.36          76.719          76.719 
       0.834502         239.697         75.4801         75.4801 
       0.840667         239.617          74.261          74.261 
       0.846816         235.561         73.0725         73.0725 
       0.852925         234.985         71.9179         71.9179 
       0.859047         232.569         70.7861         70.7861 
       0.865192         232.211         69.6753         69.6753 
       0.871341         228.972         68.5878         68.5878 
       0.877463         227.117         67.5288         67.5288 
       0.883569         226.719         66.4952         66.4952 
       0.889708         224.493         65.4781         65.4781 
       0.895864         222.607           64.48           64.48 
       0.902008         220.482         63.5051         63.5051 
       0.908149         218.684         62.5512         62.5512 
       0.914301         217.631         61.6155         61.6155 
       0.920448         216.932         60.7002         60.7002 
       0.926574          214.37         59.8068         59.8068 
       0.932687          213.42         58.9335         58.9335 
       0.938823         211.662         58.0748         58.0748 
       0.944975         210.382         57.2314         57.2314 
       0.951105         208.336          56.408          56.408 
       0.957225         207.038         55.6024         55.6024 
       0.963368         206.077           54.81           54.81 
       0.969511         203.055         54.0332         54.0332 
       0.975621         201.892         53.2759         53.2759 
       0.981748         200.807         52.5312         52.5312 
       0.987916         199.937         51.7963         51.7963 
        0.99406         198.226         51.0783         51.0783 
        1.00019         197.013         50.3755         50.3755 
        1.00632          196.13         49.6867         49.6867 
        1.01246          194.47           49.01           49.01 
        1.01859         192.711          48.347          48.347 
        1.02471         191.238         47.6973         47.6973 
        1.03085         190.171         47.0574         47.0574 
        1.03698         188.824         46.4307         46.4307 
        1.04314         188.482         45.8129         45.8129 
        1.04929         187.193         45.2079         45.2079 
        1.05541         185.765         44.6164         44.6164 
        1.06154         184.194         44.0342         44.0342 
        1.06769         182.915         43.4615         43.4615 
        1.07382         182.409         42.9011         42.9011 
        1.07993         180.495         42.3518         42.3518 
        1.08607         179.427         41.8101         41.8101 
        1.09222         178.315         41.2773         41.2773 
        1.09836         177.419         40.7546         40.7546 
        1.10449         175.778         40.2416         40.2416 
        1.11063         174.699         39.7369         39.7369 
        1.11677         173.983         39.2412         39.2412 
         1.1229         172.532         38.7549         38.7549 
        1.12903         171.769         38.2765         38.2765 
        1.13518         170.429         37.8058         37.8058 
        1.14131         169.516         37.3434         37.3434 
        1.14745         168.113         36.8891         36.8891 
        1.15359         166.556         36.4424         36.4424 
        1.15973         166.289         36.0029         36.0029 
        1.16584         165.426         35.5727         35.5727 
        1.17197         164.388          35.149          35.149 
        1.17811         162.784          34.731          34.731 
        1.18424         162.035         34.3211         34.3211 
        1.19038         161.004         33.9166         33.9166 
        1.19652         159.803         33.5189         33.5189 
        1.20267         158.919         33.1277         33.1277 
        1.20881         157.755         32.7428         32.7428 
        1.21495         157.418         32.3647         32.3647 
        1.22108         156.146         31.9927         31.9927 
         1.2272         154.955         31.6275         31.6275 
        1.23334         154.386         31.2672         31.2672 
        1.23949         153.799         30.9117         30.9117 
        1.24562         152.524         30.5628         30.5628 
        1.25174         151.468         30.2198         30.2198 
        1.25789         150.436         29.8811         29.8811 
        1.26402         150.226         29.5483         29.5483 
        1.27014         149.113         29.2214         29.2214 
        1.27628         147.492         28.8985         28.8985 
        1.28244         147.195         28.5799         28.5799 
        1.28858         146.058         28.2666         28.2666 
        1.29471         145.247         27.9587         27.9587 
        1.30084         144.308         27.6557         27.6557 
        1.30697         143.506         27.3568         27.3568 
        1.31312         142.539         27.0619         27.0619 
        1.31925         141.498         26.7723         26.7723 
        1.32537         141.026         26.4873         26.4873 
        1.33151         140.284         26.2054         26.2054 
        1.33765         138.861         25.9278         25.9278 
        1.34378         138.824         25.6549         25.6549 
        1.34992         138.062         25.3857         25.3857 
        1.35606         137.021         25.1198         25.1198 
         1.3622         136.703         24.8583         24.8583 
        1.36833         135.033         24.6011         24.6011 
        1.37445         134.905         24.3477         24.3477 
        1.38059         133.951         24.0972         24.0972 
        1.38675         133.093         23.8496         23.8496 
        1.39288         132.121         23.6065         23.6065 
        1.39901         131.415         23.3669         23.3669 
        1.40515         130.946         23.1302         23.1302 
         1.4113         130.111         22.8968         22.8968 
        1.41742         129.174         22.6676         22.6676 
        1.42355         128.925         22.4411         22.4411 
         1.4297          127.79         22.2171         22.2171 
        1.43585         127.027         21.9962         21.9962 
        1.44198         125.978         21.7792         21.7792 
        1.44809         125.254         21.5655         21.5655 
        1.45423         124.995          21.354          21.354 
        1.46036         123.944         21.1457         21.1457 
        1.46649         123.228         20.9401         20.9401 
        1.47263          122.85         20.7372         20.7372 
        1.47877         121.712          20.537          20.537 
        1.48491         121.247         20.3392         20.3392 
        1.49104         119.838         20.1444         20.1444 
        1.49718         119.828         19.9521         19.9521 
        1.50333         119.318          19.762          19.762 
        1.50947         118.518         19.5747         19.5747 
         1.5156         117.777         19.3902         19.3902 
        1.52172         117.075         19.2081         19.2081 
        1.52787         116.461          19.028          19.028 
          1.534         115.837         18.8504         18.8504 
        1.54013         115.212         18.6753         18.6753 
        1.54627         114.317         18.5021         18.5021 
        1.55241         113.963         18.3311         18.3311 
        1.55855         113.173         18.1626         18.1626 
        1.56467         112.377         17.9966         17.9966 
         1.5708          111.66         17.8322         17.8322 
        1.57695         111.317         17.6697         17.6697 
        1.58308         110.541         17.5095         17.5095 
        1.58922         110.511         17.3513         17.3513 
        1.59535         109.835         17.1951         17.1951 
         1.6015         108.712         17.0406         17.0406 
        1.60764         108.059         16.8881         16.8881 
        1.61376         107.564         16.7379         16.7379 
        1.61989         107.078         16.5894         16.5894 
        1.62604         106.397         16.4424         16.4424 
        1.63218         105.976         16.2972         16.2972 
        1.63831         105.196         16.1542         16.1542 
        1.64444         104.565         16.0129         16.0129 
        1.65059         103.901         15.8729         15.8729 
        1.65673         103.593         15.7348         15.7348 
        1.66285         103.022         15.5987         15.5987 
        1.66898          102.22         15.4641         15.4641 
        1.67512         101.805          15.331          15.331 
        1.68127          101.23         15.1992         15.1992 
         1.6874         100.459         15.0694         15.0694 
        1.69353          99.898         14.9411         14.9411 
        1.69967           99.47          14.814          14.814 
        1.70581         99.1093         14.6885         14.6885 
        1.71193         98.3543         14.5649         14.5649 
        1.71806         97.7863         14.4425         14.4425 
        1.72421          97.193         14.3213         14.3213 
        1.73035         96.8376         14.2016         14.2016 
        1.73649         96.1878         14.0833         14.0833 
        1.74262         95.6729         13.9664         13.9664 
        1.74876         95.0371         13.8508         13.8508 
        1.75489         94.6215         13.7368         13.7368 
        1.76101         94.0142         13.6241         13.6241 
        1.76715         93.4351         13.5125         13.5125 
        1.77329         93.0493          13.402          13.402 
        1.77943          92.498         13.2927         13.2927 
        1.78557          92.093         13.1848         13.1848 
        1.79171         91.6392         13.0781         13.0781 
        1.79785         90.7993         12.9726         12.9726 
        1.80399         90.6832         12.8683         12.8683 
        1.81012         89.8804         12.7652         12.7652 
        1.81625         89.4439         12.6634         12.6634 
        1.82239         89.0795         12.5625         12.5625 
        1.82853         88.4994         12.4628         12.4628 
        1.83466         87.8464         12.3642         12.3642 
        1.84078         87.5921         12.2668         12.2668 
        1.84692         87.3113         12.1704         12.1704 
        1.85306         86.6596         12.0748         12.0748 
         1.8592         86.3239         11.9805         11.9805 
        1.86533         85.7783         11.8872         11.8872 
        1.87147         85.2489         11.7948         11.7948 
