# k  (h/Mpc)    Pcb(k)  (Mpc/h)^3    Pcb_linear(k) (Mpc/h)^3    Pcb_NL(k) (Mpc/h)^3   ShotnoiseSubtracted = false
     0.00783031         1110.87          1118.7          1118.7 
       0.013688          1399.9         1415.16         1415.16 
       0.019231         1452.28         1458.97         1458.97 
      0.0249154         1374.85         1374.26         1374.26 
      0.0312784         1216.31         1217.64         1217.64 
      0.0375637          1059.6         1062.51         1062.51 
      0.0433917         946.756         945.266         945.266 
      0.0492413         856.636         857.869         857.869 
      0.0555754         790.925         789.363         789.363 
      0.0619321         728.143         734.179         734.179 
       0.067871         682.172         683.878         683.878 
      0.0738098         628.701         629.317         629.317 
      0.0800417         568.728         567.815         567.815 
      0.0862327         507.021         507.117         507.117 
      0.0921407         454.754         454.918         454.918 
      0.0982031         412.548         410.913         410.913 
       0.104506         375.457         376.435         376.435 
       0.110769         351.115         351.729         351.729 
       0.116806          335.11         333.568         333.568 
       0.122832         316.894           317.4           317.4 
       0.129052         300.516         299.931         299.931 
       0.135211         282.413         280.624         280.624 
       0.141259          260.92         260.185         260.185 
       0.147318         239.357         239.745         239.745 
       0.153489         221.541         220.701         220.701 
       0.159709         206.451         204.569         204.569 
       0.165845         191.807          192.01          192.01 
       0.171974         184.597         182.316         182.316 
       0.178125          176.52         174.443         174.443 
       0.184229         168.138         167.349         167.349 
        0.19034         162.137         160.084         160.084 
       0.196428         154.246         152.269         152.269 
       0.202534          144.39         143.924         143.924 
       0.208729         137.427         135.376         135.376 
       0.214876         130.365         127.358         127.358 
       0.220989         121.586         120.269         120.269 
       0.227147         117.293         114.207         114.207 
        0.23329         112.414         109.166         109.166 
       0.239377         108.424         104.901         104.901 
       0.245482         103.975         101.018         101.018 
       0.251667           99.57         97.1888         97.1888 
       0.257832         96.7648         93.2899         93.2899 
       0.263955         91.9149         89.3076         89.3076 
       0.270079         87.9593          85.304          85.304 
        0.27624         83.6501         81.4046         81.4046 
       0.282372           80.32          77.796          77.796 
        0.28843         78.1966         74.5772         74.5772 
       0.294538         74.9674         71.6933         71.6933 
       0.300721         71.7941         69.0856         69.0856 
        0.30691         70.0852         66.6932         66.6932 
       0.313033         67.4892         64.4429         64.4429 
       0.319153         66.0359          62.239          62.239 
       0.325316         62.9158         60.0321         60.0321 
        0.33145         60.7192         57.8568         57.8568 
       0.337538         58.7744         55.7507         55.7507 
       0.343633         56.9293         53.7371         53.7371 
       0.349808         54.9067         51.8238         51.8238 
       0.355968         53.0591         50.0577         50.0577 
       0.362074         51.8493         48.4374         48.4374 
       0.368217         50.2678          46.917          46.917 
       0.374374         49.1739         45.4735         45.4735 
       0.380519         47.1777         44.0855         44.0855 
       0.386598         45.7431         42.7497         42.7497 
       0.392688         44.3337         41.4417         41.4417 
        0.39888         43.3376          40.147          40.147 
       0.405048         42.1824         38.9034         38.9034 
       0.411186         40.9348         37.7195         37.7195 
       0.417313         39.7657         36.5975         36.5975 
       0.423458         38.5412         35.5334         35.5334 
       0.429607         37.8319         34.5235         34.5235 
       0.435692         37.0585         33.5712         33.5712 
       0.441815         35.7187         32.6518         32.6518 
       0.447964         34.6026         31.7598         31.7598 
       0.454126         33.9866         30.8929         30.8929 
       0.460267         33.5025         30.0556         30.0556 
       0.466387         32.4999          29.248          29.248 
        0.47254         31.9036         28.4642         28.4642 
       0.478662         30.9363         27.7144         27.7144 
       0.484765         30.2335         26.9981         26.9981 
       0.490885         29.3665         26.3092         26.3092 
       0.497035         28.7416         25.6441         25.6441 
       0.503198         28.1319         25.0028         25.0028 
       0.509342         27.3476          24.386          24.386 
       0.515458         26.9396          23.792          23.792 
       0.521598         26.3101         23.2139         23.2139 
       0.527764         25.9111         22.6512         22.6512 
       0.533884         25.1688         22.1105         22.1105 
           0.54         24.6778         21.5883         21.5883 
       0.546137         23.9408          21.082          21.082 
       0.552299         23.5247         20.5909         20.5909 
       0.558452          23.014         20.1172         20.1172 
       0.564573         22.6861         19.6616         19.6616 
       0.570708         22.1382         19.2199         19.2199 
       0.576825         21.7631         18.7933         18.7933 
       0.582926         21.3191         18.3808         18.3808 
       0.589034         20.9095         17.9797         17.9797 
       0.595184         20.6134         17.5878         17.5878 
       0.601379         20.0485         17.2048         17.2048 
       0.607522          19.704         16.8365         16.8365 
       0.613639         19.2955         16.4809         16.4809 
       0.619772          18.989         16.1352         16.1352 
       0.625918         18.5802          15.799          15.799 
       0.632068         18.3738         15.4725         15.4725 
       0.638161          17.979         15.1582         15.1582 
         0.6443         17.6545         14.8505         14.8505 
       0.650464         17.2216         14.5503         14.5503 
       0.656582         17.0839         14.2607         14.2607 
       0.662703         16.8353         13.9789         13.9789 
       0.668861         16.3764         13.7032         13.7032 
       0.675024         16.1288         13.4349         13.4349 
       0.681124         16.0534         13.1767         13.1767 
       0.687237         15.6982         12.9248         12.9248 
       0.693381         15.3108         12.6784         12.6784 
       0.699536         15.2154         12.4381         12.4381 
       0.705665         14.9206         12.2052         12.2052 
       0.711789          14.618         11.9785         11.9785 
       0.717957         14.3137         11.7562         11.7562 
        0.72409         14.1803         11.5408         11.5408 
       0.730186         14.0658         11.3322         11.3322 
       0.736317         13.7498         11.1276         11.1276 
       0.742472         13.5728         10.9275         10.9275 
       0.748622         13.3504         10.7325         10.7325 
        0.75476          13.008         10.5428         10.5428 
       0.760888         12.9205          10.358          10.358 
       0.767043         12.6576         10.1769         10.1769 
       0.773185         12.4976         10.0007         10.0007 
       0.779291          12.416         9.82965         9.82965 
       0.785407          12.166         9.66243         9.66243 
       0.791564         12.0205          9.4981          9.4981 
       0.797719         11.7768         9.33772         9.33772 
       0.803834         11.6846         9.18211         9.18211 
       0.809972         11.4606         9.02953         9.02953 
       0.816124         11.3155         8.88014         8.88014 
       0.822261         11.1722         8.73457         8.73457 
       0.828378         11.0109         8.59274         8.59274 
       0.834502         10.8789         8.45399         8.45399 
       0.840667         10.7632         8.31744         8.31744 
       0.846816         10.5369         8.18433         8.18433 
       0.852925          10.439         8.05501         8.05501 
       0.859047         10.2993         7.92825         7.92825 
       0.865192         10.1471         7.80383         7.80383 
       0.871341          9.9993         7.68203         7.68203 
       0.877463          9.8768         7.56342         7.56342 
       0.883569         9.78212         7.44765         7.44765 
       0.889708         9.62405         7.33374         7.33374 
       0.895864         9.49986         7.22195         7.22195 
       0.902008         9.36334         7.11276         7.11276 
       0.908149         9.23763         7.00591         7.00591 
       0.914301         9.16236         6.90112         6.90112 
       0.920448         9.03008         6.79859         6.79859 
       0.926574         8.96774         6.69853         6.69853 
       0.932687         8.81327         6.60073         6.60073 
       0.938823         8.68057         6.50455         6.50455 
       0.944975         8.61277         6.41008         6.41008 
       0.951105         8.47383         6.31786         6.31786 
       0.957225         8.41702         6.22763         6.22763 
       0.963368         8.30592         6.13888         6.13888 
       0.969511         8.20573         6.05188         6.05188 
       0.975621         8.10147         5.96705         5.96705 
       0.981748         7.96962         5.88365         5.88365 
       0.987916         7.90134         5.80133         5.80133 
        0.99406          7.8405         5.72092         5.72092 
        1.00019         7.75367         5.64221         5.64221 
        1.00632         7.67413         5.56506         5.56506 
        1.01246         7.56946         5.48926         5.48926 
        1.01859         7.47638           5.415           5.415 
        1.02471         7.36659         5.34223         5.34223 
        1.03085         7.33355         5.27056         5.27056 
        1.03698         7.24651         5.20037         5.20037 
        1.04314         7.16444         5.13118         5.13118 
        1.04929         7.05505         5.06342         5.06342 
        1.05541         6.99695         4.99717         4.99717 
        1.06154         6.93188         4.93195         4.93195 
        1.06769         6.89163         4.86782         4.86782 
        1.07382         6.76645         4.80504         4.80504 
        1.07993         6.69137         4.74353         4.74353 
        1.08607         6.65277         4.68285         4.68285 
        1.09222         6.55531         4.62318         4.62318 
        1.09836         6.54245         4.56463         4.56463 
        1.10449         6.40086         4.50717         4.50717 
        1.11063         6.37647         4.45065         4.45065 
        1.11677         6.31338         4.39513         4.39513 
         1.1229         6.24933         4.34066         4.34066 
        1.12903         6.19882         4.28708         4.28708 
        1.13518         6.10118         4.23436         4.23436 
        1.14131         6.04379         4.18257         4.18257 
        1.14745         5.96825         4.13169         4.13169 
        1.15359         5.91984         4.08165         4.08165 
        1.15973         5.85763         4.03243         4.03243 
        1.16584         5.81023         3.98425         3.98425 
        1.17197         5.74599         3.93679         3.93679 
        1.17811         5.68727         3.88997         3.88997 
        1.18424         5.63502         3.84406         3.84406 
        1.19038         5.58765         3.79876         3.79876 
        1.19652         5.54355         3.75422         3.75422 
        1.20267         5.49152          3.7104          3.7104 
        1.20881         5.42893         3.66729         3.66729 
        1.21495          5.3819         3.62494         3.62494 
        1.22108         5.33446         3.58328         3.58328 
         1.2272         5.26906         3.54237         3.54237 
        1.23334         5.25742         3.50202         3.50202 
        1.23949         5.18638          3.4622          3.4622 
        1.24562         5.14401         3.42312         3.42312 
        1.25174         5.10852         3.38471         3.38471 
        1.25789         5.02956         3.34678         3.34678 
        1.26402         4.99982          3.3095          3.3095 
        1.27014         4.96024         3.27288         3.27288 
        1.27628         4.90226         3.23672         3.23672 
        1.28244         4.87632         3.20103         3.20103 
        1.28858         4.84189         3.16594         3.16594 
        1.29471         4.77088         3.13146         3.13146 
        1.30084         4.72962         3.09752         3.09752 
        1.30697         4.70544         3.06404         3.06404 
        1.31312         4.66095         3.03101         3.03101 
        1.31925         4.61787         2.99858         2.99858 
        1.32537         4.58568         2.96665         2.96665 
        1.33151         4.53846         2.93508         2.93508 
        1.33765         4.50129         2.90399         2.90399 
        1.34378          4.4801         2.87342         2.87342 
        1.34992         4.43432         2.84327         2.84327 
        1.35606         4.40019         2.81349         2.81349 
         1.3622         4.36235          2.7842          2.7842 
        1.36833         4.31715         2.75539         2.75539 
        1.37445         4.27604         2.72702         2.72702 
        1.38059         4.24454         2.69895         2.69895 
        1.38675         4.21028         2.67122         2.67122 
        1.39288         4.18678           2.644           2.644 
        1.39901         4.13615         2.61716         2.61716 
        1.40515         4.10898         2.59065         2.59065 
         1.4113          4.0793         2.56451         2.56451 
        1.41742         4.04258         2.53884         2.53884 
        1.42355         4.00858         2.51347         2.51347 
         1.4297         3.98552         2.48838         2.48838 
        1.43585         3.95425         2.46364         2.46364 
        1.44198         3.91808         2.43933         2.43933 
        1.44809         3.89728         2.41541         2.41541 
        1.45423         3.86233         2.39171         2.39171 
        1.46036          3.8358         2.36838         2.36838 
        1.46649         3.79461         2.34536         2.34536 
        1.47263         3.78088         2.32263         2.32263 
        1.47877         3.75015         2.30021         2.30021 
        1.48491         3.71872         2.27805         2.27805 
        1.49104         3.68932         2.25624         2.25624 
        1.49718         3.66668         2.23469         2.23469 
        1.50333         3.63485          2.2134          2.2134 
        1.50947         3.60042         2.19243         2.19243 
         1.5156         3.58343         2.17176         2.17176 
        1.52172         3.55853         2.15137         2.15137 
        1.52787         3.53194         2.13119         2.13119 
          1.534          3.5047          2.1113          2.1113 
        1.54013         3.47876         2.09169         2.09169 
        1.54627         3.45308         2.07229         2.07229 
        1.55241         3.42263         2.05314         2.05314 
        1.55855         3.40634         2.03426         2.03426 
        1.56467         3.38209         2.01567         2.01567 
         1.5708         3.35504         1.99726         1.99726 
        1.57695         3.32218         1.97906         1.97906 
        1.58308         3.29792         1.96112         1.96112 
        1.58922         3.28839          1.9434          1.9434 
        1.59535         3.25824          1.9259          1.9259 
         1.6015         3.23054          1.9086          1.9086 
        1.60764         3.21648         1.89151         1.89151 
        1.61376         3.18853         1.87469         1.87469 
        1.61989         3.16161         1.85806         1.85806 
        1.62604          3.1412         1.84159         1.84159 
        1.63218         3.12703         1.82534         1.82534 
        1.63831         3.11088         1.80932         1.80932 
        1.64444          3.0836         1.79349         1.79349 
        1.65059         3.06796         1.77781         1.77781 
        1.65673         3.03942         1.76234         1.76234 
        1.66285         3.01969          1.7471          1.7471 
        1.66898         2.99984         1.73203         1.73203 
        1.67512         2.97613         1.71712         1.71712 
        1.68127         2.95555         1.70236         1.70236 
         1.6874         2.94734         1.68782         1.68782 
        1.69353         2.91294         1.67345         1.67345 
        1.69967         2.89982         1.65922         1.65922 
        1.70581         2.88473         1.64516         1.64516 
        1.71193         2.85618         1.63132         1.63132 
        1.71806         2.84237         1.61761         1.61761 
        1.72421         2.82642         1.60403         1.60403 
        1.73035         2.80356         1.59062         1.59062 
        1.73649         2.78983         1.57737         1.57737 
        1.74262         2.77171         1.56428         1.56428 
        1.74876         2.75437         1.55133         1.55133 
        1.75489         2.73601         1.53856         1.53856 
        1.76101         2.71485         1.52594         1.52594 
        1.76715         2.70588         1.51344         1.51344 
        1.77329         2.68258         1.50106         1.50106 
        1.77943         2.66623         1.48883         1.48883 
        1.78557         2.65021         1.47674         1.47674 
        1.79171         2.63759         1.46479         1.46479 
        1.79785         2.62008         1.45297         1.45297 
        1.80399         2.60135         1.44129         1.44129 
        1.81012         2.58469         1.42975         1.42975 
        1.81625         2.56612         1.41834         1.41834 
        1.82239         2.55476         1.40704         1.40704 
        1.82853         2.53707         1.39587         1.39587 
        1.83466         2.51512         1.38483         1.38483 
        1.84078         2.50264         1.37392         1.37392 
        1.84692         2.48849         1.36312         1.36312 
        1.85306         2.47487         1.35242         1.35242 
         1.8592         2.46043         1.34185         1.34185 
        1.86533         2.44482          1.3314          1.3314 
        1.87147          2.4321         1.32105         1.32105 
