# k  (h/Mpc)    Pcb(k)  (Mpc/h)^3    Pcb_linear(k) (Mpc/h)^3    Pcb_NL(k) (Mpc/h)^3   ShotnoiseSubtracted = false
     0.00783031         536.078         540.061         540.061 
       0.013688         677.022         683.296         683.296 
       0.019231         701.925         704.498         704.498 
      0.0249154         663.503         663.616         663.616 
      0.0312784         587.651         587.996         587.996 
      0.0375637         512.347         513.094         513.094 
      0.0433917         457.257         456.478         456.478 
      0.0492413         414.069         414.275         414.275 
      0.0555754         381.927         381.194         381.194 
      0.0619321         352.606         354.546         354.546 
       0.067871         329.775         330.256         330.256 
      0.0738098         303.744         303.908         303.908 
      0.0800417         274.593         274.208         274.208 
      0.0862327         244.929         244.896         244.896 
      0.0921407         219.641         219.689         219.689 
      0.0982031         198.998         198.438         198.438 
       0.104506         181.414         181.788         181.788 
       0.110769         169.579         169.857         169.857 
       0.116806         161.504         161.087         161.087 
       0.122832         152.988         153.279         153.279 
       0.129052         144.948         144.843         144.843 
       0.135211         135.973         135.519         135.519 
       0.141259         125.739         125.649         125.649 
       0.147318         115.494         115.778         115.778 
       0.153489         106.707         106.581         106.581 
       0.159709         99.1935         98.7907         98.7907 
       0.165845         92.4347         92.7259         92.7259 
       0.171974         88.5653         88.0443         88.0443 
       0.178125         84.6656         84.2422         84.2422 
       0.184229          80.854         80.8164         80.8164 
        0.19034         77.7848         77.3082         77.3082 
       0.196428         73.9223         73.5338         73.5338 
       0.202534          69.387         69.5041         69.5041 
       0.208729         65.7561         65.3761         65.3761 
       0.214876          62.218          61.504          61.504 
       0.220989         58.2094         58.0804         58.0804 
       0.227147          55.884         55.1533         55.1533 
        0.23329         53.4884         52.7188         52.7188 
       0.239377         51.4835         50.6588         50.6588 
       0.245482         49.4693         48.7839         48.7839 
       0.251667         47.4007         46.9346         46.9346 
       0.257832         45.8486         45.0517         45.0517 
       0.263955         43.6778         43.1286         43.1286 
       0.270079         41.7509         41.1952         41.1952 
        0.27624         39.7091         39.3121         39.3121 
       0.282372         38.0433         37.5694         37.5694 
        0.28843         36.8244          36.015          36.015 
       0.294538         35.3452         34.6223         34.6223 
       0.300721         33.8888         33.3629         33.3629 
        0.30691          32.963         32.2076         32.2076 
       0.313033         31.7815         31.1209         31.1209 
       0.319153         30.9979         30.0566         30.0566 
       0.325316         29.5523         28.9908         28.9908 
        0.33145         28.5051         27.9403         27.9403 
       0.337538         27.5614         26.9232         26.9232 
       0.343633         26.6662         25.9509         25.9509 
       0.349808         25.6904         25.0269         25.0269 
       0.355968         24.7956          24.174          24.174 
       0.362074          24.148         23.3915         23.3915 
       0.368217         23.3861         22.6573         22.6573 
       0.374374         22.8384         21.9602         21.9602 
       0.380519         21.9668         21.2899         21.2899 
       0.386598          21.272         20.6448         20.6448 
       0.392688         20.6022         20.0131         20.0131 
        0.39888         20.0745         19.3879         19.3879 
       0.405048         19.5039         18.7873         18.7873 
       0.411186         18.9003         18.2156         18.2156 
       0.417313           18.36         17.6738         17.6738 
       0.423458         17.7654         17.1599         17.1599 
       0.429607         17.3964         16.6721         16.6721 
       0.435692         16.9851         16.2123         16.2123 
       0.441815         16.4237         15.7683         15.7683 
       0.447964         15.9064         15.3375         15.3375 
       0.454126          15.592         14.9189         14.9189 
       0.460267         15.2972         14.5145         14.5145 
       0.466387         14.8405         14.1245         14.1245 
        0.47254         14.5161          13.746          13.746 
       0.478662          14.102         13.3839         13.3839 
       0.484765         13.7614          13.038          13.038 
       0.490885         13.3716         12.7053         12.7053 
       0.497035          13.022         12.3841         12.3841 
       0.503198         12.7573         12.0744         12.0744 
       0.509342         12.3935         11.7765         11.7765 
       0.515458          12.173         11.4897         11.4897 
       0.521598         11.8889         11.2105         11.2105 
       0.527764         11.6788         10.9388         10.9388 
       0.533884         11.3136         10.6777         10.6777 
           0.54         11.0885         10.4255         10.4255 
       0.546137         10.7758          10.181          10.181 
       0.552299         10.5711          9.9438          9.9438 
       0.558452         10.3353         9.71503         9.71503 
       0.564573         10.1428         9.49503         9.49503 
       0.570708         9.91526          9.2817          9.2817 
       0.576825         9.71411         9.07571         9.07571 
       0.582926          9.4916         8.87648         8.87648 
       0.589034         9.32168         8.68282         8.68282 
       0.595184         9.16605         8.49354         8.49354 
       0.601379         8.92195          8.3086          8.3086 
       0.607522         8.74499         8.13074         8.13074 
       0.613639         8.53901         7.95901         7.95901 
       0.619772         8.40737         7.79203         7.79203 
       0.625918         8.22722         7.62969         7.62969 
       0.632068         8.09719           7.472           7.472 
       0.638161         7.92384         7.32025         7.32025 
         0.6443         7.76579         7.17166         7.17166 
       0.650464         7.59528         7.02668         7.02668 
       0.656582         7.50558         6.88679         6.88679 
       0.662703         7.36886         6.75072         6.75072 
       0.668861         7.17427          6.6176          6.6176 
       0.675024          7.0565         6.48803         6.48803 
       0.681124         7.01413          6.3633          6.3633 
       0.687237          6.8453         6.24166         6.24166 
       0.693381         6.67107         6.12268         6.12268 
       0.699536         6.60819         6.00665         6.00665 
       0.705665         6.48263         5.89417         5.89417 
       0.711789         6.33775         5.78471         5.78471 
       0.717957         6.21775         5.67732         5.67732 
        0.72409         6.13374          5.5733          5.5733 
       0.730186         6.06587         5.47255         5.47255 
       0.736317         5.92887         5.37378         5.37378 
       0.742472          5.8488         5.27712         5.27712 
       0.748622         5.75385         5.18296         5.18296 
        0.75476         5.61631         5.09133         5.09133 
       0.760888         5.55784         5.00209         5.00209 
       0.767043         5.41706         4.91467         4.91467 
       0.773185         5.34885         4.82955         4.82955 
       0.779291         5.31052         4.74696         4.74696 
       0.785407          5.1988          4.6662          4.6662 
       0.791564         5.11981         4.58684         4.58684 
       0.797719         5.02899         4.50939         4.50939 
       0.803834         4.95968         4.43425         4.43425 
       0.809972         4.87329         4.36056         4.36056 
       0.816124         4.80118         4.28842         4.28842 
       0.822261         4.73507         4.21812         4.21812 
       0.828378         4.65402         4.14963         4.14963 
       0.834502         4.58896         4.08262         4.08262 
       0.840667         4.53524         4.01668         4.01668 
       0.846816         4.45139          3.9524          3.9524 
       0.852925          4.3832         3.88994         3.88994 
       0.859047         4.32139         3.82873         3.82873 
       0.865192         4.25646         3.76864         3.76864 
       0.871341         4.19638         3.70983         3.70983 
       0.877463         4.12981         3.65255         3.65255 
       0.883569         4.07555         3.59664         3.59664 
       0.889708         4.02278         3.54163         3.54163 
       0.895864         3.96573         3.48764         3.48764 
       0.902008         3.89608         3.43491         3.43491 
       0.908149         3.84957         3.38331         3.38331 
       0.914301         3.80501          3.3327          3.3327 
       0.920448         3.75303         3.28319         3.28319 
       0.926574         3.71847         3.23487         3.23487 
       0.932687         3.65511         3.18764         3.18764 
       0.938823         3.58938         3.14119         3.14119 
       0.944975         3.55819         3.09557         3.09557 
       0.951105         3.48966         3.05104         3.05104 
       0.957225          3.4568         3.00746         3.00746 
       0.963368         3.41968          2.9646          2.9646 
       0.969511         3.37678         2.92259         2.92259 
       0.975621         3.32224         2.88162         2.88162 
       0.981748         3.26143         2.84135         2.84135 
       0.987916         3.22925         2.80159         2.80159 
        0.99406         3.20263         2.76276         2.76276 
        1.00019         3.15992         2.72475         2.72475 
        1.00632         3.12832         2.68749         2.68749 
        1.01246         3.08012         2.65089         2.65089 
        1.01859         3.04183         2.61503         2.61503 
        1.02471         2.99147         2.57988         2.57988 
        1.03085         2.96389         2.54527         2.54527 
        1.03698          2.9298         2.51138         2.51138 
        1.04314         2.89631         2.47796         2.47796 
        1.04929         2.86006         2.44524         2.44524 
        1.05541         2.81677         2.41324         2.41324 
        1.06154         2.79331         2.38175         2.38175 
        1.06769         2.76859         2.35078         2.35078 
        1.07382         2.72375         2.32046         2.32046 
        1.07993         2.68852         2.29076         2.29076 
        1.08607         2.66628         2.26145         2.26145 
        1.09222         2.62495         2.23264         2.23264 
        1.09836         2.61232         2.20436         2.20436 
        1.10449         2.55961         2.17662         2.17662 
        1.11063          2.5367         2.14932         2.14932 
        1.11677         2.51192         2.12251         2.12251 
         1.1229         2.47564          2.0962          2.0962 
        1.12903         2.45868         2.07033         2.07033 
        1.13518         2.42094         2.04487         2.04487 
        1.14131         2.39648         2.01986         2.01986 
        1.14745         2.36953         1.99529         1.99529 
        1.15359         2.34405         1.97112         1.97112 
        1.15973         2.31765         1.94735         1.94735 
        1.16584         2.29178         1.92408         1.92408 
        1.17197         2.26325         1.90117         1.90117 
        1.17811         2.23872         1.87856         1.87856 
        1.18424          2.2143         1.85638         1.85638 
        1.19038         2.18948         1.83451         1.83451 
        1.19652         2.17251           1.813           1.813 
        1.20267         2.15283         1.79183         1.79183 
        1.20881          2.1222         1.77102         1.77102 
        1.21495         2.10316         1.75057         1.75057 
        1.22108         2.08218         1.73044         1.73044 
         1.2272         2.05099         1.71069         1.71069 
        1.23334         2.03905          1.6912          1.6912 
        1.23949         2.01704         1.67197         1.67197 
        1.24562         1.99599          1.6531          1.6531 
        1.25174         1.97789         1.63455         1.63455 
        1.25789         1.95057         1.61623         1.61623 
        1.26402         1.93063         1.59823         1.59823 
        1.27014         1.90872         1.58055         1.58055 
        1.27628         1.89326         1.56308         1.56308 
        1.28244         1.87605         1.54585         1.54585 
        1.28858         1.85498          1.5289          1.5289 
        1.29471         1.83184         1.51225         1.51225 
        1.30084         1.81751         1.49586         1.49586 
        1.30697         1.80396         1.47969         1.47969 
        1.31312         1.78461         1.46374         1.46374 
        1.31925         1.76723         1.44808         1.44808 
        1.32537         1.75109         1.43266         1.43266 
        1.33151         1.73086         1.41742         1.41742 
        1.33765         1.71578          1.4024          1.4024 
        1.34378         1.69824         1.38764         1.38764 
        1.34992         1.68601         1.37308         1.37308 
        1.35606         1.66739          1.3587          1.3587 
         1.3622         1.65317         1.34455         1.34455 
        1.36833         1.63495         1.33064         1.33064 
        1.37445         1.61896         1.31694         1.31694 
        1.38059         1.60439         1.30339         1.30339 
        1.38675         1.59039         1.28999         1.28999 
        1.39288         1.57756         1.27684         1.27684 
        1.39901         1.56031         1.26389         1.26389 
        1.40515         1.54435         1.25108         1.25108 
         1.4113          1.5369         1.23846         1.23846 
        1.41742         1.51688         1.22606         1.22606 
        1.42355         1.50092         1.21381         1.21381 
         1.4297         1.49325         1.20169         1.20169 
        1.43585         1.47662         1.18975         1.18975 
        1.44198         1.46451         1.17801         1.17801 
        1.44809         1.45153         1.16645         1.16645 
        1.45423         1.43953         1.15501         1.15501 
        1.46036         1.42702         1.14375         1.14375 
        1.46649         1.40894         1.13263         1.13263 
        1.47263         1.40104         1.12165         1.12165 
        1.47877         1.39369         1.11082         1.11082 
        1.48491         1.37252         1.10012         1.10012 
        1.49104         1.36618         1.08959         1.08959 
        1.49718          1.3505         1.07918         1.07918 
        1.50333         1.34087          1.0689          1.0689 
        1.50947         1.33026         1.05877         1.05877 
         1.5156         1.31792         1.04879         1.04879 
        1.52172         1.30835         1.03894         1.03894 
        1.52787         1.29546          1.0292          1.0292 
          1.534         1.28705          1.0196          1.0196 
        1.54013          1.2744         1.01012         1.01012 
        1.54627          1.2634         1.00076         1.00076 
        1.55241         1.25106        0.991509        0.991509 
        1.55855         1.24237         0.98239         0.98239 
        1.56467         1.23252        0.973413        0.973413 
         1.5708         1.22136        0.964522        0.964522 
        1.57695         1.20951        0.955731        0.955731 
        1.58308         1.19828        0.947069        0.947069 
        1.58922         1.19338         0.93851         0.93851 
        1.59535         1.17899        0.930061        0.930061 
         1.6015         1.16933        0.921704        0.921704 
        1.60764         1.16189        0.913455        0.913455 
        1.61376         1.15085         0.90533         0.90533 
        1.61989         1.14334        0.897299        0.897299 
        1.62604         1.13084        0.889348        0.889348 
        1.63218         1.12633        0.881498        0.881498 
        1.63831         1.11518        0.873762        0.873762 
        1.64444         1.10629        0.866117        0.866117 
        1.65059         1.09904        0.858546        0.858546 
        1.65673         1.08792        0.851074        0.851074 
        1.66285         1.08003        0.843713        0.843713 
        1.66898         1.07318        0.836437        0.836437 
        1.67512         1.06086        0.829233        0.829233 
        1.68127         1.05237        0.822109        0.822109 
         1.6874         1.04847        0.815084        0.815084 
        1.69353         1.03773        0.808146        0.808146 
        1.69967         1.03085        0.801274        0.801274 
        1.70581         1.02477        0.794484        0.794484 
        1.71193         1.01393        0.787799        0.787799 
        1.71806         1.00711        0.781178        0.781178 
        1.72421        0.999888         0.77462         0.77462 
        1.73035        0.988237        0.768145        0.768145 
        1.73649        0.987219        0.761746        0.761746 
        1.74262         0.97605        0.755426        0.755426 
        1.74876        0.969929        0.749174        0.749174 
        1.75489        0.962982        0.743005        0.743005 
        1.76101        0.953226        0.736909        0.736909 
        1.76715        0.947608        0.730873        0.730873 
        1.77329        0.941121        0.724898        0.724898 
        1.77943         0.93407        0.718987        0.718987 
        1.78557        0.929361        0.713152        0.713152 
        1.79171        0.922174        0.707381        0.707381 
        1.79785        0.914093        0.701673        0.701673 
        1.80399        0.906094         0.69603         0.69603 
        1.81012        0.900155        0.690457        0.690457 
        1.81625        0.893541        0.684947        0.684947 
        1.82239        0.887562         0.67949         0.67949 
        1.82853        0.881059        0.674096        0.674096 
        1.83466        0.873801        0.668766        0.668766 
        1.84078        0.867101        0.663499        0.663499 
        1.84692        0.862165        0.658281        0.658281 
        1.85306        0.857497        0.653113        0.653113 
         1.8592        0.849174        0.648009        0.648009 
        1.86533        0.844769        0.642963        0.642963 
        1.87147        0.835646        0.637965        0.637965 
