# k  (h/Mpc)    Pcb(k)  (Mpc/h)^3    Pcb_linear(k) (Mpc/h)^3    Pcb_NL(k) (Mpc/h)^3   ShotnoiseSubtracted = false
     0.00783031         6906.43          6944.4          6944.4 
       0.013688         8610.89         8780.04         8780.04 
       0.019231         8955.96         9049.92         9049.92 
      0.0249154         8535.08         8523.44         8523.44 
      0.0312784         7503.09         7551.44         7551.44 
      0.0375637         6510.11          6589.1          6589.1 
      0.0433917         5843.36         5861.82         5861.82 
      0.0492413         5267.06         5319.74         5319.74 
      0.0555754         4875.79         4894.84         4894.84 
      0.0619321          4430.4         4552.59         4552.59 
       0.067871         4176.47         4240.63         4240.63 
      0.0738098         3864.65         3902.28         3902.28 
      0.0800417         3501.63          3520.9          3520.9 
      0.0862327         3119.31         3144.51         3144.51 
      0.0921407         2807.71         2820.82         2820.82 
      0.0982031         2564.16         2547.95         2547.95 
       0.104506         2321.04         2334.15         2334.15 
       0.110769         2174.87         2180.96         2180.96 
       0.116806         2092.03         2068.34         2068.34 
       0.122832         1967.39         1968.09         1968.09 
       0.129052         1865.61         1859.77         1859.77 
       0.135211         1775.17         1740.05         1740.05 
       0.141259         1635.08         1613.31         1613.31 
       0.147318         1497.51         1486.57         1486.57 
       0.153489         1399.52         1368.48         1368.48 
       0.159709         1327.12         1268.45         1268.45 
       0.165845          1220.2         1190.58         1190.58 
       0.171974         1193.19         1130.47         1130.47 
       0.178125         1149.01         1081.65         1081.65 
       0.184229         1074.81         1037.66         1037.66 
        0.19034         1048.47         992.616         992.616 
       0.196428         1008.34         944.153         944.153 
       0.202534         938.329         892.413         892.413 
       0.208729         912.319          839.41          839.41 
       0.214876         870.986         789.693         789.693 
       0.220989         813.516         745.734         745.734 
       0.227147          794.82         708.151         708.151 
        0.23329          765.69         676.893         676.893 
       0.239377         751.398         650.443         650.443 
       0.245482         715.066          626.37          626.37 
       0.251667         687.216         602.625         602.625 
       0.257832         678.307          578.45          578.45 
       0.263955         640.931         553.757         553.757 
       0.270079         618.123         528.932         528.932 
        0.27624         590.799         504.754         504.754 
       0.282372         576.752         482.378         482.378 
        0.28843          571.62          462.42          462.42 
       0.294538         543.293         444.538         444.538 
       0.300721         525.906         428.368         428.368 
        0.30691         517.551         413.534         413.534 
       0.313033         495.713         399.581         399.581 
       0.319153         487.188         385.916         385.916 
       0.325316         476.058         372.232         372.232 
        0.33145          464.56         358.744         358.744 
       0.337538         448.135         345.685         345.685 
       0.343633         434.224           333.2           333.2 
       0.349808         423.131         321.336         321.336 
       0.355968         414.471         310.385         310.385 
       0.362074         402.769         300.338         300.338 
       0.368217         398.357         290.911         290.911 
       0.374374         389.992         281.961         281.961 
       0.380519         374.533         273.354         273.354 
       0.386598         369.118         265.072         265.072 
       0.392688         360.547         256.961         256.961 
        0.39888         351.639         248.933         248.933 
       0.405048         345.171         241.222         241.222 
       0.411186         342.414         233.881         233.881 
       0.417313         336.079         226.924         226.924 
       0.423458         326.969         220.326         220.326 
       0.429607         319.317         214.064         214.064 
       0.435692         313.558          208.16          208.16 
       0.441815         308.138         202.459         202.459 
       0.447964         299.933         196.928         196.928 
       0.454126         295.647         191.553         191.553 
       0.460267         291.789         186.361         186.361 
       0.466387         286.316         181.353         181.353 
        0.47254         282.607         176.493         176.493 
       0.478662         274.658         171.844         171.844 
       0.484765         271.501         167.402         167.402 
       0.490885         268.013         163.131         163.131 
       0.497035         264.201         159.007         159.007 
       0.503198         261.427         155.031         155.031 
       0.509342         254.544         151.206         151.206 
       0.515458         251.494         147.523         147.523 
       0.521598         245.963         143.939         143.939 
       0.527764         243.267         140.449         140.449 
       0.533884          242.53         137.097         137.097 
           0.54         237.102         133.859         133.859 
       0.546137         231.825          130.72          130.72 
       0.552299         230.344         127.674         127.674 
       0.558452          226.33         124.737         124.737 
       0.564573         224.773         121.913         121.913 
       0.570708         220.029         119.173         119.173 
       0.576825         216.911         116.529         116.529 
       0.582926         214.682         113.971         113.971 
       0.589034         211.727         111.484         111.484 
       0.595184         210.082         109.054         109.054 
       0.601379         205.797         106.679         106.679 
       0.607522         202.249         104.396         104.396 
       0.613639         200.746         102.191         102.191 
       0.619772         198.807         100.047         100.047 
       0.625918         196.964         97.9622         97.9622 
       0.632068         192.759         95.9376         95.9376 
       0.638161         190.763         93.9891         93.9891 
         0.6443         189.857         92.0813         92.0813 
       0.650464         186.269         90.2199         90.2199 
       0.656582         185.209         88.4237         88.4237 
       0.662703         183.357         86.6766         86.6766 
       0.668861         179.802         84.9674         84.9674 
       0.675024         179.702         83.3038         83.3038 
       0.681124         176.991         81.7023         81.7023 
       0.687237         174.672         80.1405         80.1405 
       0.693381         173.327         78.6128         78.6128 
       0.699536         171.228          77.123          77.123 
       0.705665         169.145         75.6788         75.6788 
       0.711789         167.145         74.2734         74.2734 
       0.717957         165.428         72.8946         72.8946 
        0.72409         164.063          71.559          71.559 
       0.730186         163.794         70.2654         70.2654 
       0.736317         161.049         68.9972         68.9972 
       0.742472          158.91         67.7561         67.7561 
       0.748622         156.518         66.5471         66.5471 
        0.75476         156.948         65.3707         65.3707 
       0.760888         155.314         64.2249         64.2249 
       0.767043         152.735         63.1024         63.1024 
       0.773185          151.16         62.0095         62.0095 
       0.779291         149.424          60.949          60.949 
       0.785407         148.191         59.9122         59.9122 
       0.791564         147.295         58.8933         58.8933 
       0.797719         145.407         57.8988         57.8988 
       0.803834         145.109          56.934          56.934 
       0.809972         144.059         55.9879         55.9879 
       0.816124         142.043         55.0616         55.0616 
       0.822261         140.617          54.159          54.159 
       0.828378         140.398         53.2796         53.2796 
       0.834502         138.112         52.4192         52.4192 
       0.840667         137.589         51.5725         51.5725 
       0.846816         136.265         50.7472         50.7472 
       0.852925         134.899         49.9453         49.9453 
       0.859047         133.818         49.1593         49.1593 
       0.865192          132.76         48.3879         48.3879 
       0.871341         131.313         47.6327         47.6327 
       0.877463         130.435         46.8972         46.8972 
       0.883569         130.201         46.1794         46.1794 
       0.889708          129.03         45.4731         45.4731 
       0.895864         127.774         44.7799         44.7799 
       0.902008         126.558         44.1029         44.1029 
       0.908149          125.01         43.4404         43.4404 
       0.914301         125.044         42.7906         42.7906 
       0.920448         124.394         42.1549         42.1549 
       0.926574          122.17         41.5345         41.5345 
       0.932687             122          40.928          40.928 
       0.938823         120.994         40.3316         40.3316 
       0.944975         119.676         39.7459         39.7459 
       0.951105          118.78         39.1741         39.1741 
       0.957225         118.661         38.6146         38.6146 
       0.963368         117.219         38.0643         38.0643 
       0.969511         116.293         37.5248         37.5248 
       0.975621          115.35         36.9989         36.9989 
       0.981748         114.411         36.4817         36.4817 
       0.987916          113.75         35.9713         35.9713 
        0.99406         113.258         35.4727         35.4727 
        1.00019         112.002         34.9847         34.9847 
        1.00632         111.365         34.5063         34.5063 
        1.01246         110.554         34.0363         34.0363 
        1.01859          109.98         33.5759         33.5759 
        1.02471         109.088         33.1247         33.1247 
        1.03085         108.114         32.6803         32.6803 
        1.03698         107.431         32.2451         32.2451 
        1.04314          106.71          31.816          31.816 
        1.04929         106.286         31.3959         31.3959 
        1.05541         105.509         30.9851         30.9851 
        1.06154         104.838         30.5807         30.5807 
        1.06769         103.906          30.183          30.183 
        1.07382         103.098         29.7938         29.7938 
        1.07993         102.722         29.4124         29.4124 
        1.08607         101.855         29.0361         29.0361 
        1.09222         101.522         28.6662         28.6662 
        1.09836         100.421         28.3031         28.3031 
        1.10449         99.9135         27.9469         27.9469 
        1.11063         99.1771         27.5964         27.5964 
        1.11677         98.5954         27.2521         27.2521 
         1.1229         97.8446         26.9144         26.9144 
        1.12903         97.5048         26.5821         26.5821 
        1.13518         96.9527         26.2553         26.2553 
        1.14131         96.2372         25.9342         25.9342 
        1.14745         95.5708         25.6186         25.6186 
        1.15359         94.5191         25.3084         25.3084 
        1.15973         94.3707         25.0032         25.0032 
        1.16584         93.7265         24.7044         24.7044 
        1.17197         93.1181         24.4102         24.4102 
        1.17811         92.4381         24.1199         24.1199 
        1.18424         91.7143         23.8352         23.8352 
        1.19038         91.6319         23.5543         23.5543 
        1.19652         90.9516         23.2781         23.2781 
        1.20267         90.2278         23.0064         23.0064 
        1.20881         89.6918         22.7391         22.7391 
        1.21495         89.2465         22.4765         22.4765 
        1.22108         88.7985         22.2182         22.2182 
         1.2272          87.951         21.9646         21.9646 
        1.23334         87.7077         21.7143         21.7143 
        1.23949          87.151         21.4675         21.4675 
        1.24562         86.4173         21.2252         21.2252 
        1.25174         85.8996          20.987          20.987 
        1.25789         85.8721         20.7518         20.7518 
        1.26402         85.1159         20.5206         20.5206 
        1.27014         84.7072         20.2936         20.2936 
        1.27628         83.9111         20.0694         20.0694 
        1.28244         83.7345         19.8481         19.8481 
        1.28858         83.1219         19.6305         19.6305 
        1.29471         82.6557         19.4167         19.4167 
        1.30084         81.9602         19.2063         19.2063 
        1.30697         81.9728         18.9987         18.9987 
        1.31312         81.2541         18.7939         18.7939 
        1.31925         80.7334         18.5928         18.5928 
        1.32537         80.2828         18.3948         18.3948 
        1.33151         80.0722         18.1991         18.1991 
        1.33765          79.408         18.0063         18.0063 
        1.34378         79.1536         17.8167         17.8167 
        1.34992         78.7103         17.6298         17.6298 
        1.35606         78.1275         17.4451         17.4451 
         1.3622         77.8477         17.2635         17.2635 
        1.36833         77.2116         17.0849         17.0849 
        1.37445         76.6487         16.9089         16.9089 
        1.38059         76.4851         16.7349         16.7349 
        1.38675         75.6819          16.563          16.563 
        1.39288          75.675         16.3942         16.3942 
        1.39901         74.9096         16.2278         16.2278 
        1.40515         74.6962         16.0634         16.0634 
         1.4113         74.3898         15.9013         15.9013 
        1.41742         73.9049         15.7421         15.7421 
        1.42355          73.491         15.5848         15.5848 
         1.4297         73.0957         15.4292         15.4292 
        1.43585           72.57         15.2759         15.2759 
        1.44198         72.2263         15.1252         15.1252 
        1.44809         71.7502         14.9768         14.9768 
        1.45423         71.4241         14.8299         14.8299 
        1.46036         70.9258         14.6852         14.6852 
        1.46649         70.7387         14.5425         14.5425 
        1.47263         70.3428         14.4015         14.4015 
        1.47877         70.0166         14.2625         14.2625 
        1.48491         69.6174         14.1251         14.1251 
        1.49104         69.0337         13.9898         13.9898 
        1.49718         68.8006         13.8563         13.8563 
        1.50333         68.4703         13.7242         13.7242 
        1.50947         68.1517         13.5942         13.5942 
         1.5156         67.8454         13.4661         13.4661 
        1.52172         67.3373         13.3396         13.3396 
        1.52787         66.8944         13.2145         13.2145 
          1.534         66.6794         13.0912         13.0912 
        1.54013         66.4298         12.9696         12.9696 
        1.54627         65.8043         12.8493         12.8493 
        1.55241          65.473         12.7306         12.7306 
        1.55855           65.28         12.6135         12.6135 
        1.56467         64.7082         12.4982         12.4982 
         1.5708         64.5914         12.3841         12.3841 
        1.57695         64.2046         12.2712         12.2712 
        1.58308         63.8369           12.16           12.16 
        1.58922         63.5194         12.0501         12.0501 
        1.59535         63.3009         11.9416         11.9416 
         1.6015         63.1856         11.8343         11.8343 
        1.60764         62.7153         11.7284         11.7284 
        1.61376         62.2932         11.6241         11.6241 
        1.61989         61.8266         11.5209         11.5209 
        1.62604         61.6243         11.4188         11.4188 
        1.63218         61.3474         11.3181         11.3181 
        1.63831         61.1138         11.2187         11.2187 
        1.64444         60.7896         11.1206         11.1206 
        1.65059         60.4832         11.0234         11.0234 
        1.65673         59.9817         10.9274         10.9274 
        1.66285         59.8121         10.8329         10.8329 
        1.66898         59.2967         10.7395         10.7395 
        1.67512         59.1909          10.647          10.647 
        1.68127         58.8849         10.5555         10.5555 
         1.6874         58.5203         10.4653         10.4653 
        1.69353         58.2943         10.3763         10.3763 
        1.69967         58.0407          10.288          10.288 
        1.70581          57.682         10.2008         10.2008 
        1.71193         57.3754          10.115          10.115 
        1.71806         57.0651           10.03           10.03 
        1.72421         56.8409         9.94579         9.94579 
        1.73035         56.5932         9.86266         9.86266 
        1.73649         56.2059          9.7805          9.7805 
        1.74262         55.7852         9.69935         9.69935 
        1.74876         55.7192         9.61907         9.61907 
        1.75489         55.2732         9.53987         9.53987 
        1.76101          55.021          9.4616          9.4616 
        1.76715         55.0224          9.3841          9.3841 
        1.77329         54.3954         9.30738         9.30738 
        1.77943         54.3857         9.23149         9.23149 
        1.78557         54.1116         9.15657         9.15657 
        1.79171          53.785         9.08247         9.08247 
        1.79785         53.5132         9.00918         9.00918 
        1.80399          53.197         8.93673         8.93673 
        1.81012         52.9955         8.86517         8.86517 
        1.81625         52.6762         8.79443         8.79443 
        1.82239         52.4301         8.72437         8.72437 
        1.82853         52.1976         8.65511         8.65511 
        1.83466          51.923         8.58667         8.58667 
        1.84078         51.6438         8.51905         8.51905 
        1.84692         51.3718         8.45205         8.45205 
        1.85306         51.1229          8.3857          8.3857 
         1.8592         50.9644         8.32016         8.32016 
        1.86533         50.6518         8.25537         8.25537 
        1.87147         50.3851          8.1912          8.1912 
