# k  (h/Mpc)    P(k)  (Mpc/h)^3    P_linear(k)  (Mpc/h)^3     P_NL(k)  ShotnoiseSubtracted = false
     0.00783031            6118         6152.37         6152.37 
       0.013688         7635.47         7778.95         7778.95 
       0.019231         7939.86         8018.19         8018.19 
      0.0249154          7562.5          7551.8          7551.8 
      0.0312784         6652.35         6690.65         6690.65 
      0.0375637         5774.13         5838.02         5838.02 
      0.0433917         5180.98         5193.66         5193.66 
      0.0492413         4671.57         4713.37         4713.37 
      0.0555754         4324.18         4336.91         4336.91 
      0.0619321         3933.63         4033.68         4033.68 
       0.067871         3706.69         3757.28         3757.28 
      0.0738098         3428.41         3457.49         3457.49 
      0.0800417         3106.26         3119.59         3119.59 
      0.0862327         2766.98          2786.1          2786.1 
      0.0921407         2489.38         2499.31         2499.31 
      0.0982031         2272.05         2257.53         2257.53 
       0.104506         2057.24         2068.11         2068.11 
       0.110769         1927.39         1932.37         1932.37 
       0.116806         1853.15         1832.59         1832.59 
       0.122832          1743.1         1743.77         1743.77 
       0.129052          1653.5         1647.79         1647.79 
       0.135211         1571.29         1541.72         1541.72 
       0.141259          1447.6         1429.43         1429.43 
       0.147318         1325.44         1317.13         1317.13 
       0.153489         1237.62          1212.5          1212.5 
       0.159709         1171.57         1123.88         1123.88 
       0.165845         1077.75         1054.88         1054.88 
       0.171974         1053.05         1001.62         1001.62 
       0.178125         1013.07         958.364         958.364 
       0.184229         949.332         919.391         919.391 
        0.19034         925.059          879.48          879.48 
       0.196428         888.655          836.54          836.54 
       0.202534         826.829         790.697         790.697 
       0.208729         802.725         743.736         743.736 
       0.214876         766.276         699.686         699.686 
       0.220989         714.707         660.737         660.737 
       0.227147          698.12         627.438         627.438 
        0.23329         672.448         599.743         599.743 
       0.239377         658.619         576.308         576.308 
       0.245482         626.918         554.978         554.978 
       0.251667         602.204         533.941         533.941 
       0.257832         594.141          512.52          512.52 
       0.263955         561.063         490.641         490.641 
       0.270079         540.599         468.646         468.646 
        0.27624         516.474         447.223         447.223 
       0.282372         503.352         427.398         427.398 
        0.28843         498.775         409.715         409.715 
       0.294538           474.3         393.871         393.871 
       0.300721          458.27         379.544         379.544 
        0.30691         451.061         366.401         366.401 
       0.313033         432.105         354.038         354.038 
       0.319153         424.502          341.93          341.93 
       0.325316         413.746         329.806         329.806 
        0.33145          403.32         317.855         317.855 
       0.337538         389.208         306.285         306.285 
       0.343633         376.926         295.222         295.222 
       0.349808         366.961         284.711         284.711 
       0.355968         359.116         275.009         275.009 
       0.362074         349.522         266.106         266.106 
       0.368217         344.962         257.754         257.754 
       0.374374          337.45         249.824         249.824 
       0.380519         323.941         242.198         242.198 
       0.386598         318.816          234.86          234.86 
       0.392688         311.147         227.673         227.673 
        0.39888         303.807         220.561         220.561 
       0.405048         297.998         213.728         213.728 
       0.411186          295.08         207.224         207.224 
       0.417313         289.118          201.06          201.06 
       0.423458         281.451         195.214         195.214 
       0.429607         275.134         189.666         189.666 
       0.435692         270.093         184.434         184.434 
       0.441815         264.979         179.383         179.383 
       0.447964         257.614         174.483         174.483 
       0.454126         253.665          169.72          169.72 
       0.460267         250.671          165.12          165.12 
       0.466387         245.752         160.683         160.683 
        0.47254         242.674         156.377         156.377 
       0.478662         235.418         152.258         152.258 
       0.484765         232.623         148.323         148.323 
       0.490885         229.261         144.538         144.538 
       0.497035         226.451         140.884         140.884 
       0.503198         223.343         137.361         137.361 
       0.509342         217.451         133.972         133.972 
       0.515458         214.951         130.709         130.709 
       0.521598         210.007         127.533         127.533 
       0.527764         207.801         124.441         124.441 
       0.533884         207.076         121.471         121.471 
           0.54         202.055         118.602         118.602 
       0.546137         197.539         115.821         115.821 
       0.552299         195.922         113.123         113.123 
       0.558452         192.446          110.52          110.52 
       0.564573          191.31         108.017         108.017 
       0.570708         186.846          105.59          105.59 
       0.576825           184.4         103.247         103.247 
       0.582926         182.469         100.981         100.981 
       0.589034         179.857         98.7774         98.7774 
       0.595184         178.302         96.6242         96.6242 
       0.601379         174.406         94.5203         94.5203 
       0.607522         171.545         92.4969         92.4969 
       0.613639         170.177         90.5432         90.5432 
       0.619772         168.186         88.6437         88.6437 
       0.625918         166.788         86.7968         86.7968 
       0.632068         163.167          85.003          85.003 
       0.638161         161.231         83.2766         83.2766 
         0.6443         160.552         81.5862         81.5862 
       0.650464         157.456         79.9369         79.9369 
       0.656582         156.698         78.3455         78.3455 
       0.662703         154.933         76.7974         76.7974 
       0.668861         151.832         75.2831         75.2831 
       0.675024         151.827         73.8091         73.8091 
       0.681124         149.388         72.3901         72.3901 
       0.687237         147.146         71.0063         71.0063 
       0.693381         146.252         69.6528         69.6528 
       0.699536         144.368         68.3328         68.3328 
       0.705665         142.474         67.0531         67.0531 
       0.711789         140.718         65.8079         65.8079 
       0.717957         139.253         64.5863         64.5863 
        0.72409         138.195         63.4029         63.4029 
       0.730186         137.656         62.2567         62.2567 
       0.736317         135.307         61.1331         61.1331 
       0.742472          133.58         60.0335         60.0335 
       0.748622         131.546         58.9623         58.9623 
        0.75476         131.634           57.92           57.92 
       0.760888         130.492         56.9048         56.9048 
       0.767043         128.204         55.9102         55.9102 
       0.773185         126.765         54.9419         54.9419 
       0.779291         125.374         54.0023         54.0023 
       0.785407         124.107         53.0836         53.0836 
       0.791564         123.594         52.1808         52.1808 
       0.797719         122.082         51.2997         51.2997 
       0.803834         121.461         50.4448         50.4448 
       0.809972         120.658         49.6066         49.6066 
       0.816124         119.055         48.7858         48.7858 
       0.822261          117.71         47.9861         47.9861 
       0.828378          117.48         47.2069         47.2069 
       0.834502         115.595         46.4446         46.4446 
       0.840667         115.065         45.6945         45.6945 
       0.846816         114.021         44.9632         44.9632 
       0.852925          112.81         44.2527         44.2527 
       0.859047         112.096         43.5563         43.5563 
       0.865192         110.855         42.8728         42.8728 
       0.871341         109.707         42.2037         42.2037 
       0.877463         109.019          41.552          41.552 
       0.883569         108.762          40.916          40.916 
       0.889708         107.777         40.2902         40.2902 
       0.895864         106.768          39.676          39.676 
       0.902008         105.762         39.0762         39.0762 
       0.908149         104.459         38.4892         38.4892 
       0.914301         104.382         37.9135         37.9135 
       0.920448         103.861         37.3502         37.3502 
       0.926574          101.88         36.8005         36.8005 
       0.932687         101.694         36.2632         36.2632 
       0.938823         100.854         35.7348         35.7348 
       0.944975         99.7042         35.2158         35.2158 
       0.951105         98.9574         34.7091         34.7091 
       0.957225         98.8905         34.2134         34.2134 
       0.963368         97.6973         33.7259         33.7259 
       0.969511         96.9174         33.2479         33.2479 
       0.975621          96.171         32.7819         32.7819 
       0.981748         95.3069         32.3237         32.3237 
       0.987916          94.689         31.8714         31.8714 
        0.99406         94.3083         31.4297         31.4297 
        1.00019         93.1776         30.9972         30.9972 
        1.00632         92.6223         30.5734         30.5734 
        1.01246         91.9832         30.1569         30.1569 
        1.01859         91.5727          29.749          29.749 
        1.02471         90.6904         29.3492         29.3492 
        1.03085         89.9314         28.9555         28.9555 
        1.03698         89.3898         28.5699         28.5699 
        1.04314         88.7312         28.1897         28.1897 
        1.04929         88.2822         27.8175         27.8175 
        1.05541         87.6681         27.4535         27.4535 
        1.06154         87.1381         27.0952         27.0952 
        1.06769         86.2697         26.7429         26.7429 
        1.07382         85.5919          26.398          26.398 
        1.07993         85.3262         26.0601         26.0601 
        1.08607         84.6166         25.7267         25.7267 
        1.09222          84.332         25.3989         25.3989 
        1.09836           83.44         25.0772         25.0772 
        1.10449         83.0214         24.7616         24.7616 
        1.11063         82.3398          24.451          24.451 
        1.11677         81.9524          24.146          24.146 
         1.1229         81.2512         23.8468         23.8468 
        1.12903         81.0151         23.5524         23.5524 
        1.13518         80.6642         23.2628         23.2628 
        1.14131         79.9241         22.9783         22.9783 
        1.14745         79.3087         22.6987         22.6987 
        1.15359         78.4625         22.4238         22.4238 
        1.15973         78.4216         22.1534         22.1534 
        1.16584         77.8412         21.8887         21.8887 
        1.17197         77.1937          21.628          21.628 
        1.17811         76.7494         21.3708         21.3708 
        1.18424         75.9946         21.1185         21.1185 
        1.19038         75.9453         20.8697         20.8697 
        1.19652         75.4825          20.625          20.625 
        1.20267         74.8508         20.3842         20.3842 
        1.20881         74.3867         20.1474         20.1474 
        1.21495         74.0373         19.9147         19.9147 
        1.22108         73.7001         19.6858         19.6858 
         1.2272          72.989         19.4611         19.4611 
        1.23334         72.7104         19.2394         19.2394 
        1.23949         72.2549         19.0207         19.0207 
        1.24562         71.6945          18.806          18.806 
        1.25174         71.2528          18.595          18.595 
        1.25789         71.2922         18.3866         18.3866 
        1.26402         70.6164         18.1818         18.1818 
        1.27014         70.2908         17.9806         17.9806 
        1.27628         69.6183         17.7819         17.7819 
        1.28244         69.4571         17.5859         17.5859 
        1.28858         69.0017         17.3931         17.3931 
        1.29471         68.6138         17.2036         17.2036 
        1.30084         67.9784         17.0172         17.0172 
        1.30697         68.0161         16.8333         16.8333 
        1.31312         67.3978         16.6518         16.6518 
        1.31925         66.9255         16.4736         16.4736 
        1.32537         66.5828         16.2982         16.2982 
        1.33151         66.3082         16.1248         16.1248 
        1.33765          65.859          15.954          15.954 
        1.34378         65.6449          15.786          15.786 
        1.34992         65.2104         15.6204         15.6204 
        1.35606          64.739         15.4568         15.4568 
         1.3622          64.443         15.2959         15.2959 
        1.36833         64.0306         15.1376         15.1376 
        1.37445         63.5068         14.9817         14.9817 
        1.38059         63.4149         14.8275         14.8275 
        1.38675         62.7139         14.6752         14.6752 
        1.39288         62.7355         14.5256         14.5256 
        1.39901         62.1491         14.3782         14.3782 
        1.40515         61.9328         14.2325         14.2325 
         1.4113         61.7637         14.0889         14.0889 
        1.41742         61.3379         13.9479         13.9479 
        1.42355         60.9144         13.8085         13.8085 
         1.4297          60.608         13.6707         13.6707 
        1.43585          60.176         13.5348         13.5348 
        1.44198         59.8405         13.4012         13.4012 
        1.44809          59.496         13.2698         13.2698 
        1.45423         59.2468         13.1396         13.1396 
        1.46036         58.8855         13.0114         13.0114 
        1.46649           58.75          12.885          12.885 
        1.47263         58.3559         12.7601         12.7601 
        1.47877          58.104         12.6369         12.6369 
        1.48491         57.8186         12.5152         12.5152 
        1.49104         57.3052         12.3953         12.3953 
        1.49718         57.0957          12.277          12.277 
        1.50333         56.8761           12.16           12.16 
        1.50947         56.5163         12.0448         12.0448 
         1.5156         56.2799         11.9312         11.9312 
        1.52172         55.8749         11.8192         11.8192 
        1.52787         55.5584         11.7084         11.7084 
          1.534         55.3492         11.5991         11.5991 
        1.54013         55.1674         11.4913         11.4913 
        1.54627         54.6376         11.3848         11.3848 
        1.55241         54.3659         11.2796         11.2796 
        1.55855         54.2694         11.1758         11.1758 
        1.56467         53.8328         11.0737         11.0737 
         1.5708         53.7082         10.9726         10.9726 
        1.57695         53.3772         10.8726         10.8726 
        1.58308         53.0219          10.774          10.774 
        1.58922         52.7763         10.6767         10.6767 
        1.59535         52.6009         10.5805         10.5805 
         1.6015         52.5196         10.4855         10.4855 
        1.60764         52.1027         10.3916         10.3916 
        1.61376         51.7743         10.2992         10.2992 
        1.61989         51.4538         10.2078         10.2078 
        1.62604         51.2428         10.1174         10.1174 
        1.63218         50.9742         10.0281         10.0281 
        1.63831         50.8194         9.94007         9.94007 
        1.64444         50.4991         9.85309         9.85309 
        1.65059         50.2966         9.76696         9.76696 
        1.65673         49.9119         9.68196         9.68196 
        1.66285         49.8359         9.59822         9.59822 
        1.66898         49.3289         9.51545         9.51545 
        1.67512         49.2629          9.4335          9.4335 
        1.68127         48.9921         9.35245         9.35245 
         1.6874         48.7201         9.27253         9.27253 
        1.69353          48.579         9.19361         9.19361 
        1.69967         48.3713         9.11542         9.11542 
        1.70581         47.9918         9.03818         9.03818 
        1.71193         47.7693         8.96214         8.96214 
        1.71806          47.577         8.88681         8.88681 
        1.72421         47.3324         8.81221         8.81221 
        1.73035         47.1056         8.73855         8.73855 
        1.73649         46.7759         8.66575         8.66575 
        1.74262         46.4675         8.59385         8.59385 
        1.74876         46.3938         8.52272         8.52272 
        1.75489         46.0739         8.45255         8.45255 
        1.76101         45.8813          8.3832          8.3832 
        1.76715         45.8415         8.31453         8.31453 
        1.77329         45.3455         8.24656         8.24656 
        1.77943         45.3698         8.17932         8.17932 
        1.78557         45.1176         8.11294         8.11294 
        1.79171         44.8702         8.04728         8.04728 
        1.79785         44.6175         7.98235         7.98235 
        1.80399         44.3936         7.91815         7.91815 
        1.81012         44.2381         7.85475         7.85475 
        1.81625         43.8938         7.79207         7.79207 
        1.82239         43.7045         7.72999         7.72999 
        1.82853         43.5817         7.66863         7.66863 
        1.83466         43.3063         7.60799         7.60799 
        1.84078         43.1202         7.54807         7.54807 
        1.84692         42.8673         7.48871         7.48871 
        1.85306         42.6403         7.42992         7.42992 
         1.8592         42.5367         7.37186         7.37186 
        1.86533         42.3157         7.31445         7.31445 
        1.87147         42.0814          7.2576          7.2576 
        1.87761         41.8096         7.20132         7.20132 
