# k  (h/Mpc)    Pcb(k)  (Mpc/h)^3    Pcb_linear(k) (Mpc/h)^3    Pcb_NL(k) (Mpc/h)^3   ShotnoiseSubtracted = false
     0.00783031          798.34         804.117         804.117 
       0.013688         1007.14         1017.29         1017.29 
       0.019231         1044.51         1048.82         1048.82 
      0.0249154         988.086          987.94          987.94 
      0.0312784         874.639         875.354         875.354 
      0.0375637         762.254         763.841         763.841 
      0.0433917          680.69         679.554         679.554 
      0.0492413         616.145         616.726         616.726 
      0.0555754          568.61         567.477         567.477 
      0.0619321          524.21         527.806         527.806 
       0.067871           490.7         491.645         491.645 
      0.0738098         452.097         452.421         452.421 
      0.0800417         408.844         408.207         408.207 
      0.0862327         364.574         364.571         364.571 
      0.0921407         326.952         327.045         327.045 
      0.0982031         296.414         295.409         295.409 
       0.104506         269.985         270.622         270.622 
       0.110769         252.425         252.862         252.862 
       0.116806         240.664         239.805         239.805 
       0.122832         227.775         228.182         228.182 
       0.129052          215.91         215.624         215.624 
       0.135211         202.713         201.744         201.744 
       0.141259         187.366          187.05          187.05 
       0.147318         171.986         172.355         172.355 
       0.153489          159.04         158.664         158.664 
       0.159709         148.013         147.067         147.067 
       0.165845         137.718         138.038         138.038 
       0.171974         132.247         131.069         131.069 
       0.178125         126.436         125.409         125.409 
       0.184229         120.595         120.309         120.309 
        0.19034         116.155         115.086         115.086 
       0.196428         110.435         109.468         109.468 
       0.202534         103.514         103.469         103.469 
       0.208729         98.3037         97.3234         97.3234 
       0.214876         93.1354         91.5592         91.5592 
       0.220989         86.9891         86.4625         86.4625 
       0.227147         83.7197          82.105          82.105 
        0.23329         80.1814         78.4809         78.4809 
       0.239377          77.249         75.4143         75.4143 
       0.245482         74.1559         72.6232         72.6232 
       0.251667         71.0285         69.8702         69.8702 
       0.257832         68.8626         67.0672         67.0672 
       0.263955         65.5071         64.2043         64.2043 
       0.270079           62.65          61.326          61.326 
        0.27624         59.5772         58.5227         58.5227 
       0.282372         57.1376         55.9284         55.9284 
        0.28843          55.464         53.6144         53.6144 
       0.294538         53.2074         51.5411         51.5411 
       0.300721          50.979         49.6664         49.6664 
        0.30691         49.6772         47.9465         47.9465 
       0.313033         47.8674         46.3288         46.3288 
       0.319153         46.7682         44.7443         44.7443 
       0.325316         44.5547         43.1578         43.1578 
        0.33145         42.9851         41.5939         41.5939 
       0.337538         41.5891         40.0798         40.0798 
       0.343633         40.2644         38.6322         38.6322 
       0.349808         38.8085         37.2568         37.2568 
       0.355968         37.4739         35.9871         35.9871 
       0.362074         36.5604         34.8222         34.8222 
       0.368217         35.4214         33.7292         33.7292 
       0.374374         34.6278         32.6914         32.6914 
       0.380519         33.2599         31.6936         31.6936 
       0.386598         32.2222         30.7333         30.7333 
       0.392688         31.2168         29.7929         29.7929 
        0.39888         30.4674         28.8622         28.8622 
       0.405048         29.6289         27.9681         27.9681 
       0.411186         28.7269          27.117          27.117 
       0.417313         27.9052         26.3104         26.3104 
       0.423458         27.0176         25.5454         25.5454 
       0.429607         26.4932         24.8193         24.8193 
       0.435692           25.91         24.1347         24.1347 
       0.441815         25.0081         23.4738         23.4738 
       0.447964         24.2205         22.8325         22.8325 
       0.454126         23.7705         22.2093         22.2093 
       0.460267         23.3782         21.6073         21.6073 
       0.466387         22.6743         21.0267         21.0267 
        0.47254         22.2186         20.4632         20.4632 
       0.478662         21.5664         19.9242         19.9242 
       0.484765         21.0583         19.4092         19.4092 
       0.490885         20.4555          18.914          18.914 
       0.497035         19.9639         18.4358         18.4358 
       0.503198         19.5544         17.9748         17.9748 
       0.509342         18.9997         17.5314         17.5314 
       0.515458         18.6906         17.1044         17.1044 
       0.521598         18.2554         16.6887         16.6887 
       0.527764         17.9571         16.2842         16.2842 
       0.533884         17.4084         15.8955         15.8955 
           0.54         17.0695         15.5201         15.5201 
       0.546137         16.5712         15.1561         15.1561 
       0.552299         16.2707          14.803          14.803 
       0.558452         15.9119         14.4625         14.4625 
       0.564573         15.6482          14.135          14.135 
       0.570708         15.2877         13.8174         13.8174 
       0.576825         14.9999         13.5107         13.5107 
       0.582926         14.6726         13.2141         13.2141 
       0.589034         14.4002         12.9258         12.9258 
       0.595184         14.1816         12.6441         12.6441 
       0.601379         13.7958         12.3688         12.3688 
       0.607522         13.5405          12.104          12.104 
       0.613639         13.2361         11.8483         11.8483 
       0.619772         13.0312         11.5998         11.5998 
       0.625918         12.7498         11.3581         11.3581 
       0.632068         12.5792         11.1233         11.1233 
       0.638161         12.3089         10.8974         10.8974 
         0.6443         12.0731         10.6762         10.6762 
       0.650464         11.7904         10.4604         10.4604 
       0.656582         11.6772         10.2522         10.2522 
       0.662703         11.4856         10.0496         10.0496 
       0.668861         11.1746         9.85142         9.85142 
       0.675024         10.9965         9.65853         9.65853 
       0.681124         10.9443         9.47285         9.47285 
       0.687237         10.6894         9.29177         9.29177 
       0.693381         10.4162         9.11465         9.11465 
       0.699536         10.3361         8.94191         8.94191 
       0.705665         10.1376         8.77446         8.77446 
       0.711789         9.92007         8.61152         8.61152 
       0.717957         9.72062         8.45166         8.45166 
        0.72409         9.61333          8.2968          8.2968 
       0.730186         9.52083         8.14682         8.14682 
       0.736317         9.30424         7.99978         7.99978 
       0.742472         9.18234         7.85588         7.85588 
       0.748622          9.0334         7.71571         7.71571 
        0.75476         8.80688         7.57931         7.57931 
       0.760888         8.73106         7.44647         7.44647 
       0.767043         8.53038         7.31632         7.31632 
       0.773185         8.42097          7.1896          7.1896 
       0.779291         8.36922         7.06665         7.06665 
       0.785407         8.19351         6.94643         6.94643 
       0.791564         8.08061         6.82829         6.82829 
       0.797719         7.92804           6.713           6.713 
       0.803834         7.84199         6.60113         6.60113 
       0.809972         7.69753         6.49144         6.49144 
       0.816124         7.59243         6.38404         6.38404 
       0.822261           7.491         6.27938         6.27938 
       0.828378         7.37163         6.17742         6.17742 
       0.834502         7.27591         6.07767         6.07767 
       0.840667         7.19603          5.9795          5.9795 
       0.846816         7.05321         5.88381         5.88381 
       0.852925         6.96461         5.79084         5.79084 
       0.859047         6.86914         5.69971         5.69971 
       0.865192         6.76642         5.61026         5.61026 
       0.871341         6.66774          5.5227          5.5227 
       0.877463         6.57537         5.43743         5.43743 
       0.883569         6.49891          5.3542          5.3542 
       0.889708         6.40486         5.27231         5.27231 
       0.895864         6.31834         5.19195         5.19195 
       0.902008         6.21659         5.11344         5.11344 
       0.908149         6.13794         5.03663         5.03663 
       0.914301         6.07548         4.96129         4.96129 
       0.920448         5.99171         4.88759         4.88759 
       0.926574          5.9449         4.81565         4.81565 
       0.932687         5.84071         4.74534         4.74534 
       0.938823         5.74289         4.67619         4.67619 
       0.944975          5.6972         4.60828         4.60828 
       0.951105          5.5936         4.54198         4.54198 
       0.957225         5.55073         4.47712         4.47712 
       0.963368         5.48606         4.41331         4.41331 
       0.969511         5.41724         4.35077         4.35077 
       0.975621         5.33821         4.28978         4.28978 
       0.981748         5.24346         4.22982         4.22982 
       0.987916         5.19561         4.17065         4.17065 
        0.99406         5.15682         4.11284         4.11284 
        1.00019         5.09352         4.05625         4.05625 
        1.00632         5.04057         4.00079         4.00079 
        1.01246         4.96517         3.94629         3.94629 
        1.01859          4.9043         3.89291         3.89291 
        1.02471         4.82707         3.84059         3.84059 
        1.03085         4.79595         3.78907         3.78907 
        1.03698         4.73812         3.73861         3.73861 
        1.04314         4.68603         3.68886         3.68886 
        1.04929         4.61836         3.64015         3.64015 
        1.05541         4.56422         3.59252         3.59252 
        1.06154         4.52482         3.54564         3.54564 
        1.06769         4.49378         3.49953         3.49953 
        1.07382         4.41465          3.4544          3.4544 
        1.07993         4.35931         3.41018         3.41018 
        1.08607         4.33026         3.36656         3.36656 
        1.09222         4.26472         3.32366         3.32366 
        1.09836         4.25303         3.28157         3.28157 
        1.10449         4.15937         3.24026         3.24026 
        1.11063         4.13392         3.19963         3.19963 
        1.11677         4.09251         3.15971         3.15971 
         1.1229         4.04279         3.12055         3.12055 
        1.12903         4.01312         3.08203         3.08203 
        1.13518         3.95033         3.04413         3.04413 
        1.14131         3.90987          3.0069          3.0069 
        1.14745         3.86311         2.97032         2.97032 
        1.15359         3.82831         2.93435         2.93435 
        1.15973         3.78501         2.89896         2.89896 
        1.16584         3.75033         2.86432         2.86432 
        1.17197         3.70501         2.83021         2.83021 
        1.17811         3.66603         2.79655         2.79655 
        1.18424         3.62827         2.76354         2.76354 
        1.19038         3.59285         2.73097         2.73097 
        1.19652         3.56429         2.69895         2.69895 
        1.20267         3.53182         2.66745         2.66745 
        1.20881         3.48829         2.63646         2.63646 
        1.21495         3.45642         2.60601         2.60601 
        1.22108         3.42359         2.57606         2.57606 
         1.2272         3.37519         2.54665         2.54665 
        1.23334          3.3636         2.51764         2.51764 
        1.23949         3.32141         2.48902         2.48902 
        1.24562         3.29129         2.46092         2.46092 
        1.25174         3.26558         2.43331         2.43331 
        1.25789           3.218         2.40604         2.40604 
        1.26402         3.18955         2.37924         2.37924 
        1.27014         3.15916         2.35291         2.35291 
        1.27628         3.12787         2.32691         2.32691 
        1.28244         3.10458         2.30126         2.30126 
        1.28858         3.07737         2.27603         2.27603 
        1.29471          3.0346         2.25124         2.25124 
        1.30084         3.00976         2.22684         2.22684 
        1.30697         2.98939         2.20278         2.20278 
        1.31312         2.96093         2.17903         2.17903 
        1.31925         2.93256         2.15571         2.15571 
        1.32537         2.90907         2.13276         2.13276 
        1.33151         2.87629         2.11007         2.11007 
        1.33765         2.85312         2.08772         2.08772 
        1.34378         2.83107         2.06574         2.06574 
        1.34992         2.80615         2.04406         2.04406 
        1.35606         2.78033         2.02265         2.02265 
         1.3622         2.75721         2.00159         2.00159 
        1.36833         2.72491         1.98089         1.98089 
        1.37445         2.69873         1.96048         1.96048 
        1.38059         2.67688         1.94031         1.94031 
        1.38675         2.65512         1.92037         1.92037 
        1.39288         2.63897          1.9008          1.9008 
        1.39901         2.60613         1.88151         1.88151 
        1.40515         2.58416         1.86245         1.86245 
         1.4113         2.56913         1.84366         1.84366 
        1.41742         2.53905          1.8252          1.8252 
        1.42355         2.51646         1.80696         1.80696 
         1.4297         2.50275         1.78892         1.78892 
        1.43585         2.47876         1.77114         1.77114 
        1.44198         2.45736         1.75367         1.75367 
        1.44809         2.44083         1.73646         1.73646 
        1.45423          2.4196         1.71943         1.71943 
        1.46036         2.40052         1.70266         1.70266 
        1.46649         2.36942         1.68611         1.68611 
        1.47263         2.36178         1.66976         1.66976 
        1.47877          2.3452         1.65365         1.65365 
        1.48491         2.31635         1.63772         1.63772 
        1.49104         2.30182         1.62203         1.62203 
        1.49718         2.28226         1.60655         1.60655 
        1.50333         2.26305         1.59124         1.59124 
        1.50947          2.2444         1.57616         1.57616 
         1.5156         2.22725         1.56131         1.56131 
        1.52172         2.21165         1.54664         1.54664 
        1.52787         2.19347         1.53214         1.53214 
          1.534         2.17733         1.51784         1.51784 
        1.54013          2.1573         1.50374         1.50374 
        1.54627         2.14094          1.4898          1.4898 
        1.55241         2.12057         1.47603         1.47603 
        1.55855         2.10803         1.46245         1.46245 
        1.56467         2.09277         1.44909         1.44909 
         1.5708         2.07464         1.43585         1.43585 
        1.57695         2.05466         1.42277         1.42277 
        1.58308         2.03749         1.40987         1.40987 
        1.58922           2.031         1.39713         1.39713 
        1.59535         2.00744         1.38455         1.38455 
         1.6015         1.99144         1.37211         1.37211 
        1.60764         1.98092         1.35983         1.35983 
        1.61376         1.96168         1.34774         1.34774 
        1.61989         1.94852         1.33578         1.33578 
        1.62604         1.93051         1.32394         1.32394 
        1.63218         1.92333         1.31226         1.31226 
        1.63831         1.90863         1.30074         1.30074 
        1.64444         1.89225         1.28936         1.28936 
        1.65059         1.88223         1.27809         1.27809 
        1.65673         1.86194         1.26697         1.26697 
        1.66285         1.84897         1.25601         1.25601 
        1.66898         1.83818         1.24518         1.24518 
        1.67512         1.81954         1.23445         1.23445 
        1.68127         1.80617         1.22385         1.22385 
         1.6874         1.80157         1.21339         1.21339 
        1.69353         1.78061         1.20306         1.20306 
        1.69967         1.77029         1.19283         1.19283 
        1.70581         1.76222         1.18272         1.18272 
        1.71193         1.74048         1.17277         1.17277 
        1.71806         1.73129         1.16292         1.16292 
        1.72421         1.72202         1.15315         1.15315 
        1.73035         1.70392         1.14351         1.14351 
        1.73649         1.69971         1.13399         1.13399 
        1.74262         1.68469         1.12458         1.12458 
        1.74876         1.67256         1.11527         1.11527 
        1.75489         1.66155         1.10609         1.10609 
        1.76101         1.64617         1.09701         1.09701 
        1.76715         1.63865         1.08803         1.08803 
        1.77329         1.62549         1.07913         1.07913 
        1.77943         1.61575         1.07033         1.07033 
        1.78557         1.60622         1.06165         1.06165 
        1.79171         1.59641         1.05306         1.05306 
        1.79785         1.58368         1.04456         1.04456 
        1.80399         1.57242         1.03616         1.03616 
        1.81012         1.56053         1.02786         1.02786 
        1.81625         1.54781         1.01966         1.01966 
        1.82239         1.54006         1.01154         1.01154 
        1.82853         1.52946         1.00351         1.00351 
        1.83466         1.51636        0.995571        0.995571 
        1.84078         1.50764        0.987731        0.987731 
        1.84692         1.49853        0.979963        0.979963 
        1.85306         1.49143         0.97227         0.97227 
         1.8592         1.47801        0.964672        0.964672 
        1.86533         1.46996         0.95716         0.95716 
        1.87147         1.45826        0.949719        0.949719 
