# k  (h/Mpc)    P(k)  (Mpc/h)^3    P_linear(k)  (Mpc/h)^3     P_NL(k)  ShotnoiseSubtracted = false
     0.00783031         322.401         324.859         324.859 
       0.013688         407.615         411.065         411.065 
       0.019231         422.476         423.837         423.837 
      0.0249154         399.043         399.249         399.249 
      0.0312784         353.619         353.759         353.759 
      0.0375637         308.429         308.697         308.697 
      0.0433917           275.1         274.636         274.636 
      0.0492413         249.221         249.246         249.246 
      0.0555754         229.749         229.344         229.344 
      0.0619321         212.418         213.312         213.312 
       0.067871         198.482         198.697         198.697 
      0.0738098         182.767         182.845         182.845 
      0.0800417          165.17         164.977         164.977 
      0.0862327         147.374         147.342         147.342 
      0.0921407         132.158         132.176         132.176 
      0.0982031         119.663          119.39          119.39 
       0.104506         109.192         109.373         109.373 
       0.110769         102.048         102.194         102.194 
       0.116806         97.0839         96.9177         96.9177 
       0.122832         92.0483         92.2203         92.2203 
       0.129052         87.1631         87.1448         87.1448 
       0.135211         81.7045         81.5352         81.5352 
       0.141259         75.5946         75.5966         75.5966 
       0.147318         69.4848         69.6579         69.6579 
       0.153489         64.1451         64.1246         64.1246 
       0.159709         59.5704         59.4375         59.4375 
       0.165845         55.5981         55.7887         55.7887 
       0.171974         53.1534         52.9719         52.9719 
       0.178125         50.8131         50.6844         50.6844 
       0.184229         48.5803         48.6232         48.6232 
        0.19034         46.6796         46.5125         46.5125 
       0.196428         44.3521         44.2416         44.2416 
       0.202534         41.6928         41.8172         41.8172 
       0.208729         39.4339         39.3336         39.3336 
       0.214876         37.2631         37.0039         37.0039 
       0.220989         34.9278         34.9441         34.9441 
       0.227147         33.4484          33.183          33.183 
        0.23329         31.9976         31.7184         31.7184 
       0.239377         30.7748          30.479          30.479 
       0.245482         29.5956         29.3509         29.3509 
       0.251667         28.3739         28.2383         28.2383 
       0.257832         27.3853         27.1054         27.1054 
       0.263955         26.1246         25.9484         25.9484 
       0.270079         24.9618         24.7851         24.7851 
        0.27624           23.75         23.6521         23.6521 
       0.282372         22.7339         22.6037         22.6037 
        0.28843         21.9473         21.6685         21.6685 
       0.294538         21.0753         20.8305         20.8305 
       0.300721         20.2252         20.0729         20.0729 
        0.30691         19.6367         19.3778         19.3778 
       0.313033         18.9437         18.7239         18.7239 
       0.319153         18.4406         18.0836         18.0836 
       0.325316         17.6074         17.4424         17.4424 
        0.33145         16.9811         16.8103         16.8103 
       0.337538          16.406         16.1984         16.1984 
       0.343633         15.8607         15.6134         15.6134 
       0.349808         15.2772         15.0574         15.0574 
       0.355968         14.7428         14.5443         14.5443 
       0.362074         14.3318         14.0735         14.0735 
       0.368217         13.8771         13.6318         13.6318 
       0.374374         13.5333         13.2124         13.2124 
       0.380519         13.0378         12.8091         12.8091 
       0.386598         12.6243          12.421          12.421 
       0.392688          12.225         12.0409         12.0409 
        0.39888         11.8928         11.6647         11.6647 
       0.405048         11.5444         11.3034         11.3034 
       0.411186          11.185         10.9594         10.9594 
       0.417313         10.8653         10.6334         10.6334 
       0.423458         10.5131         10.3243         10.3243 
       0.429607         10.2776         10.0308         10.0308 
       0.435692         10.0193         9.75414         9.75414 
       0.441815         9.70647         9.48701         9.48701 
       0.447964         9.40395         9.22785         9.22785 
       0.454126         9.20405         8.97596         8.97596 
       0.460267         9.00798         8.73269         8.73269 
       0.466387         8.74478         8.49802         8.49802 
        0.47254         8.53908         8.27028         8.27028 
       0.478662         8.30117         8.05245         8.05245 
       0.484765         8.09722         7.84431         7.84431 
       0.490885         7.87195         7.64416         7.64416 
       0.497035         7.65604         7.45092         7.45092 
       0.503198         7.49738         7.26459         7.26459 
       0.509342         7.28573         7.08536         7.08536 
       0.515458         7.14457          6.9128          6.9128 
       0.521598         6.97644         6.74482         6.74482 
       0.527764         6.84306         6.58132         6.58132 
       0.533884         6.63219         6.42424         6.42424 
           0.54         6.49535         6.27251         6.27251 
       0.546137         6.31972          6.1254          6.1254 
       0.552299         6.19346          5.9827          5.9827 
       0.558452         6.05451         5.84506         5.84506 
       0.564573         5.93152          5.7127          5.7127 
       0.570708         5.79949         5.58435         5.58435 
       0.576825         5.67636         5.46041         5.46041 
       0.582926         5.54267         5.34055         5.34055 
       0.589034         5.44544         5.22403         5.22403 
       0.595184         5.34499         5.11015         5.11015 
       0.601379         5.20772         4.99888         4.99888 
       0.607522         5.09843         4.89187         4.89187 
       0.613639         4.97659         4.78855         4.78855 
       0.619772         4.89805         4.68809         4.68809 
       0.625918         4.79415         4.59041         4.59041 
       0.632068         4.70779         4.49554         4.49554 
       0.638161         4.60803         4.40424         4.40424 
         0.6443         4.51393         4.31484         4.31484 
       0.650464         4.42129         4.22761         4.22761 
       0.656582          4.3577         4.14345         4.14345 
       0.662703         4.27249         4.06158         4.06158 
       0.668861         4.16421         3.98149         3.98149 
       0.675024         4.09434         3.90353         3.90353 
       0.681124         4.06012         3.82849         3.82849 
       0.687237         3.96216          3.7553          3.7553 
       0.693381         3.86519         3.68372         3.68372 
       0.699536         3.82163         3.61391         3.61391 
       0.705665         3.74933         3.54623         3.54623 
       0.711789         3.66451         3.48038         3.48038 
       0.717957         3.59937         3.41577         3.41577 
        0.72409         3.54151         3.35318         3.35318 
       0.730186         3.49744         3.29257         3.29257 
       0.736317         3.42019         3.23314         3.23314 
       0.742472         3.37167         3.17499         3.17499 
       0.748622         3.31608         3.11834         3.11834 
        0.75476         3.24233         3.06321         3.06321 
       0.760888         3.20323         3.00952         3.00952 
       0.767043         3.11848         2.95692         2.95692 
       0.773185         3.07954         2.90571         2.90571 
       0.779291         3.05082         2.85601         2.85601 
       0.785407         2.98873         2.80743         2.80743 
       0.791564          2.9403         2.75968         2.75968 
       0.797719         2.88986         2.71308         2.71308 
       0.803834         2.84398         2.66787         2.66787 
       0.809972         2.79723         2.62354         2.62354 
       0.816124         2.75277         2.58013         2.58013 
       0.822261         2.71407         2.53784         2.53784 
       0.828378         2.66578         2.49663         2.49663 
       0.834502         2.62611         2.45631         2.45631 
       0.840667          2.5928         2.41664         2.41664 
       0.846816         2.54808         2.37796         2.37796 
       0.852925         2.50433         2.34039         2.34039 
       0.859047         2.46806         2.30356         2.30356 
       0.865192         2.43109         2.26741         2.26741 
       0.871341         2.39793         2.23202         2.23202 
       0.877463         2.35558         2.19756         2.19756 
       0.883569          2.3229         2.16392         2.16392 
       0.889708         2.29405         2.13083         2.13083 
       0.895864         2.26035         2.09834         2.09834 
       0.902008         2.21961         2.06662         2.06662 
       0.908149         2.19326         2.03557         2.03557 
       0.914301         2.16642         2.00513         2.00513 
       0.920448         2.13587         1.97534         1.97534 
       0.926574         2.11286         1.94627         1.94627 
       0.932687         2.07872         1.91785         1.91785 
       0.938823         2.04046          1.8899          1.8899 
       0.944975         2.02024         1.86246         1.86246 
       0.951105         1.98157         1.83566         1.83566 
       0.957225         1.95858         1.80944         1.80944 
       0.963368         1.93772         1.78366         1.78366 
       0.969511          1.9138         1.75838         1.75838 
       0.975621         1.88132         1.73373         1.73373 
       0.981748         1.84772          1.7095          1.7095 
       0.987916          1.8276         1.68558         1.68558 
        0.99406          1.8101         1.66222         1.66222 
        1.00019         1.78466         1.63935         1.63935 
        1.00632         1.76745         1.61693         1.61693 
        1.01246         1.74064         1.59491         1.59491 
        1.01859         1.71828         1.57333         1.57333 
        1.02471         1.68947         1.55219         1.55219 
        1.03085         1.66932         1.53137         1.53137 
        1.03698         1.65149         1.51097         1.51097 
        1.04314         1.63113         1.49087         1.49087 
        1.04929         1.61341         1.47118         1.47118 
        1.05541         1.58571         1.45193         1.45193 
        1.06154         1.57142         1.43298         1.43298 
        1.06769         1.55466         1.41435         1.41435 
        1.07382         1.53213         1.39611         1.39611 
        1.07993         1.51303         1.37824         1.37824 
        1.08607         1.49701         1.36061         1.36061 
        1.09222         1.47443         1.34327         1.34327 
        1.09836         1.46279         1.32626         1.32626 
        1.10449         1.43776         1.30956         1.30956 
        1.11063         1.42166         1.29314         1.29314 
        1.11677         1.40803         1.27701         1.27701 
         1.1229         1.38562         1.26118         1.26118 
        1.12903         1.37528         1.24561         1.24561 
        1.13518         1.35526          1.2303          1.2303 
        1.14131          1.3417         1.21525         1.21525 
        1.14745         1.32843         1.20047         1.20047 
        1.15359         1.31098         1.18593         1.18593 
        1.15973         1.29721         1.17163         1.17163 
        1.16584         1.28019         1.15763         1.15763 
        1.17197         1.26442         1.14384         1.14384 
        1.17811         1.24993         1.13024         1.13024 
        1.18424          1.2362          1.1169          1.1169 
        1.19038         1.22064         1.10373         1.10373 
        1.19652         1.21191         1.09079         1.09079 
        1.20267         1.19992         1.07806         1.07806 
        1.20881         1.18064         1.06553         1.06553 
        1.21495         1.17064         1.05323         1.05323 
        1.22108         1.15834         1.04112         1.04112 
         1.2272         1.14145         1.02924         1.02924 
        1.23334         1.13209         1.01751         1.01751 
        1.23949          1.1216         1.00595         1.00595 
        1.24562         1.10859        0.994591        0.994591 
        1.25174         1.09728        0.983431        0.983431 
        1.25789         1.08203        0.972409        0.972409 
        1.26402         1.07177        0.961578        0.961578 
        1.27014         1.05778         0.95094         0.95094 
        1.27628         1.05027        0.940432        0.940432 
        1.28244         1.03951        0.930064        0.930064 
        1.28858         1.02625        0.919868        0.919868 
        1.29471         1.01504        0.909848        0.909848 
        1.30084         1.00597        0.899988        0.899988 
        1.30697        0.998559         0.89026         0.89026 
        1.31312        0.986844        0.880664        0.880664 
        1.31925         0.97661         0.87124         0.87124 
        1.32537        0.967028        0.861964        0.861964 
        1.33151        0.956269        0.852791        0.852791 
        1.33765        0.946783        0.843758        0.843758 
        1.34378        0.935666        0.834876        0.834876 
        1.34992        0.930043        0.826116        0.826116 
        1.35606        0.918641        0.817463        0.817463 
         1.3622        0.910281        0.808952        0.808952 
        1.36833        0.901755        0.800583        0.800583 
        1.37445         0.89279        0.792337        0.792337 
        1.38059         0.88375        0.784184        0.784184 
        1.38675        0.874986        0.776127        0.776127 
        1.39288        0.865943        0.768216        0.768216 
        1.39901        0.858484         0.76042         0.76042 
        1.40515        0.849118        0.752715        0.752715 
         1.4113        0.844627        0.745121        0.745121 
        1.41742        0.834007        0.737662        0.737662 
        1.42355        0.823427        0.730292        0.730292 
         1.4297          0.8196        0.723001        0.723001 
        1.43585        0.809546        0.715813        0.715813 
        1.44198        0.803084        0.708751        0.708751 
        1.44809        0.794523        0.701799        0.701799 
        1.45423        0.788271        0.694915        0.694915 
        1.46036        0.780697        0.688136        0.688136 
        1.46649        0.772514        0.681447        0.681447 
        1.47263        0.765027        0.674841        0.674841 
        1.47877        0.762163        0.668327        0.668327 
        1.48491        0.749986         0.66189         0.66189 
        1.49104        0.747413        0.655551        0.655551 
        1.49718        0.737475        0.649292        0.649292 
        1.50333        0.732635        0.643105        0.643105 
        1.50947        0.726556        0.637012        0.637012 
         1.5156        0.719318        0.631008        0.631008 
        1.52172        0.713822        0.625081        0.625081 
        1.52787        0.705444         0.61922         0.61922 
          1.534        0.701478        0.613441        0.613441 
        1.54013        0.694625        0.607743        0.607743 
        1.54627        0.688231        0.602107        0.602107 
        1.55241        0.681443        0.596543        0.596543 
        1.55855        0.676032        0.591057        0.591057 
        1.56467        0.670552        0.585655        0.585655 
         1.5708        0.664003        0.580306        0.580306 
        1.57695        0.657703        0.575017        0.575017 
        1.58308        0.650801        0.569806        0.569806 
        1.58922        0.647702        0.564656        0.564656 
        1.59535         0.64049        0.559572        0.559572 
         1.6015        0.635107        0.554545        0.554545 
        1.60764        0.630198        0.549582        0.549582 
        1.61376        0.624616        0.544694        0.544694 
        1.61989        0.619579        0.539861        0.539861 
        1.62604        0.613418        0.535077        0.535077 
        1.63218            0.61        0.530355        0.530355 
        1.63831        0.603548        0.525701        0.525701 
        1.64444        0.599186        0.521101        0.521101 
        1.65059        0.593708        0.516546        0.516546 
        1.65673        0.588781         0.51205         0.51205 
        1.66285        0.584503        0.507621        0.507621 
        1.66898        0.579681        0.503244        0.503244 
        1.67512        0.573519         0.49891         0.49891 
        1.68127        0.568494        0.494623        0.494623 
         1.6874        0.565619        0.490397        0.490397 
        1.69353        0.560293        0.486223        0.486223 
        1.69967        0.555983        0.482087        0.482087 
        1.70581        0.552187        0.478003        0.478003 
        1.71193        0.547861        0.473981        0.473981 
        1.71806        0.543205        0.469997        0.469997 
        1.72421        0.538366        0.466051        0.466051 
        1.73035        0.532824        0.462156        0.462156 
        1.73649        0.531382        0.458306        0.458306 
        1.74262         0.52502        0.454503        0.454503 
        1.74876        0.522202        0.450741        0.450741 
        1.75489        0.518062         0.44703         0.44703 
        1.76101        0.513008        0.443362        0.443362 
        1.76715         0.50957        0.439731        0.439731 
        1.77329        0.505592        0.436136        0.436136 
        1.77943        0.501434         0.43258         0.43258 
        1.78557        0.499143        0.429069        0.429069 
        1.79171        0.494886        0.425597        0.425597 
        1.79785        0.490283        0.422163        0.422163 
        1.80399        0.485426        0.418767        0.418767 
        1.81012        0.482905        0.415414        0.415414 
        1.81625        0.479886          0.4121          0.4121 
        1.82239        0.476358        0.408816        0.408816 
        1.82853        0.472007        0.405571        0.405571 
        1.83466        0.468237        0.402364        0.402364 
        1.84078        0.464136        0.399195        0.399195 
        1.84692        0.461459        0.396056        0.396056 
        1.85306         0.45831        0.392947        0.392947 
         1.8592        0.454502        0.389876        0.389876 
        1.86533        0.451877         0.38684         0.38684 
        1.87147        0.447081        0.383833        0.383833 
        1.87761        0.444172        0.380857        0.380857 
