# k  (h/Mpc)    P(k)  (Mpc/h)^3    P_linear(k)  (Mpc/h)^3     P_NL(k)  ShotnoiseSubtracted = false
     0.00783031         6481.11         6517.12         6517.12 
       0.013688         8084.59         8239.97         8239.97 
       0.019231         8407.74         8493.32         8493.32 
      0.0249154         8010.41         7999.26         7999.26 
      0.0312784         7044.09         7087.06         7087.06 
      0.0375637         6112.99          6183.9          6183.9 
      0.0433917            5486         5501.36         5501.36 
      0.0492413         4945.76         4992.61         4992.61 
      0.0555754         4578.19         4593.84         4593.84 
      0.0619321         4162.31         4272.64         4272.64 
       0.067871         3922.98         3979.87         3979.87 
      0.0738098         3629.27         3662.32         3662.32 
      0.0800417         3288.32          3304.4          3304.4 
      0.0862327         2929.21         2951.15         2951.15 
      0.0921407         2635.97         2647.37         2647.37 
      0.0982031         2406.58         2391.27         2391.27 
       0.104506         2178.71         2190.63         2190.63 
       0.110769         2041.36         2046.85         2046.85 
       0.116806         1963.18         1941.16         1941.16 
       0.122832         1846.39         1847.07         1847.07 
       0.129052         1751.19         1745.41         1745.41 
       0.135211         1665.21         1633.05         1633.05 
       0.141259         1533.96         1514.11         1514.11 
       0.147318         1404.69         1395.16         1395.16 
       0.153489         1312.21         1284.33         1284.33 
       0.159709         1243.26         1190.45         1190.45 
       0.165845         1143.38         1117.37         1117.37 
       0.171974         1117.65         1060.96         1060.96 
       0.178125         1075.74         1015.14         1015.14 
       0.184229         1007.15         973.856         973.856 
        0.19034         981.936         931.581         931.581 
       0.196428         943.829         886.097         886.097 
       0.202534         878.214         837.538         837.538 
       0.208729         853.266         787.795         787.795 
       0.214876         814.573         741.135         741.135 
       0.220989         760.272         699.879         699.879 
       0.227147          742.73         664.607         664.607 
        0.23329         715.471         635.272         635.272 
       0.239377         701.441         610.449         610.449 
       0.245482         667.589         587.855         587.855 
       0.251667         641.434         565.572         565.572 
       0.257832         633.001         542.882         542.882 
       0.263955         597.925         519.707         519.707 
       0.270079          576.38         496.408         496.408 
        0.27624         550.783         473.717         473.717 
       0.282372         537.244         452.718         452.718 
        0.28843         532.431         433.987         433.987 
       0.294538         506.164         417.204         417.204 
       0.300721         489.513         402.029         402.029 
        0.30691         481.784         388.107         388.107 
       0.313033         461.491         375.012         375.012 
       0.319153         453.454         362.186         362.186 
       0.325316         442.546         349.344         349.344 
        0.33145         431.637         336.685         336.685 
       0.337538         416.448         324.429         324.429 
       0.343633         403.405         312.711         312.711 
       0.349808         392.923         301.577         301.577 
       0.355968         384.711           291.3           291.3 
       0.362074         374.135          281.87          281.87 
       0.368217         369.656         273.023         273.023 
       0.374374          361.74         264.623         264.623 
       0.380519         347.333         256.546         256.546 
       0.386598          342.08         248.773         248.773 
       0.392688         334.001          241.16          241.16 
        0.39888         325.927         233.627         233.627 
       0.405048          319.82          226.39          226.39 
       0.411186         316.991           219.5           219.5 
       0.417313         310.853         212.971         212.971 
       0.423458         302.519         206.779         206.779 
       0.429607         295.582         200.902         200.902 
       0.435692           290.2          195.36          195.36 
       0.441815         284.967          190.01          190.01 
       0.447964         277.203         184.819         184.819 
       0.454126         273.101         179.774         179.774 
       0.460267         269.705         174.902         174.902 
       0.466387         264.531         170.202         170.202 
        0.47254         261.163         165.641         165.641 
       0.478662         253.583         161.278         161.278 
       0.484765         250.625         157.109         157.109 
       0.490885         247.216           153.1           153.1 
       0.497035         243.942          149.23          149.23 
       0.503198         240.995         145.498         145.498 
       0.509342         234.635         141.909         141.909 
       0.515458          231.89         138.452         138.452 
       0.521598         226.664         135.088         135.088 
       0.527764         224.237         131.813         131.813 
       0.533884          223.52         128.667         128.667 
           0.54           218.3         125.628         125.628 
       0.546137         213.433         122.682         122.682 
       0.552299         211.881         119.824         119.824 
       0.558452         208.155         117.067         117.067 
       0.564573         206.826         114.416         114.416 
       0.570708         202.228         111.846         111.846 
       0.576825         199.474         109.363         109.363 
       0.582926         197.398         106.963         106.963 
       0.589034         194.635         104.629         104.629 
       0.595184         193.045         102.348         102.348 
       0.601379         188.966          100.12          100.12 
       0.607522         185.786         97.9764         97.9764 
       0.613639         184.351          95.907          95.907 
       0.619772         182.385         93.8949         93.8949 
       0.625918         180.802         91.9387         91.9387 
       0.632068         176.878         90.0385         90.0385 
       0.638161         174.923         88.2099         88.2099 
         0.6443         174.149         86.4193         86.4193 
       0.650464         170.823         84.6724         84.6724 
       0.656582         169.931         82.9867         82.9867 
       0.662703         168.122         81.3469         81.3469 
       0.668861         164.809         79.7429         79.7429 
       0.675024         164.771         78.1815         78.1815 
       0.681124         162.196         76.6785         76.6785 
       0.687237         159.923         75.2127         75.2127 
       0.693381         158.826          73.779          73.779 
       0.699536         156.833         72.3808         72.3808 
       0.705665         154.855         71.0254         71.0254 
       0.711789          152.98         69.7064         69.7064 
       0.717957         151.401         68.4124         68.4124 
        0.72409         150.208         67.1589         67.1589 
       0.730186         149.788         65.9448         65.9448 
       0.736317         147.258         64.7546         64.7546 
       0.742472         145.335         63.5899         63.5899 
       0.748622         143.132         62.4552         62.4552 
        0.75476         143.397         61.3512         61.3512 
       0.760888         142.022         60.2758         60.2758 
       0.767043         139.596         59.2223         59.2223 
       0.773185         138.084         58.1966         58.1966 
       0.779291         136.539         57.2014         57.2014 
       0.785407         135.285         56.2283         56.2283 
       0.791564         134.594          55.272          55.272 
       0.797719         132.915         54.3387         54.3387 
       0.803834         132.439         53.4332         53.4332 
       0.809972         131.533         52.5453         52.5453 
       0.816124         129.735         51.6759         51.6759 
       0.822261         128.354         50.8288         50.8288 
       0.828378         128.127         50.0035         50.0035 
       0.834502         126.053          49.196          49.196 
       0.840667         125.522         48.4014         48.4014 
       0.846816         124.366         47.6268         47.6268 
       0.852925         123.068         46.8743         46.8743 
       0.859047         122.184         46.1366         46.1366 
       0.865192         121.024         45.4126         45.4126 
       0.871341         119.747         44.7038         44.7038 
       0.877463         118.973         44.0136         44.0136 
       0.883569         118.726         43.3399         43.3399 
       0.889708         117.658          42.677          42.677 
       0.895864         116.532         42.0265         42.0265 
       0.902008         115.432          41.391          41.391 
       0.908149         114.002         40.7693         40.7693 
       0.914301         113.996         40.1594         40.1594 
       0.920448         113.409         39.5628         39.5628 
       0.926574         111.308         38.9806         38.9806 
       0.932687          111.14         38.4114         38.4114 
       0.938823          110.22         37.8517         37.8517 
       0.944975          108.99          37.302          37.302 
       0.951105         108.173         36.7653         36.7653 
       0.957225         108.094         36.2403         36.2403 
       0.963368         106.774         35.7238         35.7238 
       0.969511         105.936         35.2175         35.2175 
       0.975621         105.092         34.7239         34.7239 
       0.981748         104.196         34.2385         34.2385 
       0.987916         103.554         33.7595         33.7595 
        0.99406         103.134         33.2916         33.2916 
        1.00019         101.929         32.8335         32.8335 
        1.00632         101.338         32.3846         32.3846 
        1.01246         100.622         31.9434         31.9434 
        1.01859         100.141         31.5113         31.5113 
        1.02471         99.2607         31.0879         31.0879 
        1.03085         98.3885         30.6708         30.6708 
        1.03698         97.7868         30.2623         30.2623 
        1.04314         97.0879         29.8597         29.8597 
        1.04929         96.6666         29.4654         29.4654 
        1.05541         95.9715         29.0798         29.0798 
        1.06154         95.3763         28.7003         28.7003 
        1.06769         94.4869         28.3271         28.3271 
        1.07382         93.7286         27.9618         27.9618 
        1.07993         93.4252         27.6039         27.6039 
        1.08607         92.6399         27.2507         27.2507 
        1.09222         92.3401         26.9035         26.9035 
        1.09836          91.339         26.5628         26.5628 
        1.10449         90.8871         26.2284         26.2284 
        1.11063         90.1805         25.8995         25.8995 
        1.11677         89.6919         25.5764         25.5764 
         1.1229         88.9765         25.2595         25.2595 
        1.12903          88.692         24.9476         24.9476 
        1.13518         88.2505         24.6409         24.6409 
        1.14131         87.5231         24.3395         24.3395 
        1.14745          86.884         24.0434         24.0434 
        1.15359         85.9364         23.7522         23.7522 
        1.15973         85.8527         23.4658         23.4658 
        1.16584         85.2405         23.1854         23.1854 
        1.17197         84.6149         22.9092         22.9092 
        1.17811         84.0585         22.6368         22.6368 
        1.18424          83.319         22.3696         22.3696 
        1.19038         83.2652          22.106          22.106 
        1.19652         82.6979         21.8468         21.8468 
        1.20267         82.0153         21.5918         21.5918 
        1.20881         81.5218         21.3409         21.3409 
        1.21495         81.1221         21.0945         21.0945 
        1.22108         80.7355          20.852          20.852 
         1.2272         79.9562          20.614          20.614 
        1.23334          79.701         20.3792         20.3792 
        1.23949         79.1916         20.1475         20.1475 
        1.24562         78.5517           19.92           19.92 
        1.25174         78.0791         19.6965         19.6965 
        1.25789         78.0965         19.4758         19.4758 
        1.26402         77.3729         19.2588         19.2588 
        1.27014         77.0143         19.0458         19.0458 
        1.27628         76.2872         18.8353         18.8353 
        1.28244         76.1128         18.6277         18.6277 
        1.28858         75.5962         18.4234         18.4234 
        1.29471         75.1676         18.2228         18.2228 
        1.30084          74.496         18.0253         18.0253 
        1.30697         74.5314         17.8305         17.8305 
        1.31312         73.8677         17.6383         17.6383 
        1.31925          73.374         17.4495         17.4495 
        1.32537         72.9732         17.2637         17.2637 
        1.33151          72.733           17.08           17.08 
        1.33765         72.1849         16.8991         16.8991 
        1.34378         71.9466         16.7212         16.7212 
        1.34992         71.5105         16.5457         16.5457 
        1.35606         70.9874         16.3725         16.3725 
         1.3622         70.6959          16.202          16.202 
        1.36833         70.1815         16.0344         16.0344 
        1.37445         69.6323         15.8692         15.8692 
        1.38059         69.5129         15.7059         15.7059 
        1.38675         68.7621         15.5445         15.5445 
        1.39288         68.7799         15.3861         15.3861 
        1.39901         68.1034           15.23           15.23 
        1.40515         67.8895         15.0757         15.0757 
         1.4113         67.6507         14.9236         14.9236 
        1.41742         67.2062         14.7742         14.7742 
        1.42355         66.7877         14.6265         14.6265 
         1.4297         66.4401         14.4805         14.4805 
        1.43585         65.9627         14.3366         14.3366 
        1.44198         65.6218         14.1951         14.1951 
        1.44809         65.2186         14.0559         14.0559 
        1.45423         64.9255          13.918          13.918 
        1.46036          64.502         13.7822         13.7822 
        1.46649         64.3586         13.6483         13.6483 
        1.47263         63.9564          13.516          13.516 
        1.47877         63.6747         13.3855         13.3855 
        1.48491         63.3325         13.2566         13.2566 
        1.49104         62.7856         13.1296         13.1296 
        1.49718         62.5566         13.0043         13.0043 
        1.50333         62.2869         12.8803         12.8803 
        1.50947         61.9506         12.7583         12.7583 
         1.5156         61.6837         12.6381         12.6381 
        1.52172         61.2318         12.5194         12.5194 
        1.52787         60.8483          12.402          12.402 
          1.534         60.6435         12.2862         12.2862 
        1.54013         60.4247         12.1721         12.1721 
        1.54627         59.8509         12.0592         12.0592 
        1.55241         59.5512         11.9478         11.9478 
        1.55855         59.4125         11.8379         11.8379 
        1.56467         58.9118         11.7297         11.7297 
         1.5708         58.7957         11.6226         11.6226 
        1.57695         58.4342         11.5166         11.5166 
        1.58308          58.077         11.4123         11.4123 
        1.58922         57.7955         11.3091         11.3091 
        1.59535          57.603         11.2073         11.2073 
         1.6015         57.5136         11.1066         11.1066 
        1.60764          57.064         11.0072         11.0072 
        1.61376         56.6958         10.9093         10.9093 
        1.61989         56.3054         10.8125         10.8125 
        1.62604         56.0964         10.7167         10.7167 
        1.63218         55.8224         10.6221         10.6221 
        1.63831         55.6351         10.5289         10.5289 
        1.64444         55.3078         10.4368         10.4368 
        1.65059         55.0677         10.3456         10.3456 
        1.65673         54.6213         10.2555         10.2555 
        1.66285         54.5098         10.1668         10.1668 
        1.66898         53.9874         10.0791         10.0791 
        1.67512         53.9065         9.99234         9.99234 
        1.68127          53.618         9.90648         9.90648 
         1.6874         53.3033         9.82184         9.82184 
        1.69353         53.1262         9.73824         9.73824 
        1.69967         52.8951         9.65542         9.65542 
        1.70581         52.5294          9.5736          9.5736 
        1.71193         52.2714         9.49305         9.49305 
        1.71806         52.0212         9.41326         9.41326 
        1.72421         51.7826         9.33424         9.33424 
        1.73035         51.5445         9.25622         9.25622 
        1.73649         51.1897         9.17911         9.17911 
        1.74262          50.831         9.10295         9.10295 
        1.74876         50.7652         9.02761         9.02761 
        1.75489         50.3829         8.95328         8.95328 
        1.76101         50.1575         8.87982         8.87982 
        1.76715         50.1491         8.80708         8.80708 
        1.77329         49.5797         8.73508         8.73508 
        1.77943         49.5977         8.66386         8.66386 
        1.78557         49.3351         8.59354         8.59354 
        1.79171         49.0426           8.524           8.524 
        1.79785         48.7838         8.45522         8.45522 
        1.80399         48.5154         8.38722         8.38722 
        1.81012         48.3397         8.32006         8.32006 
        1.81625          48.005         8.25367         8.25367 
        1.82239         47.7883         8.18792         8.18792 
        1.82853         47.6268         8.12291         8.12291 
        1.83466         47.3432         8.05868         8.05868 
        1.84078         47.1189         7.99522         7.99522 
        1.84692         46.8457         7.93235         7.93235 
        1.85306         46.6148         7.87007         7.87007 
         1.8592         46.4864         7.80857         7.80857 
        1.86533         46.2265         7.74776         7.74776 
        1.87147         45.9723         7.68754         7.68754 
        1.87761         45.6924         7.62793         7.62793 
