# k  (h/Mpc)    P(k)  (Mpc/h)^3    P_linear(k)  (Mpc/h)^3     P_NL(k)  ShotnoiseSubtracted = false
     0.00783031         11746.1         11803.4         11803.4 
       0.013688         14561.6         14920.7         14920.7 
       0.019231         15160.6           15378           15378 
      0.0249154         14491.7         14482.7         14482.7 
      0.0312784           12691         12830.7         12830.7 
      0.0375637         10988.2         11195.3         11195.3 
      0.0433917         9879.46         9959.51         9959.51 
      0.0492413         8889.23          9038.4          9038.4 
      0.0555754         8227.93         8316.42         8316.42 
      0.0619321          7431.3         7734.89         7734.89 
       0.067871         7017.12         7204.84         7204.84 
      0.0738098         6512.09         6629.95         6629.95 
      0.0800417         5899.06         5981.97         5981.97 
      0.0862327         5258.83         5342.47         5342.47 
      0.0921407         4748.61         4792.53         4792.53 
      0.0982031         4352.22         4328.91         4328.91 
       0.104506         3935.29         3965.67         3965.67 
       0.110769         3690.52         3705.39         3705.39 
       0.116806         3554.59         3514.05         3514.05 
       0.122832         3344.15         3343.73         3343.73 
       0.129052         3161.33         3159.69         3159.69 
       0.135211          3030.4         2956.29         2956.29 
       0.141259         2788.77         2740.96         2740.96 
       0.147318         2563.26         2525.63         2525.63 
       0.153489         2406.98            2325            2325 
       0.159709         2304.22         2155.05         2155.05 
       0.165845         2116.51         2022.76         2022.76 
       0.171974         2072.89         1920.63         1920.63 
       0.178125         2008.38         1837.68         1837.68 
       0.184229          1862.5         1762.95         1762.95 
        0.19034         1828.31         1686.42         1686.42 
       0.196428         1768.46         1604.08         1604.08 
       0.202534         1652.51         1516.18         1516.18 
       0.208729         1614.74         1426.13         1426.13 
       0.214876         1541.43         1341.66         1341.66 
       0.220989         1456.41         1266.97         1266.97 
       0.227147         1421.24         1203.12         1203.12 
        0.23329          1368.8         1150.02         1150.02 
       0.239377          1357.1         1105.08         1105.08 
       0.245482         1293.38         1064.18         1064.18 
       0.251667         1245.57         1023.84         1023.84 
       0.257832         1228.12         982.764         982.764 
       0.263955         1168.42         940.811         940.811 
       0.270079         1134.19         898.634         898.634 
        0.27624         1086.31         857.556         857.556 
       0.282372            1070         819.542         819.542 
        0.28843         1055.84         785.634         785.634 
       0.294538         1005.27         755.252         755.252 
       0.300721         983.068         727.781         727.781 
        0.30691         963.293         702.579         702.579 
       0.313033          924.55         678.873         678.873 
       0.319153         912.698         655.655         655.655 
       0.325316         900.327         632.407         632.407 
        0.33145         881.014         609.491         609.491 
       0.337538         850.802         587.304         587.304 
       0.343633         828.984         566.092         566.092 
       0.349808         811.985         545.936         545.936 
       0.355968         796.858         527.332         527.332 
       0.362074         771.298         510.262         510.262 
       0.368217         768.627         494.246         494.246 
       0.374374         756.782         479.039         479.039 
       0.380519         728.879         464.417         464.417 
       0.386598         723.013         450.347         450.347 
       0.392688         706.844         436.565         436.565 
        0.39888         689.447         422.927         422.927 
       0.405048         677.261         409.827         409.827 
       0.411186         675.244         397.354         397.354 
       0.417313         670.089         385.535         385.535 
       0.423458         649.666         374.326         374.326 
       0.429607         631.967         363.686         363.686 
       0.435692         624.962         353.654         353.654 
       0.441815         614.328         343.969         343.969 
       0.447964         603.866         334.573         334.573 
       0.454126         596.947          325.44          325.44 
       0.460267         587.796          316.62          316.62 
       0.466387         578.523         308.111         308.111 
        0.47254         569.273         299.854         299.854 
       0.478662         559.582         291.956         291.956 
       0.484765         553.695          284.41          284.41 
       0.490885         548.158         277.153         277.153 
       0.497035         537.324         270.147         270.147 
       0.503198         536.744         263.391         263.391 
       0.509342         525.675         256.893         256.893 
       0.515458         516.003         250.636         250.636 
       0.521598         510.779         244.546         244.546 
       0.527764         501.348         238.618         238.618 
       0.533884           498.3         232.922         232.922 
           0.54         492.548         227.421         227.421 
       0.546137         483.731         222.087         222.087 
       0.552299         482.436         216.914         216.914 
       0.558452         475.241         211.923         211.923 
       0.564573         470.683         207.124         207.124 
       0.570708         465.897         202.471         202.471 
       0.576825         456.824         197.977         197.977 
       0.582926         454.842         193.631         193.631 
       0.589034         448.027         189.407         189.407 
       0.595184         444.584         185.278         185.278 
       0.601379         437.514         181.243         181.243 
       0.607522         429.978         177.364         177.364 
       0.613639          428.62         173.617         173.617 
       0.619772         426.821         169.975         169.975 
       0.625918         418.913         166.434         166.434 
       0.632068         415.959         162.994         162.994 
       0.638161         411.876         159.684         159.684 
         0.6443         407.596         156.442         156.442 
       0.650464         402.789          153.28          153.28 
       0.656582         399.275         150.228         150.228 
       0.662703         396.039          147.26          147.26 
       0.668861         390.354         144.356         144.356 
       0.675024             388          141.53          141.53 
       0.681124         382.796         138.809         138.809 
       0.687237         380.851         136.155         136.155 
       0.693381         375.647          133.56          133.56 
       0.699536         373.829         131.029         131.029 
       0.705665         369.506         128.575         128.575 
       0.711789         367.854         126.187         126.187 
       0.717957         362.935         123.845         123.845 
        0.72409         359.088         121.576         121.576 
       0.730186         360.761         119.378         119.378 
       0.736317         354.261         117.223         117.223 
       0.742472         350.913         115.115         115.115 
       0.748622         347.639         113.061         113.061 
        0.75476         346.249         111.062         111.062 
       0.760888         342.758         109.115         109.115 
       0.767043         339.693         107.208         107.208 
       0.773185         337.837         105.351         105.351 
       0.779291         333.048          103.55          103.55 
       0.785407          331.55         101.788         101.788 
       0.791564         328.796         100.057         100.057 
       0.797719           323.7         98.3676         98.3676 
       0.803834         326.065         96.7284         96.7284 
       0.809972         320.861         95.1211         95.1211 
       0.816124         317.315         93.5472         93.5472 
       0.822261         314.838         92.0137         92.0137 
       0.828378         313.893         90.5197         90.5197 
       0.834502         309.293          89.058          89.058 
       0.840667         309.453         87.6195         87.6195 
       0.846816          303.94         86.2173         86.2173 
       0.852925         304.257          84.855          84.855 
       0.859047         301.242         83.5196         83.5196 
       0.865192         300.383         82.2089         82.2089 
       0.871341         296.049         80.9259         80.9259 
       0.877463             294         79.6764         79.6764 
       0.883569         292.511         78.4568         78.4568 
       0.889708         289.798         77.2568         77.2568 
       0.895864         287.302         76.0792         76.0792 
       0.902008         285.504         74.9289         74.9289 
       0.908149         283.149         73.8033         73.8033 
       0.914301         281.602         72.6994         72.6994 
       0.920448         280.108         71.6193         71.6193 
       0.926574         277.741         70.5653         70.5653 
       0.932687         276.338         69.5349         69.5349 
       0.938823         273.529         68.5217         68.5217 
       0.944975         272.668         67.5266         67.5266 
       0.951105         269.899         66.5551         66.5551 
       0.957225          267.25         65.6046         65.6046 
       0.963368         267.378         64.6696         64.6696 
       0.969511         262.403         63.7531         63.7531 
       0.975621         261.645         62.8595         62.8595 
       0.981748         260.482         61.9809         61.9809 
       0.987916         259.167         61.1137         61.1137 
        0.99406         256.662         60.2666         60.2666 
        1.00019         254.858         59.4374         59.4374 
        1.00632         254.297         58.6247         58.6247 
        1.01246         252.048         57.8262         57.8262 
        1.01859         249.203          57.044          57.044 
        1.02471         247.488         56.2774         56.2774 
        1.03085          246.51         55.5224         55.5224 
        1.03698          245.08          54.783          54.783 
        1.04314         244.469          54.054          54.054 
        1.04929         242.649         53.3402         53.3402 
        1.05541         240.353         52.6423         52.6423 
        1.06154         238.582         51.9553         51.9553 
        1.06769         236.683         51.2797         51.2797 
        1.07382         236.253         50.6184         50.6184 
        1.07993         233.564         49.9704         49.9704 
        1.08607         232.267         49.3312         49.3312 
        1.09222         230.729         48.7026         48.7026 
        1.09836         229.972         48.0858         48.0858 
        1.10449         227.992         47.4805         47.4805 
        1.11063         226.296         46.8851         46.8851 
        1.11677         224.883         46.3002         46.3002 
         1.1229         223.744         45.7264         45.7264 
        1.12903         222.309         45.1619         45.1619 
        1.13518         220.636         44.6066         44.6066 
        1.14131         219.845          44.061          44.061 
        1.14745         217.319          43.525          43.525 
        1.15359         215.716         42.9979         42.9979 
        1.15973         215.308         42.4793         42.4793 
        1.16584         214.171         41.9718         41.9718 
        1.17197         212.662         41.4719         41.4719 
        1.17811         210.839         40.9787         40.9787 
        1.18424         209.663          40.495          40.495 
        1.19038         208.522         40.0178         40.0178 
        1.19652         206.233         39.5485         39.5485 
        1.20267         205.675         39.0869         39.0869 
        1.20881          204.03         38.6328         38.6328 
        1.21495         203.729         38.1867         38.1867 
        1.22108         202.102         37.7477         37.7477 
         1.2272         200.159         37.3168         37.3168 
        1.23334         199.452         36.8917         36.8917 
        1.23949         198.596         36.4723         36.4723 
        1.24562         197.045         36.0606         36.0606 
        1.25174         195.834          35.656          35.656 
        1.25789         194.116         35.2564         35.2564 
        1.26402         193.927         34.8637         34.8637 
        1.27014         192.961         34.4779         34.4779 
        1.27628         190.815          34.097          34.097 
        1.28244         189.951         33.7211         33.7211 
        1.28858         188.693         33.3514         33.3514 
        1.29471         187.784         32.9881         32.9881 
        1.30084         186.546         32.6306         32.6306 
        1.30697         185.029         32.2779         32.2779 
        1.31312         184.031           31.93           31.93 
        1.31925         182.923         31.5883         31.5883 
        1.32537         182.286          31.252          31.252 
        1.33151         180.997         30.9194         30.9194 
        1.33765         179.475         30.5919         30.5919 
        1.34378         178.903         30.2698         30.2698 
        1.34992         177.675         29.9522         29.9522 
        1.35606         176.647         29.6385         29.6385 
         1.3622         175.848         29.3299         29.3299 
        1.36833         174.026         29.0265         29.0265 
        1.37445         174.051         28.7275         28.7275 
        1.38059         172.294         28.4319         28.4319 
        1.38675         171.285         28.1398         28.1398 
        1.39288         170.141          27.853          27.853 
        1.39901         169.207         27.5703         27.5703 
        1.40515         168.571          27.291          27.291 
         1.4113         167.188         27.0156         27.0156 
        1.41742         165.866         26.7452         26.7452 
        1.42355         166.075          26.478          26.478 
         1.4297         164.354         26.2136         26.2136 
        1.43585         163.603          25.953          25.953 
        1.44198           161.9          25.697          25.697 
        1.44809         161.329         25.4449         25.4449 
        1.45423         160.563         25.1953         25.1953 
        1.46036         159.515         24.9495         24.9495 
        1.46649         158.494          24.707          24.707 
        1.47263         157.947         24.4675         24.4675 
        1.47877         156.609         24.2313         24.2313 
        1.48491         155.527         23.9979         23.9979 
        1.49104         154.048         23.7681         23.7681 
        1.49718          153.82         23.5412         23.5412 
        1.50333         152.905         23.3169         23.3169 
        1.50947         151.931          23.096          23.096 
         1.5156         150.805         22.8783         22.8783 
        1.52172         150.261         22.6634         22.6634 
        1.52787         149.377         22.4509         22.4509 
          1.534         148.407         22.2414         22.2414 
        1.54013         147.569         22.0348         22.0348 
        1.54627         146.609         21.8304         21.8304 
        1.55241         146.047         21.6287         21.6287 
        1.55855         145.327         21.4298         21.4298 
        1.56467         144.182         21.2339         21.2339 
         1.5708         143.011           21.04           21.04 
        1.57695         142.539         20.8482         20.8482 
        1.58308          141.51         20.6593         20.6593 
        1.58922         141.049         20.4726         20.4726 
        1.59535         140.032         20.2882         20.2882 
         1.6015         139.011          20.106          20.106 
        1.60764         138.192          19.926          19.926 
        1.61376         137.348         19.7488         19.7488 
        1.61989         136.732         19.5736         19.5736 
        1.62604         135.707         19.4001         19.4001 
        1.63218         135.116         19.2289         19.2289 
        1.63831         134.203         19.0602         19.0602 
        1.64444         133.357         18.8934         18.8934 
        1.65059         132.655         18.7282         18.7282 
        1.65673         132.055         18.5652         18.5652 
        1.66285         131.562         18.4047         18.4047 
        1.66898         130.386         18.2459         18.2459 
        1.67512         129.716         18.0888         18.0888 
        1.68127         129.021         17.9334         17.9334 
         1.6874          128.01         17.7802         17.7802 
        1.69353         127.653         17.6288         17.6288 
        1.69967         126.569         17.4789         17.4789 
        1.70581         126.238         17.3308         17.3308 
        1.71193          125.21          17.185          17.185 
        1.71806         124.207         17.0405         17.0405 
        1.72421         123.829         16.8975         16.8975 
        1.73035         123.092         16.7562         16.7562 
        1.73649         122.086         16.6166         16.6166 
        1.74262         121.821         16.4788         16.4788 
        1.74876         120.851         16.3424         16.3424 
        1.75489         120.326         16.2078         16.2078 
        1.76101          119.53         16.0748         16.0748 
        1.76715         118.554         15.9432         15.9432 
        1.77329         118.155         15.8128         15.8128 
        1.77943         117.222         15.6839         15.6839 
        1.78557         116.854         15.5566         15.5566 
        1.79171         116.205         15.4307         15.4307 
        1.79785         115.127         15.3062         15.3062 
        1.80399         114.783         15.1831         15.1831 
        1.81012         113.728         15.0615         15.0615 
        1.81625         113.462         14.9414         14.9414 
        1.82239         112.737         14.8223         14.8223 
        1.82853         112.145         14.7046         14.7046 
        1.83466         111.254         14.5884         14.5884 
        1.84078         110.891         14.4735         14.4735 
        1.84692         110.532         14.3597         14.3597 
        1.85306         109.573         14.2469         14.2469 
         1.8592          109.11         14.1356         14.1356 
        1.86533         108.185         14.0255         14.0255 
        1.87147         107.923         13.9165         13.9165 
        1.87761         106.924         13.8086         13.8086 
