# k  (h/Mpc)    P(k)  (Mpc/h)^3    P_linear(k)  (Mpc/h)^3     P_NL(k)  ShotnoiseSubtracted = false
     0.00783031         5404.13          5435.2          5435.2 
       0.013688         6751.48         6872.44         6872.44 
       0.019231         7019.12         7083.93         7083.93 
      0.0249154         6681.57         6671.95         6671.95 
      0.0312784         5881.27         5911.17         5911.17 
      0.0375637         5106.84         5157.89         5157.89 
      0.0433917         4580.54         4588.61         4588.61 
      0.0492413         4131.61         4164.29         4164.29 
      0.0555754         3823.93         3831.69         3831.69 
      0.0619321          3482.7         3563.78         3563.78 
       0.067871          3280.3         3319.59         3319.59 
      0.0738098         3032.68         3054.72         3054.72 
      0.0800417         2747.57         2756.18         2756.18 
      0.0862327          2447.4         2461.54         2461.54 
      0.0921407         2200.83         2208.16         2208.16 
      0.0982031          2007.4         1994.55         1994.55 
       0.104506         1818.26         1827.19         1827.19 
       0.110769         1703.21         1707.27         1707.27 
       0.116806         1636.75         1619.11         1619.11 
       0.122832         1539.99         1540.64         1540.64 
       0.129052         1461.27         1455.84         1455.84 
       0.135211         1386.76         1362.13         1362.13 
       0.141259         1277.89         1262.91         1262.91 
       0.147318         1169.84          1163.7          1163.7 
       0.153489         1091.32         1071.26         1071.26 
       0.159709         1031.24         992.956         992.956 
       0.165845         949.261         931.999         931.999 
       0.171974         926.601         884.942         884.942 
       0.178125         890.558         846.726         846.726 
       0.184229         836.097         812.292         812.292 
        0.19034         813.807         777.031         777.031 
       0.196428         780.865         739.093         739.093 
       0.202534         726.554          698.59          698.59 
       0.208729         704.171         657.099         657.099 
       0.214876         672.068          618.18          618.18 
       0.220989          626.08         583.769         583.769 
       0.227147         611.288         554.348         554.348 
        0.23329          588.68          529.88          529.88 
       0.239377          575.44         509.175         509.175 
       0.245482         547.948          490.33          490.33 
       0.251667         526.074         471.743         471.743 
       0.257832         518.673         452.817         452.817 
       0.263955         489.609         433.487         433.487 
       0.270079         471.334         414.054         414.054 
        0.27624         450.078         395.127         395.127 
       0.282372         437.874         377.611         377.611 
        0.28843         433.665         361.988         361.988 
       0.294538         412.669         347.989         347.989 
       0.300721         397.987         335.332         335.332 
        0.30691         391.713          323.72          323.72 
       0.313033         375.356         312.797         312.797 
       0.319153         368.657         302.099         302.099 
       0.325316         358.293         291.388         291.388 
        0.33145          348.82         280.829         280.829 
       0.337538         336.787         270.606         270.606 
       0.343633         326.048         260.832         260.832 
       0.349808         317.115         251.545         251.545 
       0.355968         309.988         242.973         242.973 
       0.362074         302.204         235.108         235.108 
       0.368217         297.566         227.729         227.729 
       0.374374         290.927         220.722         220.722 
       0.380519         279.143         213.985         213.985 
       0.386598         274.312         207.502         207.502 
       0.392688         267.453         201.152         201.152 
        0.39888         261.476         194.868         194.868 
       0.405048          256.25         188.832         188.832 
       0.411186         253.194         183.085         183.085 
       0.417313         247.668         177.639         177.639 
       0.423458         241.234         172.474         172.474 
       0.429607         236.062         167.572         167.572 
       0.435692         231.723          162.95          162.95 
       0.441815         226.813         158.487         158.487 
       0.447964         220.311         154.158         154.158 
       0.454126         216.699          149.95          149.95 
       0.460267         214.411         145.886         145.886 
       0.466387         210.002         141.965         141.965 
        0.47254         207.442         138.161         138.161 
       0.478662         200.904         134.522         134.522 
       0.484765         198.406         131.045         131.045 
       0.490885         195.147         127.701         127.701 
       0.497035         193.116         124.473         124.473 
       0.503198         189.827          121.36          121.36 
       0.509342         184.863         118.366         118.366 
       0.515458         182.764         115.483         115.483 
       0.521598         178.434         112.677         112.677 
       0.527764         176.602         109.945         109.945 
       0.533884         175.813         107.321         107.321 
           0.54         171.296         104.787         104.787 
       0.546137         167.427         102.329         102.329 
       0.552299          165.75         99.9451         99.9451 
       0.558452         162.761         97.6458         97.6458 
       0.564573         161.937         95.4346         95.4346 
       0.570708         157.818         93.2904         93.2904 
       0.576825         155.911           91.22           91.22 
       0.582926         154.267         89.2175         89.2175 
       0.589034         151.929          87.271          87.271 
       0.595184          150.44         85.3686         85.3686 
       0.601379         146.958         83.5098         83.5098 
       0.607522         144.668         81.7221         81.7221 
       0.613639         143.456          79.996          79.996 
       0.619772         141.486         78.3178         78.3178 
       0.625918         140.302          76.686          76.686 
       0.632068         137.398         75.1011         75.1011 
       0.638161         135.514         73.5758         73.5758 
         0.6443         134.941         72.0823         72.0823 
       0.650464         132.284         70.6252         70.6252 
       0.656582         131.725         69.2192         69.2192 
       0.662703         130.102         67.8515         67.8515 
       0.668861          127.42         66.5135         66.5135 
       0.675024           127.4         65.2112         65.2112 
       0.681124         125.302         63.9575         63.9575 
       0.687237         123.169         62.7349         62.7349 
       0.693381         122.556         61.5391         61.5391 
       0.699536         120.946         60.3728         60.3728 
       0.705665         119.232         59.2422         59.2422 
       0.711789         117.712         58.1421         58.1421 
       0.717957          116.45         57.0627         57.0627 
        0.72409         115.584         56.0172         56.0172 
       0.730186         114.927         55.0046         55.0046 
       0.736317         112.917         54.0118         54.0118 
       0.742472          111.56         53.0403         53.0403 
       0.748622         109.856         52.0939         52.0939 
        0.75476         109.573          51.173          51.173 
       0.760888         108.847          50.276          50.276 
       0.767043          106.85         49.3973         49.3973 
       0.773185         105.612         48.5418         48.5418 
       0.779291         104.469         47.7116         47.7116 
       0.785407         103.236            46.9            46.9 
       0.791564         103.006         46.1024         46.1024 
       0.797719         101.746         45.3239         45.3239 
       0.803834         100.963         44.5686         44.5686 
       0.809972          100.28          43.828          43.828 
       0.816124         99.0327         43.1029         43.1029 
       0.822261         97.7922         42.3963         42.3963 
       0.828378         97.5646         41.7079         41.7079 
       0.834502         96.0398         41.0344         41.0344 
       0.840667         95.5368         40.3716         40.3716 
       0.846816         94.6171         39.7255         39.7255 
       0.852925         93.6456         39.0978         39.0978 
       0.859047         93.1883         38.4825         38.4825 
       0.865192         91.8875         37.8786         37.8786 
       0.871341         90.9436         37.2874         37.2874 
       0.877463         90.3936         36.7117         36.7117 
       0.883569         90.1334         36.1498         36.1498 
       0.889708         89.2824         35.5969         35.5969 
       0.895864         88.4757         35.0543         35.0543 
       0.902008          87.629         34.5242         34.5242 
       0.908149         86.6193         34.0056         34.0056 
       0.914301         86.3683          33.497          33.497 
       0.920448          85.965         32.9993         32.9993 
       0.926574         84.2711         32.5137         32.5137 
       0.932687         84.0291         32.0389         32.0389 
       0.938823         83.3319         31.5721         31.5721 
       0.944975          82.367         31.1136         31.1136 
       0.951105         81.7541         30.6659         30.6659 
       0.957225         81.6461          30.228          30.228 
       0.963368         80.7149         29.7972         29.7972 
       0.969511         80.0313         29.3749         29.3749 
       0.975621         79.4657         28.9632         28.9632 
       0.981748         78.6727         28.5583         28.5583 
       0.987916         78.1307         28.1588         28.1588 
        0.99406         77.7631         27.7685         27.7685 
        1.00019         76.8596         27.3864         27.3864 
        1.00632         76.3689          27.012          27.012 
        1.01246         75.8421          26.644          26.644 
        1.01859         75.5061         26.2836         26.2836 
        1.02471         74.6583         25.9304         25.9304 
        1.03085          74.143         25.5825         25.5825 
        1.03698          73.681         25.2418         25.2418 
        1.04314          73.151          24.906          24.906 
        1.04929         72.6111         24.5771         24.5771 
        1.05541         72.1661         24.2555         24.2555 
        1.06154         71.7555          23.939          23.939 
        1.06769         70.9071         23.6276         23.6276 
        1.07382         70.4606          23.323          23.323 
        1.07993         70.1833         23.0244         23.0244 
        1.08607         69.6135         22.7298         22.7298 
        1.09222         69.3436         22.4402         22.4402 
        1.09836         68.6743          22.156          22.156 
        1.10449         68.3109         21.8771         21.8771 
        1.11063         67.6966         21.6028         21.6028 
        1.11677         67.4964         21.3333         21.3333 
         1.1229         66.8226         21.0689         21.0689 
        1.12903         66.6408         20.8088         20.8088 
        1.13518         66.4182          20.553          20.553 
        1.14131         65.7012         20.3016         20.3016 
        1.14745         65.1437         20.0546         20.0546 
        1.15359         64.5003         19.8117         19.8117 
        1.15973         64.4717         19.5728         19.5728 
        1.16584         63.9801         19.3389         19.3389 
        1.17197         63.3203         19.1086         19.1086 
        1.17811         63.0506         18.8813         18.8813 
        1.18424         62.3144         18.6585         18.6585 
        1.19038         62.2405         18.4386         18.4386 
        1.19652         61.9382         18.2224         18.2224 
        1.20267         61.4508         18.0097         18.0097 
        1.20881         61.0343         17.8005         17.8005 
        1.21495         60.7811         17.5949         17.5949 
        1.22108         60.5221         17.3927         17.3927 
         1.2272         59.9558         17.1941         17.1941 
        1.23334         59.6389         16.9982         16.9982 
        1.23949         59.2901          16.805          16.805 
        1.24562         58.8431         16.6153         16.6153 
        1.25174         58.4618         16.4289         16.4289 
        1.25789         58.5025         16.2447         16.2447 
        1.26402         57.9511         16.0638         16.0638 
        1.27014         57.6663         15.8861         15.8861 
        1.27628          57.097         15.7105         15.7105 
        1.28244         56.9817         15.5373         15.5373 
        1.28858         56.5842          15.367          15.367 
        1.29471         56.2822         15.1996         15.1996 
        1.30084         55.7648         15.0349         15.0349 
        1.30697         55.7544         14.8724         14.8724 
        1.31312         55.2329         14.7121         14.7121 
        1.31925         54.8173         14.5546         14.5546 
        1.32537         54.5778         14.3997         14.3997 
        1.33151         54.2688         14.2464         14.2464 
        1.33765         53.9781         14.0955         14.0955 
        1.34378         53.8115         13.9471         13.9471 
        1.34992         53.3891         13.8008         13.8008 
        1.35606          53.035         13.6563         13.6563 
         1.3622         52.7399         13.5141         13.5141 
        1.36833          52.478         13.3743         13.3743 
        1.37445         52.0381         13.2365         13.2365 
        1.38059         51.9481         13.1003         13.1003 
        1.38675         51.3751         12.9657         12.9657 
        1.39288          51.374         12.8335         12.8335 
        1.39901           50.95         12.7033         12.7033 
        1.40515         50.7312         12.5746         12.5746 
         1.4113         50.6808         12.4477         12.4477 
        1.41742         50.2974         12.3231         12.3231 
        1.42355          49.869            12.2            12.2 
         1.4297         49.6352         12.0782         12.0782 
        1.43585         49.2887         11.9581         11.9581 
        1.44198         49.0158         11.8402         11.8402 
        1.44809          48.743          11.724          11.724 
        1.45423         48.5813          11.609          11.609 
        1.46036         48.3103         11.4958         11.4958 
        1.46649         48.1401          11.384          11.384 
        1.47263         47.7912         11.2737         11.2737 
        1.47877         47.5913         11.1648         11.1648 
        1.48491          47.405         11.0573         11.0573 
        1.49104         46.9786         10.9514         10.9514 
        1.49718         46.8232         10.8468         10.8468 
        1.50333         46.6774         10.7435         10.7435 
        1.50947         46.3001         10.6417         10.6417 
         1.5156         46.1142         10.5414         10.5414 
        1.52172         45.7831         10.4424         10.4424 
        1.52787         45.5881         10.3445         10.3445 
          1.534         45.3635         10.2479         10.2479 
        1.54013         45.2463         10.1527         10.1527 
        1.54627          44.807         10.0586         10.0586 
        1.55241         44.5985         9.96563         9.96563 
        1.55855         44.5257         9.87399         9.87399 
        1.56467         44.2336         9.78375         9.78375 
         1.5708         44.0637          9.6944          9.6944 
        1.57695         43.8094         9.60603         9.60603 
        1.58308         43.4669         9.51898         9.51898 
        1.58922         43.2699         9.43295         9.43295 
        1.59535         43.1316         9.34802         9.34802 
         1.6015         43.0441         9.26403         9.26403 
        1.60764         42.7349         9.18112         9.18112 
        1.61376         42.4512         9.09946         9.09946 
        1.61989         42.2174         9.01873         9.01873 
        1.62604         42.0345         8.93881         8.93881 
        1.63218         41.8127         8.85992         8.85992 
        1.63831         41.6844         8.78217         8.78217 
        1.64444         41.4193         8.70533         8.70533 
        1.65059         41.2342         8.62923         8.62923 
        1.65673         40.9867         8.55413         8.55413 
        1.66285         40.9247         8.48014         8.48014 
        1.66898         40.5086         8.40701         8.40701 
        1.67512         40.4624         8.33461         8.33461 
        1.68127         40.2317           8.263           8.263 
         1.6874         40.0166         8.19239         8.19239 
        1.69353         39.9192         8.12266         8.12266 
        1.69967         39.7364         8.05358         8.05358 
        1.70581         39.3682         7.98534         7.98534 
        1.71193          39.203         7.91816         7.91816 
        1.71806         39.1017          7.8516          7.8516 
        1.72421         38.8927         7.78569         7.78569 
        1.73035         38.6836         7.72061         7.72061 
        1.73649         38.4122          7.6563          7.6563 
        1.74262         38.1739         7.59277         7.59277 
        1.74876         38.0834         7.52993         7.52993 
        1.75489         37.8774         7.46793         7.46793 
        1.76101         37.7481         7.40666         7.40666 
        1.76715         37.6406         7.34599         7.34599 
        1.77329         37.2941         7.28593         7.28593 
        1.77943         37.2911         7.22653         7.22653 
        1.78557         37.0713         7.16788         7.16788 
        1.79171         36.9145         7.10987         7.10987 
        1.79785          36.698          7.0525          7.0525 
        1.80399         36.5345         6.99578         6.99578 
        1.81012         36.4045         6.93976         6.93976 
        1.81625         36.0891         6.88439         6.88439 
        1.82239         35.9626         6.82954         6.82954 
        1.82853         35.8383         6.77532         6.77532 
        1.83466         35.6273         6.72175         6.72175 
        1.84078          35.468         6.66881         6.66881 
        1.84692         35.3082         6.61637         6.61637 
        1.85306         35.0761         6.56443         6.56443 
         1.8592           35.01         6.51313         6.51313 
        1.86533          34.823         6.46241         6.46241 
        1.87147         34.6459         6.41217         6.41217 
        1.87761         34.4388         6.36245         6.36245 
