# k  (h/Mpc)    P(k)  (Mpc/h)^3    P_linear(k)  (Mpc/h)^3     P_NL(k)  ShotnoiseSubtracted = false
     0.00783031         940.282         946.999         946.999 
       0.013688         1185.57            1198            1198 
       0.019231         1229.74         1235.11         1235.11 
      0.0249154         1163.75         1163.41         1163.41 
      0.0312784         1029.84         1030.82         1030.82 
      0.0375637         897.337         899.499         899.499 
      0.0433917         801.548         800.242         800.242 
      0.0492413         725.395         726.254         726.254 
      0.0555754         669.595         668.259         668.259 
      0.0619321         616.875         621.542         621.542 
       0.067871         577.688         578.958         578.958 
      0.0738098         532.323         532.768         532.768 
      0.0800417          481.47         480.702         480.702 
      0.0862327         429.281         429.316         429.316 
      0.0921407         385.002         385.126         385.126 
      0.0982031         349.156         347.871         347.871 
       0.104506         317.892         318.683         318.683 
       0.110769         297.249         297.768         297.768 
       0.116806          283.55         282.393         282.393 
       0.122832         268.249         268.706         268.706 
       0.129052         254.333         253.917         253.917 
       0.135211         238.897         237.572         237.572 
       0.141259         220.763         220.268         220.268 
       0.147318         202.578         202.964         202.964 
       0.153489         187.414         186.842         186.842 
       0.159709         174.531         173.185         173.185 
       0.165845          162.27         162.553         162.553 
       0.171974         155.998         154.346         154.346 
       0.178125         149.156          147.68          147.68 
       0.184229         142.171         141.675         141.675 
        0.19034         137.017         135.525         135.525 
       0.196428         130.306         128.908         128.908 
       0.202534         122.059         121.844         121.844 
       0.208729         116.042         114.607         114.607 
       0.214876         110.011         107.819         107.819 
       0.220989         102.674         101.817         101.817 
       0.227147         98.9332         96.6862         96.6862 
        0.23329         94.7843         92.4185         92.4185 
       0.239377         91.3668         88.8073         88.8073 
       0.245482         87.6639         85.5205         85.5205 
       0.251667         83.9566         82.2787         82.2787 
       0.257832         81.4936         78.9778         78.9778 
       0.263955         77.4657         75.6063         75.6063 
       0.270079         74.1089         72.2169         72.2169 
        0.27624         70.4744         68.9158         68.9158 
       0.282372         67.6276         65.8609         65.8609 
        0.28843         65.7428         63.1359         63.1359 
       0.294538         63.0487         60.6944         60.6944 
       0.300721         60.3921         58.4867         58.4867 
        0.30691         58.9028         56.4614         56.4614 
       0.313033         56.7391         54.5563         54.5563 
       0.319153         55.4787         52.6905         52.6905 
       0.325316         52.8499         50.8222         50.8222 
        0.33145         50.9955         48.9806         48.9806 
       0.337538         49.3521         47.1976         47.1976 
       0.343633         47.7927          45.493          45.493 
       0.349808         46.0785         43.8732         43.8732 
       0.355968         44.5092         42.3781         42.3781 
       0.362074         43.4607         41.0063         41.0063 
       0.368217         42.1193         39.7192         39.7192 
       0.374374         41.1912         38.4971         38.4971 
       0.380519         39.5402         37.3221         37.3221 
       0.386598         38.3204         36.1913         36.1913 
       0.392688         37.1319         35.0838         35.0838 
        0.39888         36.2697         33.9878         33.9878 
       0.405048         35.2874          32.935          32.935 
       0.411186         34.2268         31.9327         31.9327 
       0.417313         33.2481         30.9828         30.9828 
       0.423458          32.206          30.082          30.082 
       0.429607         31.5985          29.227          29.227 
       0.435692         30.9284         28.4208         28.4208 
       0.441815         29.8288         27.6425         27.6425 
       0.447964         28.8924         26.8874         26.8874 
       0.454126         28.3684         26.1534         26.1534 
       0.460267          27.933         25.4446         25.4446 
       0.466387         27.0929         24.7608         24.7608 
        0.47254         26.5724         24.0973         24.0973 
       0.478662         25.7799         23.4626         23.4626 
       0.484765         25.1825         22.8561         22.8561 
       0.490885         24.4602         22.2729         22.2729 
       0.497035         23.9045         21.7099         21.7099 
       0.503198         23.4071          21.167          21.167 
       0.509342          22.748         20.6448         20.6448 
       0.515458         22.3939         20.1419         20.1419 
       0.521598         21.8719         19.6525         19.6525 
       0.527764         21.5278         19.1761         19.1761 
       0.533884         20.8875         18.7184         18.7184 
           0.54         20.4818         18.2763         18.2763 
       0.546137         19.8759         17.8477         17.8477 
       0.552299         19.5233         17.4319         17.4319 
       0.558452         19.0959         17.0309         17.0309 
       0.564573         18.8012         16.6452         16.6452 
       0.570708         18.3588         16.2712         16.2712 
       0.576825         18.0296         15.9101         15.9101 
       0.582926         17.6484         15.5609         15.5609 
       0.589034         17.3147         15.2214         15.2214 
       0.595184         17.0619         14.8895         14.8895 
       0.601379         16.5953         14.5653         14.5653 
       0.607522         16.2994         14.2535         14.2535 
       0.613639          15.946         13.9525         13.9525 
       0.619772         15.6965         13.6598         13.6598 
       0.625918         15.3573         13.3752         13.3752 
       0.632068           15.17         13.0987         13.0987 
       0.638161         14.8439         12.8327         12.8327 
         0.6443         14.5672         12.5722         12.5722 
       0.650464         14.2171         12.3181         12.3181 
       0.656582         14.0931         12.0728         12.0728 
       0.662703         13.8754         11.8343         11.8343 
       0.668861         13.4975         11.6009         11.6009 
       0.675024         13.2872         11.3738         11.3738 
       0.681124         13.2264         11.1551         11.1551 
       0.687237         12.9258         10.9419         10.9419 
       0.693381         12.5995         10.7333         10.7333 
       0.699536         12.5124         10.5299         10.5299 
       0.705665         12.2709         10.3327         10.3327 
       0.711789         12.0146         10.1408         10.1408 
       0.717957         11.7678         9.95259         9.95259 
        0.72409         11.6494         9.77023         9.77023 
       0.730186         11.5463         9.59362         9.59362 
       0.736317         11.2846         9.42047         9.42047 
       0.742472         11.1382         9.25102         9.25102 
       0.748622         10.9567         9.08595         9.08595 
        0.75476          10.678         8.92533         8.92533 
       0.760888         10.5961         8.76889         8.76889 
       0.767043         10.3667         8.61563         8.61563 
       0.773185         10.2339         8.46641         8.46641 
       0.779291         10.1709         8.32162         8.32162 
       0.785407         9.96075         8.18006         8.18006 
       0.791564         9.83204         8.04094         8.04094 
       0.797719         9.63957         7.90516         7.90516 
       0.803834         9.54994         7.77343         7.77343 
       0.809972         9.36998         7.64426         7.64426 
       0.816124         9.24692         7.51778         7.51778 
       0.822261         9.12626         7.39454         7.39454 
       0.828378         8.98744         7.27448         7.27448 
       0.834502         8.87528         7.15701         7.15701 
       0.840667         8.77978         7.04141         7.04141 
       0.846816         8.60001         6.92872         6.92872 
       0.852925         8.50578         6.81924         6.81924 
       0.859047         8.39064         6.71192         6.71192 
       0.865192         8.26579          6.6066          6.6066 
       0.871341         8.14467         6.50349         6.50349 
       0.877463         8.03899         6.40307         6.40307 
       0.883569         7.95345         6.30506         6.30506 
       0.889708         7.83128         6.20863         6.20863 
       0.895864         7.72803         6.11399         6.11399 
       0.902008         7.61041         6.02154         6.02154 
       0.908149         7.51083         5.93109         5.93109 
       0.914301         7.44168         5.84237         5.84237 
       0.920448         7.33701         5.75558         5.75558 
       0.926574         7.28364         5.67087         5.67087 
       0.932687          7.1562         5.58807         5.58807 
       0.938823         7.04226         5.50664         5.50664 
       0.944975          6.9872         5.42667         5.42667 
       0.951105         6.86669          5.3486          5.3486 
       0.957225         6.81801         5.27221         5.27221 
       0.963368         6.73365         5.19708         5.19708 
       0.969511         6.65036         5.12342         5.12342 
       0.975621         6.55952         5.05161         5.05161 
       0.981748         6.44739           4.981           4.981 
       0.987916         6.39037         4.91131         4.91131 
        0.99406         6.34283         4.84324         4.84324 
        1.00019         6.26871          4.7766          4.7766 
        1.00632         6.20349         4.71129         4.71129 
        1.01246         6.11412         4.64712         4.64712 
        1.01859         6.03921         4.58425         4.58425 
        1.02471         5.94713         4.52265         4.52265 
        1.03085         5.91546         4.46197         4.46197 
        1.03698         5.84415         4.40255         4.40255 
        1.04314         5.77944         4.34397         4.34397 
        1.04929         5.69243         4.28661         4.28661 
        1.05541         5.63606         4.23052         4.23052 
        1.06154         5.58544         4.17531         4.17531 
        1.06769         5.55107         4.12101         4.12101 
        1.07382         5.45103         4.06787         4.06787 
        1.07993         5.38606          4.0158          4.0158 
        1.08607         5.35297         3.96442         3.96442 
        1.09222         5.27332         3.91391         3.91391 
        1.09836         5.26172         3.86434         3.86434 
        1.10449         5.14526          3.8157          3.8157 
        1.11063         5.12041         3.76785         3.76785 
        1.11677         5.06907         3.72085         3.72085 
         1.1229         5.01314         3.67473         3.67473 
        1.12903         4.97432         3.62937         3.62937 
        1.13518         4.89609         3.58474         3.58474 
        1.14131         4.84719          3.5409          3.5409 
        1.14745          4.7881         3.49782         3.49782 
        1.15359         4.74749         3.45546         3.45546 
        1.15973         4.69531         3.41379         3.41379 
        1.16584         4.65542           3.373           3.373 
        1.17197         4.60132         3.33283         3.33283 
        1.17811         4.55347         3.29319         3.29319 
        1.18424         4.50888         3.25432         3.25432 
        1.19038         4.46798         3.21597         3.21597 
        1.19652         4.43265         3.17826         3.17826 
        1.20267         4.39146         3.14116         3.14116 
        1.20881            4.34         3.10467         3.10467 
        1.21495         4.30114         3.06882         3.06882 
        1.22108         4.26138         3.03354         3.03354 
         1.2272         4.20486         2.99891         2.99891 
        1.23334          4.1939         2.96475         2.96475 
        1.23949         4.13857         2.93104         2.93104 
        1.24562         4.10326         2.89796         2.89796 
        1.25174         4.07332         2.86544         2.86544 
        1.25789         4.01184         2.83333         2.83333 
        1.26402         3.98195         2.80177         2.80177 
        1.27014         3.94738         2.77077         2.77077 
        1.27628         3.90462         2.74015         2.74015 
        1.28244         3.87953         2.70994         2.70994 
        1.28858         3.84966         2.68023         2.68023 
        1.29471         3.79428         2.65104         2.65104 
        1.30084         3.76194         2.62231         2.62231 
        1.30697          3.7392         2.59397         2.59397 
        1.31312         3.70444         2.56601         2.56601 
        1.31925         3.66922         2.53855         2.53855 
        1.32537         3.64196         2.51152         2.51152 
        1.33151         3.60247         2.48479         2.48479 
        1.33765         3.57351         2.45847         2.45847 
        1.34378         3.55122         2.43259         2.43259 
        1.34992         3.51728         2.40707         2.40707 
        1.35606         3.48796         2.38186         2.38186 
         1.3622         3.45855         2.35706         2.35706 
        1.36833         3.41951         2.33267         2.33267 
        1.37445          3.3867         2.30865         2.30865 
        1.38059          3.3606         2.28489         2.28489 
        1.38675         3.33347         2.26141         2.26141 
        1.39288         3.31493         2.23836         2.23836 
        1.39901         3.27329         2.21565         2.21565 
        1.40515         3.24909          2.1932          2.1932 
         1.4113         3.22781         2.17107         2.17107 
        1.41742         3.19398         2.14934         2.14934 
        1.42355         3.16685         2.12786         2.12786 
         1.4297         3.14901         2.10662         2.10662 
        1.43585          3.1216         2.08568         2.08568 
        1.44198         3.09374          2.0651          2.0651 
        1.44809         3.07552         2.04484         2.04484 
        1.45423         3.04836         2.02479         2.02479 
        1.46036         3.02564         2.00504         2.00504 
        1.46649         2.98927         1.98554         1.98554 
        1.47263         2.97987          1.9663          1.9663 
        1.47877         2.95685         1.94732         1.94732 
        1.48491         2.92632         1.92856         1.92856 
        1.49104         2.90554         1.91009         1.91009 
        1.49718         2.88459         1.89185         1.89185 
        1.50333         2.85947         1.87383         1.87383 
        1.50947         2.83426         1.85607         1.85607 
         1.5156         2.81649         1.83858         1.83858 
        1.52172         2.79687         1.82131         1.82131 
        1.52787         2.77514         1.80423         1.80423 
          1.534         2.75412          1.7874          1.7874 
        1.54013         2.73094         1.77079         1.77079 
        1.54627         2.71075         1.75437         1.75437 
        1.55241         2.68591         1.73816         1.73816 
        1.55855         2.67144         1.72217         1.72217 
        1.56467         2.65253         1.70643         1.70643 
         1.5708         2.63026         1.69085         1.69085 
        1.57695         2.60474         1.67544         1.67544 
        1.58308          2.5844         1.66025         1.66025 
        1.58922         2.57678         1.64525         1.64525 
        1.59535         2.54963         1.63044         1.63044 
         1.6015         2.52879         1.61579         1.61579 
        1.60764         2.51666         1.60133         1.60133 
        1.61376         2.49302         1.58708         1.58708 
        1.61989         2.47439           1.573           1.573 
        1.62604         2.45499         1.55906         1.55906 
        1.63218         2.44506          1.5453          1.5453 
        1.63831         2.42972         1.53174         1.53174 
        1.64444         2.40859         1.51834         1.51834 
        1.65059         2.39616         1.50507         1.50507 
        1.65673          2.3714         1.49197         1.49197 
        1.66285         2.35547         1.47907         1.47907 
        1.66898         2.34107         1.46631         1.46631 
        1.67512            2.32         1.45368         1.45368 
        1.68127          2.3035         1.44119         1.44119 
         1.6874         2.29781         1.42888         1.42888 
        1.69353         2.27031         1.41672         1.41672 
        1.69967         2.25856         1.40467         1.40467 
        1.70581         2.24825         1.39276         1.39276 
        1.71193         2.22203         1.38105         1.38105 
        1.71806         2.21117         1.36944         1.36944 
        1.72421         2.19956         1.35794         1.35794 
        1.73035         2.17916         1.34659         1.34659 
        1.73649         2.17098         1.33537         1.33537 
        1.74262         2.15454         1.32429         1.32429 
        1.74876         2.13949         1.31333         1.31333 
        1.75489         2.12557         1.30252         1.30252 
        1.76101         2.10753         1.29183         1.29183 
        1.76715         2.09931         1.28125         1.28125 
        1.77329         2.08116         1.27078         1.27078 
        1.77943         2.06928         1.26042         1.26042 
        1.78557         2.05649         1.25019         1.25019 
        1.79171         2.04561         1.24007         1.24007 
        1.79785         2.03065         1.23006         1.23006 
        1.80399         2.01679         1.22017         1.22017 
        1.81012         2.00199          1.2104          1.2104 
        1.81625          1.9863         1.20074         1.20074 
        1.82239         1.97732         1.19118         1.19118 
        1.82853          1.9636         1.18172         1.18172 
        1.83466         1.94656         1.17237         1.17237 
        1.84078         1.93648         1.16314         1.16314 
        1.84692         1.92491           1.154           1.154 
        1.85306         1.91527         1.14494         1.14494 
         1.8592         1.90076         1.13599         1.13599 
        1.86533         1.88961         1.12714         1.12714 
        1.87147         1.87768         1.11838         1.11838 
        1.87761         1.86751         1.10971         1.10971 
