# k  (h/Mpc)    P(k)  (Mpc/h)^3    P_linear(k)  (Mpc/h)^3     P_NL(k)  ShotnoiseSubtracted = false
     0.00783031         237.196         239.029         239.029 
       0.013688         300.059         302.479         302.479 
       0.019231          310.95         311.884         311.884 
      0.0249154         293.589         293.795         293.795 
      0.0312784          260.24         260.322         260.322 
      0.0375637         227.029         227.163         227.163 
      0.0433917         202.435         202.099         202.099 
      0.0492413         183.431         183.415         183.415 
      0.0555754         169.051          168.77          168.77 
      0.0619321         156.413         156.972         156.972 
       0.067871         146.083         146.218         146.218 
      0.0738098           134.5         134.553         134.553 
      0.0800417         121.529         121.404         121.404 
      0.0862327         108.454         108.426         108.426 
      0.0921407         97.2595         97.2658         97.2658 
      0.0982031         88.0372         87.8571         87.8571 
       0.104506         80.3734         80.4855         80.4855 
       0.110769         75.1079         75.2033         75.2033 
       0.116806         71.4159         71.3202         71.3202 
       0.122832         67.7428         67.8635         67.8635 
       0.129052         64.1288         64.1285         64.1285 
       0.135211         60.0925         60.0005         60.0005 
       0.141259         55.6147         55.6303         55.6303 
       0.147318         51.1388         51.2601         51.2601 
       0.153489         47.1903         47.1883         47.1883 
       0.159709         43.8067         43.7391         43.7391 
       0.165845         40.9179          41.054          41.054 
       0.171974         39.0765         38.9812         38.9812 
       0.178125         37.3573         37.2978         37.2978 
       0.184229         35.7347         35.7811         35.7811 
        0.19034         34.3154         34.2279         34.2279 
       0.196428         32.6036         32.5567         32.5567 
       0.202534         30.6723         30.7726         30.7726 
       0.208729          28.984          28.945          28.945 
       0.214876         27.3707         27.2306         27.2306 
       0.220989         25.6811         25.7148         25.7148 
       0.227147         24.5626         24.4189         24.4189 
        0.23329         23.4919         23.3411         23.3411 
       0.239377         22.5874          22.429          22.429 
       0.245482         21.7297         21.5989         21.5989 
       0.251667           20.84         20.7802         20.7802 
       0.257832         20.0937         19.9465         19.9465 
       0.263955         19.1811          19.095          19.095 
       0.270079         18.3245          18.239          18.239 
        0.27624         17.4398         17.4053         17.4053 
       0.282372         16.6876         16.6337         16.6337 
        0.28843         16.0904         15.9455         15.9455 
       0.294538         15.4542         15.3289         15.3289 
       0.300721         14.8384         14.7713         14.7713 
        0.30691         14.3938         14.2598         14.2598 
       0.313033         13.8897         13.7787         13.7787 
       0.319153         13.5066         13.3074         13.3074 
       0.325316         12.9098         12.8356         12.8356 
        0.33145         12.4499         12.3705         12.3705 
       0.337538         12.0232         11.9202         11.9202 
       0.343633         11.6187         11.4896         11.4896 
       0.349808         11.1912         11.0805         11.0805 
       0.355968            10.8          10.703          10.703 
       0.362074         10.4899         10.3565         10.3565 
       0.368217         10.1569         10.0314         10.0314 
       0.374374         9.89731         9.72278         9.72278 
       0.380519         9.54327         9.42601         9.42601 
       0.386598         9.24127         9.14043         9.14043 
       0.392688         8.94893         8.86071         8.86071 
        0.39888         8.69926         8.58392         8.58392 
       0.405048         8.44094         8.31802         8.31802 
       0.411186         8.17812         8.06488         8.06488 
       0.417313         7.94418         7.82498         7.82498 
       0.423458         7.68828         7.59748         7.59748 
       0.429607         7.50923         7.38153         7.38153 
       0.435692         7.31576         7.17793         7.17793 
       0.441815          7.0936         6.98135         6.98135 
       0.447964          6.8747         6.79064         6.79064 
       0.454126         6.72291         6.60528         6.60528 
       0.460267         6.57207         6.42625         6.42625 
       0.466387         6.38275         6.25357         6.25357 
        0.47254          6.2278         6.08598         6.08598 
       0.478662         6.05602         5.92568         5.92568 
       0.484765         5.90626         5.77251         5.77251 
       0.490885         5.74377         5.62522         5.62522 
       0.497035         5.58451         5.48302         5.48302 
       0.503198         5.46657          5.3459          5.3459 
       0.509342         5.31394         5.21401         5.21401 
       0.515458         5.20685         5.08702         5.08702 
       0.521598         5.08362         4.96341         4.96341 
       0.527764         4.98264         4.84309         4.84309 
       0.533884         4.83215          4.7275          4.7275 
           0.54         4.73036         4.61584         4.61584 
       0.546137         4.60526         4.50759         4.50759 
       0.552299         4.51089         4.40258         4.40258 
       0.558452         4.40958         4.30129         4.30129 
       0.564573         4.31698         4.20389         4.20389 
       0.570708         4.22083         4.10944         4.10944 
       0.576825            4.13         4.01824         4.01824 
       0.582926         4.03217         3.93003         3.93003 
       0.589034         3.96132         3.84429         3.84429 
       0.595184         3.88486         3.76048         3.76048 
       0.601379         3.78738          3.6786          3.6786 
       0.607522         3.70621         3.59986         3.59986 
       0.613639         3.61795         3.52382         3.52382 
       0.619772         3.55951          3.4499          3.4499 
       0.625918         3.48433         3.37802         3.37802 
       0.632068         3.41834          3.3082          3.3082 
       0.638161          3.3465         3.24102         3.24102 
         0.6443         3.27776         3.17523         3.17523 
       0.650464         3.21236         3.11104         3.11104 
       0.656582         3.16202          3.0491          3.0491 
       0.662703         3.09889         2.98886         2.98886 
       0.668861         3.02238         2.92992         2.92992 
       0.675024         2.97106         2.87255         2.87255 
       0.681124          2.9418         2.81733         2.81733 
       0.687237         2.87168         2.76347         2.76347 
       0.693381         2.80352          2.7108          2.7108 
       0.699536         2.76925         2.65942         2.65942 
       0.705665         2.71683         2.60962         2.60962 
       0.711789         2.65581         2.56116         2.56116 
       0.717957         2.60973         2.51361         2.51361 
        0.72409         2.56497         2.46756         2.46756 
       0.730186         2.53122         2.42295         2.42295 
       0.736317         2.47619         2.37922         2.37922 
       0.742472         2.43994         2.33643         2.33643 
       0.748622         2.39926         2.29474         2.29474 
        0.75476         2.34817         2.25417         2.25417 
       0.760888           2.318         2.21466         2.21466 
       0.767043         2.25693         2.17595         2.17595 
       0.773185         2.22837         2.13827         2.13827 
       0.779291         2.20465          2.1017          2.1017 
       0.785407         2.16092         2.06594         2.06594 
       0.791564         2.12514         2.03081         2.03081 
       0.797719         2.08888         1.99652         1.99652 
       0.803834         2.05442         1.96325         1.96325 
       0.809972         2.02144         1.93062         1.93062 
       0.816124         1.98843         1.89868         1.89868 
       0.822261         1.96014         1.86756         1.86756 
       0.828378         1.92503         1.83723         1.83723 
       0.834502         1.89565         1.80757         1.80757 
       0.840667         1.87063         1.77837         1.77837 
       0.846816         1.83928         1.74991         1.74991 
       0.852925         1.80674         1.72226         1.72226 
       0.859047          1.7803         1.69516         1.69516 
       0.865192         1.75374         1.66855         1.66855 
       0.871341         1.72995         1.64251         1.64251 
       0.877463         1.69838         1.61715         1.61715 
       0.883569         1.67457          1.5924          1.5924 
       0.889708         1.65349         1.56804         1.56804 
       0.895864         1.62897         1.54414         1.54414 
       0.902008         1.59996         1.52079         1.52079 
       0.908149         1.58058         1.49795         1.49795 
       0.914301         1.56098         1.47554         1.47554 
       0.920448          1.5384         1.45362         1.45362 
       0.926574         1.52064         1.43223         1.43223 
       0.932687          1.4968         1.41132         1.41132 
       0.938823         1.46942         1.39075         1.39075 
       0.944975         1.45382         1.37055         1.37055 
       0.951105         1.42665         1.35084         1.35084 
       0.957225         1.40864         1.33154         1.33154 
       0.963368         1.39331         1.31257         1.31257 
       0.969511         1.37621         1.29397         1.29397 
       0.975621          1.3528         1.27583         1.27583 
       0.981748         1.32925           1.258           1.258 
       0.987916         1.31404          1.2404          1.2404 
        0.99406          1.3005          1.2232          1.2232 
        1.00019           1.282         1.20637         1.20637 
        1.00632         1.26955         1.18988         1.18988 
        1.01246         1.25065         1.17367         1.17367 
        1.01859         1.23423         1.15779         1.15779 
        1.02471         1.21386         1.14223         1.14223 
        1.03085         1.19808         1.12691         1.12691 
        1.03698         1.18558          1.1119          1.1119 
        1.04314         1.17048         1.09711         1.09711 
        1.04929         1.15819         1.08262         1.08262 
        1.05541         1.13798         1.06846         1.06846 
        1.06154           1.127         1.05451         1.05451 
        1.06769          1.1143          1.0408          1.0408 
        1.07382         1.09899         1.02738         1.02738 
        1.07993         1.08561         1.01422         1.01422 
        1.08607         1.07277         1.00125         1.00125 
        1.09222         1.05722        0.988492        0.988492 
        1.09836         1.04719        0.975974        0.975974 
        1.10449         1.03086        0.963689        0.963689 
        1.11063         1.01861        0.951604        0.951604 
        1.11677         1.00882        0.939732        0.939732 
         1.1229        0.992519        0.928086        0.928086 
        1.12903          0.9844        0.916629        0.916629 
        1.13518         0.97067        0.905358        0.905358 
        1.14131        0.960787        0.894285        0.894285 
        1.14745        0.951915        0.883405        0.883405 
        1.15359        0.938463        0.872707        0.872707 
        1.15973        0.928939        0.862182        0.862182 
        1.16584        0.916268        0.851881        0.851881 
        1.17197        0.904971        0.841734        0.841734 
        1.17811        0.894284        0.831724        0.831724 
        1.18424        0.884504        0.821907        0.821907 
        1.19038        0.872964        0.812222        0.812222 
        1.19652        0.866899        0.802697        0.802697 
        1.20267        0.857709        0.793328        0.793328 
        1.20881        0.843602        0.784111        0.784111 
        1.21495         0.83648        0.775056        0.775056 
        1.22108        0.827601        0.766148        0.766148 
         1.2272        0.815933        0.757402        0.757402 
        1.23334        0.808479        0.748774        0.748774 
        1.23949         0.80132        0.740261        0.740261 
        1.24562        0.791794        0.731905        0.731905 
        1.25174        0.783382        0.723692        0.723692 
        1.25789         0.77237        0.715581        0.715581 
        1.26402        0.765638        0.707611        0.707611 
        1.27014        0.755177        0.699782        0.699782 
        1.27628        0.749757         0.69205         0.69205 
        1.28244        0.741804         0.68442         0.68442 
        1.28858        0.732191        0.676917        0.676917 
        1.29471        0.724614        0.669544        0.669544 
        1.30084        0.717484        0.662288        0.662288 
        1.30697         0.71222        0.655129        0.655129 
        1.31312        0.703864        0.648067        0.648067 
        1.31925        0.696254        0.641132        0.641132 
        1.32537        0.689299        0.634306        0.634306 
        1.33151        0.681828        0.627556        0.627556 
        1.33765         0.67467        0.620909        0.620909 
        1.34378         0.66656        0.614373        0.614373 
        1.34992        0.662689        0.607926        0.607926 
        1.35606        0.654422        0.601559        0.601559 
         1.3622        0.648279        0.595296        0.595296 
        1.36833        0.642623        0.589137        0.589137 
        1.37445          0.6363        0.583069        0.583069 
        1.38059        0.629476        0.577069        0.577069 
        1.38675         0.62279         0.57114         0.57114 
        1.39288        0.615854        0.565319        0.565319 
        1.39901        0.611256        0.559582        0.559582 
        1.40515        0.604512        0.553912        0.553912 
         1.4113        0.600851        0.548324        0.548324 
        1.41742        0.593758        0.542835        0.542835 
        1.42355        0.585732        0.537411        0.537411 
         1.4297        0.583094        0.532046        0.532046 
        1.43585        0.575764        0.526756        0.526756 
        1.44198        0.571225         0.52156         0.52156 
        1.44809        0.564854        0.516443        0.516443 
        1.45423        0.560381        0.511378        0.511378 
        1.46036         0.55482        0.506389        0.506389 
        1.46649        0.549449        0.501467        0.501467 
        1.47263        0.543194        0.496606        0.496606 
        1.47877        0.541442        0.491812        0.491812 
        1.48491        0.532904        0.487075        0.487075 
        1.49104        0.531172        0.482411        0.482411 
        1.49718        0.524124        0.477804        0.477804 
        1.50333        0.520451        0.473252        0.473252 
        1.50947        0.516068        0.468768        0.468768 
         1.5156        0.510776        0.464349        0.464349 
        1.52172        0.506804        0.459988        0.459988 
        1.52787         0.50056        0.455675        0.455675 
          1.534        0.497797        0.451422        0.451422 
        1.54013        0.492936        0.447229        0.447229 
        1.54627        0.488579        0.443082        0.443082 
        1.55241        0.483679        0.438987        0.438987 
        1.55855        0.479646         0.43495         0.43495 
        1.56467        0.475842        0.430975        0.430975 
         1.5708        0.471017        0.427039        0.427039 
        1.57695        0.466708        0.423146        0.423146 
        1.58308        0.461416        0.419312        0.419312 
        1.58922        0.459203        0.415522        0.415522 
        1.59535        0.454246        0.411781        0.411781 
         1.6015        0.450589        0.408081        0.408081 
        1.60764        0.446724        0.404429        0.404429 
        1.61376        0.442914        0.400832        0.400832 
        1.61989        0.438944        0.397276        0.397276 
        1.62604        0.435025        0.393755        0.393755 
        1.63218        0.432239         0.39028         0.39028 
        1.63831        0.427715        0.386855        0.386855 
        1.64444        0.424607         0.38347         0.38347 
        1.65059         0.42029        0.380118        0.380118 
        1.65673        0.417135         0.37681         0.37681 
        1.66285        0.414158        0.373551        0.373551 
        1.66898        0.410241         0.37033         0.37033 
        1.67512        0.406324         0.36714         0.36714 
        1.68127        0.402677        0.363986        0.363986 
         1.6874        0.400372        0.360876        0.360876 
        1.69353        0.396694        0.357804        0.357804 
        1.69967        0.393319        0.354761        0.354761 
        1.70581        0.390758        0.351755        0.351755 
        1.71193        0.387925        0.348795        0.348795 
        1.71806        0.384299        0.345864        0.345864 
        1.72421        0.380855         0.34296         0.34296 
        1.73035         0.37734        0.340094        0.340094 
        1.73649        0.375658        0.337261        0.337261 
        1.74262        0.371419        0.334462        0.334462 
        1.74876        0.369399        0.331694        0.331694 
        1.75489        0.366313        0.328963        0.328963 
        1.76101        0.362929        0.326264        0.326264 
        1.76715        0.360454        0.323591        0.323591 
        1.77329        0.357289        0.320946        0.320946 
        1.77943        0.354401        0.318329        0.318329 
        1.78557        0.352756        0.315746        0.315746 
        1.79171        0.349712         0.31319         0.31319 
        1.79785         0.34638        0.310663        0.310663 
        1.80399        0.342949        0.308165        0.308165 
        1.81012        0.341266        0.305697        0.305697 
        1.81625        0.339095        0.303258        0.303258 
        1.82239        0.336728        0.300842        0.300842 
        1.82853         0.33337        0.298454        0.298454 
        1.83466        0.330761        0.296094        0.296094 
        1.84078         0.32796        0.293762        0.293762 
        1.84692        0.325879        0.291452        0.291452 
        1.85306        0.323549        0.289164        0.289164 
         1.8592        0.321088        0.286904        0.286904 
        1.86533        0.319065         0.28467         0.28467 
        1.87147        0.315949        0.282457        0.282457 
        1.87761        0.313584        0.280267        0.280267 
