# k  (h/Mpc)    P(k)  (Mpc/h)^3    P_linear(k)  (Mpc/h)^3     P_NL(k)  ShotnoiseSubtracted = false
     0.00783031         11007.2         11061.8         11061.8 
       0.013688         13656.3         13983.5         13983.5 
       0.019231         14216.2         14412.3         14412.3 
      0.0249154         13583.6         13573.3         13573.3 
      0.0312784         11902.2         12025.1         12025.1 
      0.0375637         10308.1         10492.4         10492.4 
      0.0433917         9266.08          9334.2          9334.2 
      0.0492413         8339.25         8470.93         8470.93 
      0.0555754         7719.39         7794.29         7794.29 
      0.0619321         6977.41         7249.27         7249.27 
       0.067871         6587.39         6752.51         6752.51 
      0.0738098         6110.66         6213.71         6213.71 
      0.0800417         5535.83         5606.42         5606.42 
      0.0862327         4934.26         5007.07         5007.07 
      0.0921407         4453.42         4491.65         4491.65 
      0.0982031         4079.67         4057.14         4057.14 
       0.104506         3689.19         3716.71         3716.71 
       0.110769         3459.34         3472.77         3472.77 
       0.116806         3331.71         3293.44         3293.44 
       0.122832          3133.8         3133.81         3133.81 
       0.129052         2964.01         2961.32         2961.32 
       0.135211          2838.5         2770.69         2770.69 
       0.141259         2612.35         2568.88         2568.88 
       0.147318         2399.47         2367.07         2367.07 
       0.153489         2251.76         2179.04         2179.04 
       0.159709         2152.95         2019.76         2019.76 
       0.165845         1977.46         1895.77         1895.77 
       0.171974         1936.82         1800.05         1800.05 
       0.178125         1874.95         1722.31         1722.31 
       0.184229         1740.48         1652.27         1652.27 
        0.19034         1707.08         1580.55         1580.55 
       0.196428         1650.03         1503.38         1503.38 
       0.202534         1540.49         1420.99         1420.99 
       0.208729         1504.77         1336.59         1336.59 
       0.214876         1436.46         1257.43         1257.43 
       0.220989         1354.74         1187.43         1187.43 
       0.227147          1322.5         1127.59         1127.59 
        0.23329         1273.78         1077.82         1077.82 
       0.239377         1261.37          1035.7          1035.7 
       0.245482         1201.62         997.371         997.371 
       0.251667         1156.97         959.563         959.563 
       0.257832         1141.15         921.067         921.067 
       0.263955         1084.47         881.748         881.748 
       0.270079         1051.59         842.219         842.219 
        0.27624         1006.99          803.72          803.72 
       0.282372         990.732         768.092         768.092 
        0.28843         978.671         736.312         736.312 
       0.294538         931.062         707.838         707.838 
       0.300721         909.359         682.092         682.092 
        0.30691         891.864         658.472         658.472 
       0.313033         855.379         636.254         636.254 
       0.319153         843.811         614.494         614.494 
       0.325316          831.77         592.705         592.705 
        0.33145         813.845         571.228         571.228 
       0.337538         785.558         550.434         550.434 
       0.343633          764.76         530.554         530.554 
       0.349808         748.501         511.663         511.663 
       0.355968         734.634         494.227         494.227 
       0.362074         710.899         478.228         478.228 
       0.368217         708.136         463.218         463.218 
       0.374374         696.803         448.966         448.966 
       0.380519         670.735         435.262         435.262 
       0.386598         664.769         422.075         422.075 
       0.392688         650.119         409.158         409.158 
        0.39888         633.653         396.376         396.376 
       0.405048         622.585         384.098         384.098 
       0.411186         620.538         372.409         372.409 
       0.417313         615.022         361.331         361.331 
       0.423458         596.457         350.826         350.826 
       0.429607         580.313         340.854         340.854 
       0.435692         573.184         331.452         331.452 
       0.441815         563.708         322.375         322.375 
       0.447964         553.293         313.569         313.569 
       0.454126         547.005         305.009         305.009 
       0.460267         538.372         296.743         296.743 
       0.466387         529.871         288.768         288.768 
        0.47254         521.566          281.03          281.03 
       0.478662         511.921         273.628         273.628 
       0.484765         506.539         266.555         266.555 
       0.490885         501.493         259.754         259.754 
       0.497035         491.533         253.187         253.187 
       0.503198         490.944         246.855         246.855 
       0.509342         480.276         240.765         240.765 
       0.515458         471.799         234.901         234.901 
       0.521598         466.077         229.193         229.193 
       0.527764         458.107         223.637         223.637 
       0.533884         455.628           218.3           218.3 
           0.54         449.874         213.144         213.144 
       0.546137         441.304         208.145         208.145 
       0.552299          440.35         203.296         203.296 
       0.558452         433.493         198.619         198.619 
       0.564573         429.252         194.121         194.121 
       0.570708         424.547          189.76          189.76 
       0.576825         416.454         185.548         185.548 
       0.582926         414.278         181.475         181.475 
       0.589034         408.096         177.516         177.516 
       0.595184         405.128         173.646         173.646 
       0.601379          398.59         169.865         169.865 
       0.607522         391.539         166.229         166.229 
       0.613639         390.069         162.718         162.718 
       0.619772         388.534         159.304         159.304 
       0.625918         381.519         155.985         155.985 
       0.632068         378.188         152.761         152.761 
       0.638161         374.692         149.659         149.659 
         0.6443         370.961         146.621         146.621 
       0.650464         366.157         143.657         143.657 
       0.656582         362.861         140.797         140.797 
       0.662703         360.163         138.015         138.015 
       0.668861         354.643         135.293         135.293 
       0.675024         352.605         132.644         132.644 
       0.681124         348.207         130.094         130.094 
       0.687237         345.981         127.608         127.608 
       0.693381         341.479         125.175         125.175 
       0.699536         339.368         122.803         122.803 
       0.705665         335.633         120.503         120.503 
       0.711789         333.715         118.265         118.265 
       0.717957         329.474          116.07          116.07 
        0.72409         325.868         113.943         113.943 
       0.730186         327.624         111.883         111.883 
       0.736317         321.647         109.864         109.864 
       0.742472         318.423         107.888         107.888 
       0.748622         315.058         105.963         105.963 
        0.75476         314.432          104.09          104.09 
       0.760888         310.905         102.265         102.265 
       0.767043         307.819         100.478         100.478 
       0.773185         306.211         98.7377         98.7377 
       0.779291         301.667         97.0491         97.0491 
       0.785407         300.521         95.3981         95.3981 
       0.791564         297.796         93.7757         93.7757 
       0.797719         293.164         92.1922         92.1922 
       0.803834         295.418         90.6559         90.6559 
       0.809972         290.935         89.1495         89.1495 
       0.816124         287.394         87.6745         87.6745 
       0.822261          285.03         86.2372         86.2372 
       0.828378         284.454          84.837          84.837 
       0.834502         280.271          83.467          83.467 
       0.840667         280.359         82.1189         82.1189 
       0.846816         275.328         80.8047         80.8047 
       0.852925         275.332         79.5279         79.5279 
       0.859047          272.56         78.2763         78.2763 
       0.865192         271.989          77.048          77.048 
       0.871341          268.09         75.8455         75.8455 
       0.877463          266.05         74.6744         74.6744 
       0.883569         265.089         73.5314         73.5314 
       0.889708         262.557         72.4067         72.4067 
       0.895864         260.358          71.303          71.303 
       0.902008         258.348         70.2249         70.2249 
       0.908149         256.291           69.17           69.17 
       0.914301         254.848         68.1354         68.1354 
       0.920448         253.792         67.1231         67.1231 
       0.926574         251.369         66.1353         66.1353 
       0.932687         250.084         65.1696         65.1696 
       0.938823          247.74           64.22           64.22 
       0.944975          246.75         63.2874         63.2874 
       0.951105         244.205         62.3768         62.3768 
       0.957225         242.139          61.486          61.486 
       0.963368         241.877         60.6097         60.6097 
       0.969511         237.645         59.7508         59.7508 
       0.975621         236.677         58.9132         58.9132 
       0.981748         235.604         58.0898         58.0898 
       0.987916         234.505         57.2771         57.2771 
        0.99406         232.289         56.4832         56.4832 
        1.00019           230.8          55.706          55.706 
        1.00632         230.081         54.9443         54.9443 
        1.01246         228.056         54.1959         54.1959 
        1.01859         225.669         53.4628         53.4628 
        1.02471         224.008         52.7443         52.7443 
        1.03085         222.986         52.0367         52.0367 
        1.03698         221.622         51.3437         51.3437 
        1.04314         221.179         50.6606         50.6606 
        1.04929         219.529         49.9916         49.9916 
        1.05541         217.659         49.3375         49.3375 
        1.06154         215.884         48.6936         48.6936 
        1.06769         214.294         48.0604         48.0604 
        1.07382         213.926         47.4406         47.4406 
        1.07993         211.382         46.8333         46.8333 
        1.08607         210.222         46.2342         46.2342 
        1.09222         208.879         45.6451         45.6451 
        1.09836         208.103          45.067          45.067 
        1.10449         206.196         44.4997         44.4997 
        1.11063          204.79         43.9417         43.9417 
        1.11677         203.751         43.3935         43.3935 
         1.1229         202.368         42.8557         42.8557 
        1.12903         201.295         42.3267         42.3267 
        1.13518         199.731         41.8062         41.8062 
        1.14131         198.871         41.2949         41.2949 
        1.14745         196.806         40.7925         40.7925 
        1.15359         195.224         40.2985         40.2985 
        1.15973          194.93         39.8125         39.8125 
        1.16584         193.934         39.3368         39.3368 
        1.17197         192.581         38.8683         38.8683 
        1.17811         190.855         38.4061         38.4061 
        1.18424          189.86         37.9527         37.9527 
        1.19038          188.69         37.5055         37.5055 
        1.19652         186.914         37.0657         37.0657 
        1.20267         186.176         36.6331         36.6331 
        1.20881         184.739         36.2075         36.2075 
        1.21495         184.464         35.7894         35.7894 
        1.22108         182.963          35.378          35.378 
         1.2272         181.369         34.9741         34.9741 
        1.23334         180.661         34.5757         34.5757 
        1.23949         179.964         34.1826         34.1826 
        1.24562         178.521         33.7968         33.7968 
        1.25174          177.39         33.4175         33.4175 
        1.25789         175.916          33.043          33.043 
        1.26402         175.748          32.675          32.675 
        1.27014         174.736         32.3135         32.3135 
        1.27628         172.774         31.9564         31.9564 
        1.28244         172.121         31.6041         31.6041 
        1.28858         170.967         31.2576         31.2576 
        1.29471         170.096         30.9171         30.9171 
        1.30084         168.934         30.5821         30.5821 
        1.30697          167.73         30.2515         30.2515 
        1.31312          166.75         29.9254         29.9254 
        1.31925         165.689         29.6052         29.6052 
        1.32537         165.092           29.29           29.29 
        1.33151         164.005         28.9783         28.9783 
        1.33765         162.519         28.6714         28.6714 
        1.34378         162.242         28.3695         28.3695 
        1.34992         161.195         28.0719         28.0719 
        1.35606         160.157         27.7779         27.7779 
         1.3622         159.582         27.4886         27.4886 
        1.36833         157.769         27.2042         27.2042 
        1.37445         157.744         26.9241         26.9241 
        1.38059         156.293          26.647          26.647 
        1.38675         155.436         26.3732         26.3732 
        1.39288         154.286         26.1044         26.1044 
        1.39901         153.509         25.8395         25.8395 
        1.40515         152.889         25.5777         25.5777 
         1.4113         151.736         25.3196         25.3196 
        1.41742         150.589         25.0662         25.0662 
        1.42355         150.623         24.8157         24.8157 
         1.4297         149.103          24.568          24.568 
        1.43585         148.362         24.3237         24.3237 
        1.44198          146.88         24.0838         24.0838 
        1.44809         146.283         23.8475         23.8475 
        1.45423          145.77         23.6136         23.6136 
        1.46036         144.682         23.3832         23.3832 
        1.46649          143.79         23.1559         23.1559 
        1.47263         143.272         22.9315         22.9315 
        1.47877         142.006         22.7101         22.7101 
        1.48491          141.27         22.4914         22.4914 
        1.49104         139.735          22.276          22.276 
        1.49718         139.651         22.0633         22.0633 
        1.50333         138.993         21.8531         21.8531 
        1.50947         137.995          21.646          21.646 
         1.5156          136.97          21.442          21.442 
        1.52172         136.409         21.2406         21.2406 
        1.52787         135.644         21.0414         21.0414 
          1.534         134.831         20.8451         20.8451 
        1.54013         134.069         20.6514         20.6514 
        1.54627         133.131         20.4599         20.4599 
        1.55241         132.679         20.2708         20.2708 
        1.55855         131.919         20.0844         20.0844 
        1.56467         130.941         19.9009         19.9009 
         1.5708         129.899         19.7191         19.7191 
        1.57695         129.504         19.5394         19.5394 
        1.58308         128.577         19.3623         19.3623 
        1.58922         128.355         19.1873         19.1873 
        1.59535          127.52         19.0146         19.0146 
         1.6015         126.295         18.8437         18.8437 
        1.60764         125.573         18.6751         18.6751 
        1.61376         124.939          18.509          18.509 
        1.61989         124.369         18.3448         18.3448 
        1.62604         123.486         18.1822         18.1822 
        1.63218         122.941         18.0217         18.0217 
        1.63831          122.09         17.8636         17.8636 
        1.64444         121.326         17.7073         17.7073 
        1.65059         120.593         17.5525         17.5525 
        1.65673         120.258         17.3997         17.3997 
        1.66285         119.721         17.2492         17.2492 
        1.66898         118.607         17.1005         17.1005 
        1.67512         118.095         16.9532         16.9532 
        1.68127         117.423         16.8075         16.8075 
         1.6874         116.444         16.6639         16.6639 
        1.69353         116.018         16.5221         16.5221 
        1.69967          115.22         16.3816         16.3816 
        1.70581         114.921         16.2428         16.2428 
        1.71193         113.979         16.1061         16.1061 
        1.71806         113.201         15.9707         15.9707 
        1.72421         112.681         15.8367         15.8367 
        1.73035         112.098         15.7043         15.7043 
        1.73649         111.237         15.5735         15.5735 
        1.74262         110.921         15.4443         15.4443 
        1.74876         110.003         15.3164         15.3164 
        1.75489         109.592         15.1903         15.1903 
        1.76101          108.91         15.0657         15.0657 
        1.76715         108.008         14.9423         14.9423 
        1.77329         107.653         14.8201         14.8201 
        1.77943         106.831         14.6993         14.6993 
        1.78557         106.479           14.58           14.58 
        1.79171         105.948          14.462          14.462 
        1.79785         104.918         14.3453         14.3453 
        1.80399         104.732         14.2299         14.2299 
        1.81012         103.736          14.116          14.116 
        1.81625         103.407         14.0034         14.0034 
        1.82239          102.83         13.8918         13.8918 
        1.82853         102.275         13.7815         13.7815 
        1.83466          101.44         13.6725         13.6725 
        1.84078         101.128         13.5649         13.5649 
        1.84692         100.794         13.4582         13.4582 
        1.85306         99.9779         13.3525         13.3525 
         1.8592         99.5978         13.2482         13.2482 
        1.86533         98.7874          13.145          13.145 
        1.87147         98.4453         13.0428         13.0428 
        1.87761         97.5777         12.9417         12.9417 
