# k  (h/Mpc)    Pcb(k)  (Mpc/h)^3    Pcb_linear(k) (Mpc/h)^3    Pcb_NL(k) (Mpc/h)^3   ShotnoiseSubtracted = false
     0.00783031         8773.82          8819.7          8819.7 
       0.013688         10913.7         11150.1         11150.1 
       0.019231         11356.1         11492.5         11492.5 
      0.0249154         10836.1         10823.7         10823.7 
      0.0312784         9511.38         9589.22         9589.22 
      0.0375637         8245.43         8367.11         8367.11 
      0.0433917         7406.46         7443.54         7443.54 
      0.0492413         6670.96         6755.16         6755.16 
      0.0555754         6175.81         6215.59         6215.59 
      0.0619321         5597.33         5780.98         5780.98 
       0.067871         5280.74         5384.84         5384.84 
      0.0738098         4891.94         4955.19         4955.19 
      0.0800417         4432.39          4470.9          4470.9 
      0.0862327         3949.22         3992.94         3992.94 
      0.0921407         3559.04         3581.92         3581.92 
      0.0982031         3255.02         3235.42         3235.42 
       0.104506         2944.75         2963.94         2963.94 
       0.110769         2760.26         2769.41         2769.41 
       0.116806         2657.17          2626.4          2626.4 
       0.122832         2498.47          2499.1          2499.1 
       0.129052         2366.68         2361.55         2361.55 
       0.135211          2258.9         2209.53         2209.53 
       0.141259         2079.71         2048.59         2048.59 
       0.147318         1906.71         1887.66         1887.66 
       0.153489          1785.5         1737.71         1737.71 
       0.159709         1699.85         1610.69         1610.69 
       0.165845         1561.68         1511.81         1511.81 
       0.171974         1528.96         1435.48         1435.48 
       0.178125         1475.93         1373.49         1373.49 
       0.184229         1375.28         1317.63         1317.63 
        0.19034         1344.99         1260.43         1260.43 
       0.196428         1296.76         1198.89         1198.89 
       0.202534         1207.96         1133.19         1133.19 
       0.208729         1177.71         1065.89         1065.89 
       0.214876         1124.36         1002.76         1002.76 
       0.220989          1054.5         946.939         946.939 
       0.227147         1030.21         899.216         899.216 
        0.23329         992.473         859.525         859.525 
       0.239377         978.326         825.938         825.938 
       0.245482         931.085          795.37          795.37 
       0.251667         895.716         765.218         765.218 
       0.257832         884.247          734.52          734.52 
       0.263955         837.405         703.165         703.165 
       0.270079           809.5         671.642         671.642 
        0.27624          774.47          640.94          640.94 
       0.282372         758.912         612.527         612.527 
        0.28843         751.639         587.184         587.184 
       0.294538         714.106         564.477         564.477 
       0.300721         694.275         543.946         543.946 
        0.30691         682.506         525.109         525.109 
       0.313033         653.731         507.392         507.392 
       0.319153         643.477         490.039         490.039 
       0.325316         631.932         472.663         472.663 
        0.33145         617.765         455.536         455.536 
       0.337538         595.766         438.953         438.953 
       0.343633         578.376         423.099         423.099 
       0.349808         564.743         408.035         408.035 
       0.355968         554.025         394.129         394.129 
       0.362074         536.772         381.372         381.372 
       0.368217         533.136         369.401         369.401 
       0.374374         523.215         358.036         358.036 
       0.380519         502.924         347.107         347.107 
       0.386598         497.067          336.59          336.59 
       0.392688         486.157         326.291         326.291 
        0.39888         473.416         316.097         316.097 
       0.405048         465.186         306.306         306.306 
       0.411186         462.882         296.984         296.984 
       0.417313         456.418          288.15          288.15 
       0.423458         443.342         279.772         279.772 
       0.429607         432.027          271.82          271.82 
       0.435692         425.058         264.323         264.323 
       0.441815         418.421         257.084         257.084 
       0.447964         408.761         250.061         250.061 
       0.454126         403.755         243.235         243.235 
       0.460267         397.528         236.643         236.643 
       0.466387         390.822         230.283         230.283 
        0.47254         385.288         224.112         224.112 
       0.478662         376.162         218.209         218.209 
       0.484765         372.066         212.569         212.569 
       0.490885          368.16         207.145         207.145 
       0.497035         361.459         201.909         201.909 
       0.503198         359.933         196.859         196.859 
       0.509342         350.907         192.003         192.003 
       0.515458         345.864         187.326         187.326 
       0.521598          339.59         182.774         182.774 
       0.527764         335.157         178.344         178.344 
       0.533884         333.968         174.087         174.087 
           0.54         328.208         169.975         169.975 
       0.546137         321.077         165.989         165.989 
       0.552299         320.113         162.122         162.122 
       0.558452         314.759         158.392         158.392 
       0.564573         311.952         154.805         154.805 
       0.570708         307.054         151.327         151.327 
       0.576825         301.894         147.969         147.969 
       0.582926         299.317         144.721         144.721 
       0.589034         295.146         141.563         141.563 
       0.595184         293.165         138.477         138.477 
       0.601379          288.05         135.462         135.462 
       0.607522          282.73         132.562         132.562 
       0.613639          281.13         129.762         129.762 
       0.619772         279.542          127.04          127.04 
       0.625918         275.657         124.393         124.393 
       0.632068         271.235         121.822         121.822 
       0.638161         268.896         119.348         119.348 
         0.6443         266.951         116.925         116.925 
       0.650464         262.418         114.562         114.562 
       0.656582         260.289         112.281         112.281 
       0.662703         258.372         110.063         110.063 
       0.668861         253.771         107.892         107.892 
       0.675024         252.954          105.78          105.78 
       0.681124         249.835         103.746         103.746 
       0.687237         247.403         101.763         101.763 
       0.693381         244.641         99.8231         99.8231 
       0.699536         242.308         97.9313         97.9313 
       0.705665         239.742         96.0974         96.0974 
       0.711789         237.431         94.3129         94.3129 
       0.717957         234.894          92.562          92.562 
        0.72409         232.461         90.8661         90.8661 
       0.730186         233.313         89.2234         89.2234 
       0.736317         229.292         87.6131         87.6131 
       0.742472         226.346         86.0372         86.0372 
       0.748622         223.237          84.502          84.502 
        0.75476         223.943         83.0082         83.0082 
       0.760888         221.086         81.5532         81.5532 
       0.767043         218.069         80.1279         80.1279 
       0.773185         216.584         78.7401         78.7401 
       0.779291          213.55         77.3935         77.3935 
       0.785407         212.602         76.0769         76.0769 
       0.791564         210.633         74.7831         74.7831 
       0.797719         207.527         73.5203         73.5203 
       0.803834         208.474         72.2951         72.2951 
       0.809972         206.264         71.0938         71.0938 
       0.816124         203.292         69.9176         69.9176 
       0.822261         201.543         68.7714         68.7714 
       0.828378         201.429         67.6548         67.6548 
       0.834502          198.26         66.5623         66.5623 
       0.840667         197.974         65.4872         65.4872 
       0.846816         195.156         64.4391         64.4391 
       0.852925         194.038         63.4209         63.4209 
       0.859047          192.04         62.4229         62.4229 
       0.865192           191.6         61.4433         61.4433 
       0.871341         189.091         60.4843         60.4843 
       0.877463         187.586         59.5504         59.5504 
       0.883569         187.405         58.6389         58.6389 
       0.889708         185.622          57.742          57.742 
       0.895864         183.923         56.8618         56.8618 
       0.902008         182.063         56.0021         56.0021 
       0.908149         180.321         55.1609         55.1609 
       0.914301         179.878         54.3358         54.3358 
       0.920448          179.21         53.5285         53.5285 
       0.926574         176.643         52.7407         52.7407 
       0.932687         176.115         51.9707         51.9707 
       0.938823         174.742         51.2134         51.2134 
       0.944975         173.269         50.4696         50.4696 
       0.951105         171.816         49.7435         49.7435 
       0.957225         171.132         49.0331         49.0331 
       0.963368         169.645         48.3343         48.3343 
       0.969511         167.735         47.6493         47.6493 
       0.975621         166.556         46.9814         46.9814 
       0.981748         165.451         46.3248         46.3248 
       0.987916         164.735         45.6766         45.6766 
        0.99406         163.582         45.0435         45.0435 
        1.00019         162.414         44.4238         44.4238 
        1.00632         161.555         43.8163         43.8163 
        1.01246         160.243         43.2195         43.2195 
        1.01859          159.01         42.6349         42.6349 
        1.02471         157.836         42.0619         42.0619 
        1.03085         156.755         41.4976         41.4976 
        1.03698         155.566          40.945          40.945 
        1.04314         155.102         40.4002         40.4002 
        1.04929         154.248         39.8667         39.8667 
        1.05541         153.106         39.3451         39.3451 
        1.06154         151.932         38.8316         38.8316 
        1.06769         150.807         38.3266         38.3266 
        1.07382         150.129         37.8324         37.8324 
        1.07993         148.964          37.348          37.348 
        1.08607         147.926         36.8703         36.8703 
        1.09222         147.124         36.4005         36.4005 
        1.09836         146.035         35.9395         35.9395 
        1.10449         144.887         35.4871         35.4871 
        1.11063         143.988         35.0421         35.0421 
        1.11677         143.346         34.6049         34.6049 
         1.1229         142.126         34.1761         34.1761 
        1.12903         141.537         33.7542         33.7542 
        1.13518         140.483         33.3391         33.3391 
        1.14131         139.666         32.9314         32.9314 
        1.14745         138.729         32.5307         32.5307 
        1.15359         137.313         32.1368         32.1368 
        1.15973         136.979         31.7492         31.7492 
        1.16584           136.2         31.3699         31.3699 
        1.17197         135.447         30.9962         30.9962 
        1.17811         134.192         30.6276         30.6276 
        1.18424         133.549         30.2661         30.2661 
        1.19038         132.888         29.9094         29.9094 
        1.19652         131.906         29.5587         29.5587 
        1.20267         131.059         29.2137         29.2137 
        1.20881         130.177         28.8743         28.8743 
        1.21495         129.746         28.5409         28.5409 
        1.22108         128.799         28.2128         28.2128 
         1.2272          127.82         27.8907         27.8907 
        1.23334         127.471          27.573          27.573 
        1.23949         126.846         27.2595         27.2595 
        1.24562         125.763         26.9518         26.9518 
        1.25174         124.867         26.6494         26.6494 
        1.25789         124.283         26.3507         26.3507 
        1.26402         123.854         26.0572         26.0572 
        1.27014         122.949         25.7689         25.7689 
        1.27628         121.675         25.4842         25.4842 
        1.28244         121.575         25.2032         25.2032 
        1.28858          120.46         24.9269         24.9269 
        1.29471         119.803         24.6554         24.6554 
        1.30084         119.073         24.3882         24.3882 
        1.30697         118.658         24.1246         24.1246 
        1.31312         117.747         23.8646         23.8646 
        1.31925         116.885         23.6092         23.6092 
        1.32537         116.454         23.3578         23.3578 
        1.33151         116.062         23.1093         23.1093 
        1.33765         114.844         22.8645         22.8645 
        1.34378          114.74         22.6238         22.6238 
        1.34992           114.2         22.3864         22.3864 
        1.35606         113.267          22.152          22.152 
         1.3622         113.108         21.9213         21.9213 
        1.36833         111.747         21.6945         21.6945 
        1.37445         111.476         21.4711         21.4711 
        1.38059          110.92         21.2501         21.2501 
        1.38675         109.991         21.0318         21.0318 
        1.39288         109.443         20.8174         20.8174 
        1.39901         108.611         20.6062         20.6062 
        1.40515         108.338         20.3974         20.3974 
         1.4113         107.725         20.1916         20.1916 
        1.41742         106.943         19.9895         19.9895 
        1.42355         106.613         19.7897         19.7897 
         1.4297         105.816         19.5922         19.5922 
        1.43585         105.093         19.3974         19.3974 
        1.44198         104.487          19.206          19.206 
        1.44809         103.743         19.0176         19.0176 
        1.45423         103.521         18.8311         18.8311 
        1.46036         102.652         18.6474         18.6474 
        1.46649         102.047         18.4661         18.4661 
        1.47263          101.76         18.2871         18.2871 
        1.47877         100.985         18.1106         18.1106 
        1.48491         100.448         17.9362         17.9362 
        1.49104         99.4562         17.7644         17.7644 
        1.49718         99.4121         17.5948         17.5948 
        1.50333          98.866         17.4271         17.4271 
        1.50947         98.4409          17.262          17.262 
         1.5156         97.9003         17.0993         17.0993 
        1.52172         97.1488         16.9387         16.9387 
        1.52787         96.6093         16.7799         16.7799 
          1.534         96.1446         16.6233         16.6233 
        1.54013         95.7489         16.4689         16.4689 
        1.54627         94.9137         16.3161         16.3161 
        1.55241         94.5704         16.1653         16.1653 
        1.55855         93.9656         16.0167         16.0167 
        1.56467         93.1941         15.8703         15.8703 
         1.5708          92.861         15.7254         15.7254 
        1.57695         92.5024          15.582          15.582 
        1.58308         91.9441         15.4408         15.4408 
        1.58922         91.7662         15.3013         15.3013 
        1.59535          91.243         15.1635         15.1635 
         1.6015         90.5905         15.0273         15.0273 
        1.60764         90.0042         14.8928         14.8928 
        1.61376         89.4944         14.7603         14.7603 
        1.61989          88.955         14.6294         14.6294 
        1.62604         88.5806         14.4997         14.4997 
        1.63218         88.2853         14.3718         14.3718 
        1.63831          87.618         14.2456         14.2456 
        1.64444         87.2199          14.121          14.121 
        1.65059          86.686         13.9976         13.9976 
        1.65673         86.1473         13.8757         13.8757 
        1.66285         85.6052         13.7557         13.7557 
        1.66898          85.156         13.6371         13.6371 
        1.67512          84.786         13.5196         13.5196 
        1.68127         84.4042         13.4035         13.4035 
         1.6874         83.8435          13.289          13.289 
        1.69353         83.3214         13.1758         13.1758 
        1.69967         83.0527         13.0638         13.0638 
        1.70581          82.619         12.9531         12.9531 
        1.71193         82.0473         12.8441         12.8441 
        1.71806          81.549         12.7362         12.7362 
        1.72421         81.1878         12.6292         12.6292 
        1.73035         80.9472         12.5237         12.5237 
        1.73649         80.3583         12.4193         12.4193 
        1.74262         79.7569         12.3163         12.3163 
        1.74876         79.4685         12.2144         12.2144 
        1.75489         78.9283         12.1138         12.1138 
        1.76101         78.4794         12.0144         12.0144 
        1.76715         78.2247          11.916          11.916 
        1.77329         77.7164         11.8186         11.8186 
        1.77943          77.416         11.7222         11.7222 
        1.78557         77.0566         11.6271         11.6271 
        1.79171         76.5882          11.533          11.533 
        1.79785          76.073         11.4399         11.4399 
        1.80399         75.7798         11.3479         11.3479 
        1.81012         75.2708          11.257          11.257 
        1.81625         74.9616         11.1672         11.1672 
        1.82239         74.6574         11.0783         11.0783 
        1.82853         74.0601         10.9903         10.9903 
        1.83466         73.6823         10.9034         10.9034 
        1.84078         73.3972         10.8175         10.8175 
        1.84692         73.1619         10.7325         10.7325 
        1.85306          72.646         10.6482         10.6482 
         1.8592         72.3332          10.565          10.565 
        1.86533         71.9144         10.4827         10.4827 
        1.87147         71.4651         10.4012         10.4012 
