# k  (h/Mpc)    Pcb(k)  (Mpc/h)^3    Pcb_linear(k) (Mpc/h)^3    Pcb_NL(k) (Mpc/h)^3   ShotnoiseSubtracted = false
     0.00783031         2100.79         2114.69         2114.69 
       0.013688         2640.38         2674.64         2674.64 
       0.019231         2741.15         2757.27         2757.27 
      0.0249154         2599.65         2597.08         2597.08 
      0.0312784         2296.51         2301.04         2301.04 
      0.0375637         1998.65         2007.87         2007.87 
      0.0433917         1788.15         1786.29         1786.29 
      0.0492413         1616.36         1621.12         1621.12 
      0.0555754         1493.89         1491.66         1491.66 
      0.0619321         1370.63         1387.37         1387.37 
       0.067871         1286.57         1292.32         1292.32 
      0.0738098         1186.73         1189.21         1189.21 
      0.0800417         1074.25         1072.99         1072.99 
      0.0862327          957.24         958.289         958.289 
      0.0921407         859.005         859.649         859.649 
      0.0982031         780.565         776.492         776.492 
       0.104506         709.116         711.339         711.339 
       0.110769         663.505         664.654         664.654 
       0.116806         634.838         630.334         630.334 
       0.122832         599.166         599.782         599.782 
       0.129052         568.628         566.772         566.772 
       0.135211         535.784         530.287         530.287 
       0.141259         494.547         491.664         491.664 
       0.147318         453.119         453.039         453.039 
       0.153489         420.384         417.052         417.052 
       0.159709         393.242         386.567         386.567 
       0.165845         364.097         362.836         362.836 
       0.171974         352.251         344.517         344.517 
       0.178125         337.142         329.639         329.639 
       0.184229         319.906         316.234         316.234 
        0.19034         309.362         302.506         302.506 
       0.196428         294.938         287.737         287.737 
       0.202534         275.316         271.969         271.969 
       0.208729         263.555         255.816         255.816 
       0.214876         250.702         240.664         240.664 
       0.220989         233.242         227.268         227.268 
       0.227147          226.18         215.814         215.814 
        0.23329         217.167         206.288         206.288 
       0.239377         210.165         198.227         198.227 
       0.245482          201.01         190.891         190.891 
       0.251667          192.52         183.654         183.654 
       0.257832         188.171         176.287         176.287 
       0.263955         178.142         168.761         168.761 
       0.270079         170.764         161.196         161.196 
        0.27624         162.535         153.827         153.827 
       0.282372         156.604         147.008         147.008 
        0.28843         153.552         140.926         140.926 
       0.294538         146.914         135.476         135.476 
       0.300721         140.708         130.548         130.548 
        0.30691         137.893         126.028         126.028 
       0.313033         132.567         121.775         121.775 
       0.319153         130.023         117.611         117.611 
       0.325316         124.298         113.441         113.441 
        0.33145         120.145          109.33          109.33 
       0.337538         116.321          105.35          105.35 
       0.343633         112.702         101.545         101.545 
       0.349808         108.943         97.9296         97.9296 
       0.355968         105.595         94.5923         94.5923 
       0.362074         103.441         91.5305         91.5305 
       0.368217         100.587         88.6573         88.6573 
       0.374374         98.4152         85.9297         85.9297 
       0.380519         94.2691         83.3068         83.3068 
       0.386598         91.7168         80.7826         80.7826 
       0.392688         89.0032         78.3108         78.3108 
        0.39888         87.2534         75.8643         75.8643 
       0.405048         85.0918         73.5144         73.5144 
       0.411186          82.901         71.2771         71.2771 
       0.417313         80.5944          69.157          69.157 
       0.423458         78.3707         67.1462         67.1462 
       0.429607         76.9953         65.2377         65.2377 
       0.435692         75.6222         63.4383         63.4383 
       0.441815         72.8928         61.7009         61.7009 
       0.447964         70.6801         60.0154         60.0154 
       0.454126         69.4387         58.3772         58.3772 
       0.460267         68.7466          56.795          56.795 
       0.466387         66.8394         55.2688         55.2688 
        0.47254         65.8618         53.7877         53.7877 
       0.478662         63.6986         52.3709         52.3709 
       0.484765         62.4558         51.0172         51.0172 
       0.490885         60.7457         49.7155         49.7155 
       0.497035         59.9175         48.4587         48.4587 
       0.503198         58.4932         47.2469         47.2469 
       0.509342         56.9665         46.0813         46.0813 
       0.515458         56.2362         44.9589         44.9589 
       0.521598         54.8943         43.8665         43.8665 
       0.527764         54.1847         42.8031         42.8031 
       0.533884          53.089         41.7815         41.7815 
           0.54         51.9245         40.7947         40.7947 
       0.546137         50.4082         39.8379         39.8379 
       0.552299         49.6018         38.9098         38.9098 
       0.558452         48.5849         38.0147         38.0147 
       0.564573         48.1752         37.1538         37.1538 
       0.570708          46.822         36.3191         36.3191 
       0.576825         46.2606          35.513          35.513 
       0.582926         45.5112         34.7334         34.7334 
       0.589034         44.6217         33.9757         33.9757 
       0.595184         44.0099          33.235          33.235 
       0.601379         42.8294         32.5113         32.5113 
       0.607522         42.1949         31.8154         31.8154 
       0.613639         41.5704         31.1434         31.1434 
       0.619772         40.8397           30.49           30.49 
       0.625918         40.0551         29.8548         29.8548 
       0.632068         39.7145         29.2378         29.2378 
       0.638161         38.8744          28.644          28.644 
         0.6443         38.3356         28.0625         28.0625 
       0.650464         37.3934         27.4952         27.4952 
       0.656582         37.1651         26.9478         26.9478 
       0.662703         36.7122         26.4154         26.4154 
       0.668861         35.7696         25.8945         25.8945 
       0.675024         35.3782         25.3875         25.3875 
       0.681124         35.0903         24.8994         24.8994 
       0.687237         34.3859         24.4235         24.4235 
       0.693381         33.7491         23.9579         23.9579 
       0.699536         33.5616         23.5039         23.5039 
       0.705665         32.9317         23.0637         23.0637 
       0.711789         32.3556         22.6354         22.6354 
       0.717957         31.7326         22.2152         22.2152 
        0.72409         31.4511         21.8082         21.8082 
       0.730186         31.2836         21.4139         21.4139 
       0.736317         30.6526         21.0275         21.0275 
       0.742472         30.2809         20.6492         20.6492 
       0.748622         29.7816         20.2808         20.2808 
        0.75476         29.0738         19.9223         19.9223 
       0.760888         28.9954         19.5731         19.5731 
       0.767043         28.4943          19.231          19.231 
       0.773185         28.2085         18.8979         18.8979 
       0.779291         27.8974         18.5747         18.5747 
       0.785407         27.4367         18.2587         18.2587 
       0.791564         27.2751         17.9482         17.9482 
       0.797719         26.6922         17.6451         17.6451 
       0.803834         26.5638         17.3511         17.3511 
       0.809972         26.0751         17.0628         17.0628 
       0.816124         25.7921         16.7805         16.7805 
       0.822261         25.5078         16.5054         16.5054 
       0.828378         25.2473         16.2374         16.2374 
       0.834502         24.9797         15.9752         15.9752 
       0.840667         24.7203         15.7172         15.7172 
       0.846816          24.186         15.4656         15.4656 
       0.852925          24.115         15.2212         15.2212 
       0.859047         23.8282         14.9817         14.9817 
       0.865192         23.4861         14.7466         14.7466 
       0.871341         23.1957         14.5165         14.5165 
       0.877463         22.9549         14.2923         14.2923 
       0.883569         22.8229         14.0735         14.0735 
       0.889708         22.4548         13.8583         13.8583 
       0.895864         22.1789          13.647          13.647 
       0.902008         21.9089         13.4407         13.4407 
       0.908149         21.6589         13.2388         13.2388 
       0.914301         21.5485         13.0408         13.0408 
       0.920448         21.2224          12.847          12.847 
       0.926574         21.0362          12.658          12.658 
       0.932687         20.7759         12.4731         12.4731 
       0.938823         20.5168         12.2914         12.2914 
       0.944975         20.3498         12.1129         12.1129 
       0.951105         20.1338         11.9386         11.9386 
       0.957225          20.013         11.7681         11.7681 
       0.963368         19.6936         11.6004         11.6004 
       0.969511         19.5118          11.436          11.436 
       0.975621           19.33         11.2757         11.2757 
       0.981748         19.0865         11.1181         11.1181 
       0.987916         18.9636         10.9626         10.9626 
        0.99406          18.747         10.8106         10.8106 
        1.00019            18.6         10.6619         10.6619 
        1.00632          18.431         10.5161         10.5161 
        1.01246         18.2693         10.3728         10.3728 
        1.01859         18.0346         10.2325         10.2325 
        1.02471         17.8459          10.095          10.095 
        1.03085         17.7756         9.95958         9.95958 
        1.03698         17.6017         9.82695         9.82695 
        1.04314         17.3825         9.69619         9.69619 
        1.04929         17.1706         9.56815         9.56815 
        1.05541         17.0992         9.44296         9.44296 
        1.06154         16.9593         9.31973         9.31973 
        1.06769         16.7935         9.19853         9.19853 
        1.07382          16.558         9.07991         9.07991 
        1.07993         16.4253         8.96367         8.96367 
        1.08607         16.3447         8.84901         8.84901 
        1.09222         16.1409         8.73625         8.73625 
        1.09836         16.0622         8.62561         8.62561 
        1.10449         15.8639         8.51704         8.51704 
        1.11063           15.79         8.41023         8.41023 
        1.11677         15.6832         8.30531         8.30531 
         1.1229         15.5245         8.20238         8.20238 
        1.12903         15.4025         8.10113         8.10113 
        1.13518         15.2132         8.00152         8.00152 
        1.14131         15.1307         7.90365         7.90365 
        1.14745         14.9143          7.8075          7.8075 
        1.15359         14.7986         7.71294         7.71294 
        1.15973         14.6809         7.61993         7.61993 
        1.16584         14.5652         7.52888         7.52888 
        1.17197         14.4294         7.43921         7.43921 
        1.17811         14.3211         7.35074         7.35074 
        1.18424         14.2216         7.26398         7.26398 
        1.19038         14.1388         7.17838         7.17838 
        1.19652         13.9988          7.0942          7.0942 
        1.20267         13.9066         7.01139         7.01139 
        1.20881         13.7477         6.92994         6.92994 
        1.21495         13.6533         6.84991         6.84991 
        1.22108         13.6013         6.77118         6.77118 
         1.2272         13.4761         6.69388         6.69388 
        1.23334          13.398         6.61763         6.61763 
        1.23949         13.2692         6.54239         6.54239 
        1.24562         13.1488         6.46854         6.46854 
        1.25174         13.0822         6.39596         6.39596 
        1.25789         12.9358         6.32428         6.32428 
        1.26402         12.8899         6.25383         6.25383 
        1.27014         12.8161         6.18464         6.18464 
        1.27628         12.6468          6.1163          6.1163 
        1.28244         12.6361         6.04887         6.04887 
        1.28858         12.5098         5.98256         5.98256 
        1.29471         12.3459         5.91739         5.91739 
        1.30084         12.2736         5.85327         5.85327 
        1.30697         12.2582            5.79            5.79 
        1.31312         12.1225         5.72759         5.72759 
        1.31925         12.0548          5.6663          5.6663 
        1.32537         11.9645         5.60597         5.60597 
        1.33151         11.8774         5.54631         5.54631 
        1.33765         11.7889         5.48757         5.48757 
        1.34378         11.7606          5.4298          5.4298 
        1.34992         11.6345         5.37282         5.37282 
        1.35606         11.5375         5.31655         5.31655 
         1.3622         11.4496         5.26119         5.26119 
        1.36833          11.409         5.20676         5.20676 
        1.37445         11.3354         5.15314         5.15314 
        1.38059          11.258         5.10011         5.10011 
        1.38675         11.1757         5.04771         5.04771 
        1.39288         11.0645         4.99626         4.99626 
        1.39901          11.011         4.94555         4.94555 
        1.40515         10.9299         4.89545         4.89545 
         1.4113         10.8505         4.84606         4.84606 
        1.41742         10.8069         4.79755         4.79755 
        1.42355          10.699         4.74961         4.74961 
         1.4297         10.6563         4.70219         4.70219 
        1.43585         10.5949         4.65545         4.65545 
        1.44198         10.5284         4.60952         4.60952 
        1.44809         10.4577          4.5643          4.5643 
        1.45423         10.3717         4.51953         4.51953 
        1.46036         10.3207         4.47544         4.47544 
        1.46649         10.2503         4.43194         4.43194 
        1.47263         10.1991         4.38898         4.38898 
        1.47877         10.1262         4.34661         4.34661 
        1.48491         10.0759         4.30474         4.30474 
        1.49104         9.98706         4.26352         4.26352 
        1.49718         9.95511         4.22281         4.22281 
        1.50333         9.88378         4.18257         4.18257 
        1.50947         9.80995         4.14295         4.14295 
         1.5156         9.78287          4.1039          4.1039 
        1.52172         9.70897         4.06535         4.06535 
        1.52787         9.65513         4.02723         4.02723 
          1.534         9.59725         3.98965         3.98965 
        1.54013         9.55041         3.95259         3.95259 
        1.54627         9.48233         3.91594         3.91594 
        1.55241           9.402         3.87975         3.87975 
        1.55855         9.38656         3.84407         3.84407 
        1.56467         9.31835         3.80894         3.80894 
         1.5708         9.27241         3.77415         3.77415 
        1.57695          9.1989         3.73975         3.73975 
        1.58308         9.13135         3.70586         3.70586 
        1.58922         9.10492         3.67236         3.67236 
        1.59535         9.04473          3.6393          3.6393 
         1.6015         8.96237          3.6066          3.6066 
        1.60764         8.93458         3.57432         3.57432 
        1.61376         8.90157         3.54253         3.54253 
        1.61989         8.81682         3.51111         3.51111 
        1.62604         8.79578         3.47999         3.47999 
        1.63218          8.7512         3.44928         3.44928 
        1.63831         8.68938         3.41901         3.41901 
        1.64444         8.62219         3.38909         3.38909 
        1.65059         8.57592         3.35947         3.35947 
        1.65673          8.5556         3.33023         3.33023 
        1.66285         8.50092         3.30142         3.30142 
        1.66898         8.45765         3.27295         3.27295 
        1.67512         8.40358         3.24477         3.24477 
        1.68127         8.33816         3.21689         3.21689 
         1.6874         8.31677          3.1894          3.1894 
        1.69353         8.25614         3.16225         3.16225 
        1.69967         8.22445         3.13536         3.13536 
        1.70581         8.16511         3.10879         3.10879 
        1.71193         8.14871         3.08264         3.08264 
        1.71806         8.09741         3.05673         3.05673 
        1.72421         8.03868         3.03107         3.03107 
        1.73035         8.00372         3.00573         3.00573 
        1.73649         7.97108         2.98069         2.98069 
        1.74262         7.89566         2.95596         2.95596 
        1.74876         7.89945         2.93149         2.93149 
        1.75489         7.84422         2.90736         2.90736 
        1.76101         7.78439          2.8835          2.8835 
        1.76715         7.77106         2.85988         2.85988 
        1.77329         7.73033          2.8365          2.8365 
        1.77943         7.66244         2.81338         2.81338 
        1.78557         7.66143         2.79054         2.79054 
        1.79171         7.61481         2.76796         2.76796 
        1.79785         7.58188         2.74563         2.74563 
        1.80399         7.50955         2.72354         2.72354 
        1.81012          7.4942         2.70174         2.70174 
        1.81625         7.44131         2.68018         2.68018 
        1.82239         7.40928         2.65883         2.65883 
        1.82853         7.36451         2.63772         2.63772 
        1.83466         7.31377         2.61686         2.61686 
        1.84078         7.29912         2.59625         2.59625 
        1.84692          7.2633         2.57584         2.57584 
        1.85306         7.22783         2.55561         2.55561 
         1.8592         7.20667         2.53564         2.53564 
        1.86533         7.16774          2.5159          2.5159 
        1.87147         7.12232         2.49634         2.49634 
