# k  (h/Mpc)    Pcb(k)  (Mpc/h)^3    Pcb_linear(k) (Mpc/h)^3    Pcb_NL(k) (Mpc/h)^3   ShotnoiseSubtracted = false
     0.00783031         13273.2         13336.1         13336.1 
       0.013688         16431.2         16857.5         16857.5 
       0.019231           17111         17373.9         17373.9 
      0.0249154         16367.6         16362.2         16362.2 
      0.0312784         14319.7         14495.7         14495.7 
      0.0375637         12391.9           12648           12648 
      0.0433917         11145.5         11251.8         11251.8 
      0.0492413         10024.3         10211.2         10211.2 
      0.0555754         9277.03         9395.48         9395.48 
      0.0619321         8367.27         8738.48         8738.48 
       0.067871         7903.06         8139.66         8139.66 
      0.0738098          7340.3         7490.17         7490.17 
      0.0800417         6648.16         6758.11         6758.11 
      0.0862327         5928.61         6035.64         6035.64 
      0.0921407         5358.24         5414.34         5414.34 
      0.0982031         4915.38         4890.57         4890.57 
       0.104506          4443.9          4480.2          4480.2 
       0.110769         4168.43         4186.15         4186.15 
       0.116806         4015.02         3969.98         3969.98 
       0.122832         3779.19         3777.55         3777.55 
       0.129052         3568.97         3569.64         3569.64 
       0.135211         3427.19         3339.84         3339.84 
       0.141259         3153.73         3096.58         3096.58 
       0.147318         2902.71         2853.31         2853.31 
       0.153489         2728.82         2626.66         2626.66 
       0.159709         2618.16         2434.66         2434.66 
       0.165845         2405.47         2285.19         2285.19 
       0.171974         2355.08         2169.81         2169.81 
       0.178125         2285.44         2076.11         2076.11 
       0.184229            2116         1991.68         1991.68 
        0.19034         2080.32         1905.22         1905.22 
       0.196428         2014.75          1812.2          1812.2 
       0.202534         1886.19         1712.89         1712.89 
       0.208729         1843.66         1611.15         1611.15 
       0.214876         1760.03         1515.73         1515.73 
       0.220989         1668.81         1431.35         1431.35 
       0.227147         1627.32         1359.22         1359.22 
        0.23329         1567.09         1299.22         1299.22 
       0.239377         1556.75         1248.45         1248.45 
       0.245482         1485.11         1202.25         1202.25 
       0.251667         1430.68         1156.67         1156.67 
       0.257832         1409.67         1110.27         1110.27 
       0.263955         1343.95         1062.87         1062.87 
       0.270079         1307.23         1015.23         1015.23 
        0.27624         1252.48         968.817         968.817 
       0.282372         1236.17          925.87          925.87 
        0.28843         1217.15         887.562         887.562 
       0.294538         1160.95         853.239         853.239 
       0.300721         1137.78         822.204         822.204 
        0.30691         1112.89         793.732         793.732 
       0.313033         1069.91         766.951         766.951 
       0.319153         1057.59         740.721         740.721 
       0.325316         1044.19         714.457         714.457 
        0.33145         1021.84         688.568         688.568 
       0.337538         987.969         663.502         663.502 
       0.343633         964.055         639.538         639.538 
       0.349808         945.723         616.767         616.767 
       0.355968         927.643         595.748         595.748 
       0.362074         898.907         576.465         576.465 
       0.368217         896.213          558.37          558.37 
       0.374374         882.952          541.19          541.19 
       0.380519          851.48         524.672         524.672 
       0.386598         845.975         508.774         508.774 
       0.392688         826.257         493.206         493.206 
        0.39888         807.474         477.798         477.798 
       0.405048         792.772         462.998         462.998 
       0.411186         790.671         448.907         448.907 
       0.417313          786.05         435.555         435.555 
       0.423458         762.002         422.891         422.891 
       0.429607         741.305         410.871         410.871 
       0.435692         734.503         399.538         399.538 
       0.441815         721.402         388.596         388.596 
       0.447964         710.978         377.981         377.981 
       0.454126         702.509         367.663         367.663 
       0.460267         692.647         357.698         357.698 
       0.466387         681.582         348.086         348.086 
        0.47254         670.471         338.758         338.758 
       0.478662         660.637         329.835         329.835 
       0.484765         653.629         321.309         321.309 
       0.490885         647.017         313.111         313.111 
       0.497035          634.62         305.196         305.196 
       0.503198         633.819         297.563         297.563 
       0.509342         621.757         290.222         290.222 
       0.515458         609.782         283.154         283.154 
       0.521598         605.881         276.273         276.273 
       0.527764         593.294         269.576         269.576 
       0.533884         588.886         263.142         263.142 
           0.54          583.17         256.927         256.927 
       0.546137         573.985         250.901         250.901 
       0.552299         571.583         245.056         245.056 
       0.558452         563.926         239.418         239.418 
       0.564573         559.025         233.997         233.997 
       0.570708         553.692         228.739         228.739 
       0.576825         542.635         223.663         223.663 
       0.582926          540.94         218.753         218.753 
       0.589034         533.059          213.98          213.98 
       0.595184         528.473         209.316         209.316 
       0.601379         520.293         204.758         204.758 
       0.607522         511.875         200.375         200.375 
       0.613639         510.789         196.143         196.143 
       0.619772         508.054         192.028         192.028 
       0.625918         498.708         188.027         188.027 
       0.632068         496.275         184.141         184.141 
       0.638161         490.732         180.401         180.401 
         0.6443         485.485         176.739         176.739 
       0.650464         480.724         173.166         173.166 
       0.656582         476.832         169.719         169.719 
       0.662703         472.219         166.365         166.365 
       0.668861         466.288         163.085         163.085 
       0.675024         463.488         159.892         159.892 
       0.681124         456.207         156.818         156.818 
       0.687237         455.159          153.82          153.82 
       0.693381         448.225         150.888         150.888 
       0.699536         447.332         148.028         148.028 
       0.705665         441.658         145.256         145.256 
       0.711789         440.413         142.559         142.559 
       0.717957         434.234         139.913         139.913 
        0.72409          430.08         137.349         137.349 
       0.730186         430.984         134.866         134.866 
       0.736317         423.791         132.432         132.432 
       0.742472         419.786          130.05          130.05 
       0.748622         416.992         127.729         127.729 
        0.75476         413.743         125.471         125.471 
       0.760888         410.599         123.272         123.272 
       0.767043         407.597         121.118         121.118 
       0.773185         404.967          119.02          119.02 
       0.779291         399.917         116.984         116.984 
       0.785407         397.406         114.994         114.994 
       0.791564         394.815         113.039         113.039 
       0.797719          388.79          111.13          111.13 
       0.803834         390.915         109.278         109.278 
       0.809972         384.535         107.462         107.462 
       0.816124         380.994         105.684         105.684 
       0.822261         378.498         103.952         103.952 
       0.828378         376.759         102.264         102.264 
       0.834502         371.118         100.612         100.612 
       0.840667         371.256         98.9874         98.9874 
       0.846816         365.315         97.4032         97.4032 
       0.852925         365.875         95.8641         95.8641 
       0.859047         362.302         94.3555         94.3555 
       0.865192         360.622         92.8748         92.8748 
       0.871341         355.573         91.4253         91.4253 
       0.877463         353.839         90.0137         90.0137 
       0.883569         351.166         88.6359         88.6359 
       0.889708         347.885         87.2802         87.2802 
       0.895864         344.683         85.9498         85.9498 
       0.902008         343.404         84.6502         84.6502 
       0.908149         340.322         83.3786         83.3786 
       0.914301         338.828         82.1315         82.1315 
       0.920448         336.034         80.9113         80.9113 
       0.926574         333.749         79.7205         79.7205 
       0.932687         332.351         78.5564         78.5564 
       0.938823         328.553         77.4118         77.4118 
       0.944975         327.753         76.2876         76.2876 
       0.951105         324.654           75.19           75.19 
       0.957225         320.758         74.1162         74.1162 
       0.963368         321.417         73.0599         73.0599 
       0.969511         315.447         72.0245         72.0245 
       0.975621         314.904         71.0149         71.0149 
       0.981748         313.427         70.0224         70.0224 
       0.987916         311.571         69.0427         69.0427 
        0.99406         308.486         68.0857         68.0857 
        1.00019         305.904         67.1489         67.1489 
        1.00632         305.576         66.2308         66.2308 
        1.01246         302.868         65.3286         65.3286 
        1.01859         299.417         64.4449         64.4449 
        1.02471         297.624         63.5789         63.5789 
        1.03085         296.612         62.7259         62.7259 
        1.03698         294.874         61.8905         61.8905 
        1.04314         293.771         61.0671         61.0671 
        1.04929         291.769         60.2606         60.2606 
        1.05541         288.475         59.4722         59.4722 
        1.06154         286.853         58.6961         58.6961 
        1.06769         284.315         57.9327         57.9327 
        1.07382         283.268         57.1857         57.1857 
        1.07993         281.028         56.4536         56.4536 
        1.08607         279.365         55.7314         55.7314 
        1.09222         277.237         55.0213         55.0213 
        1.09836         276.304         54.3245         54.3245 
        1.10449         274.265         53.6407         53.6407 
        1.11063         272.133          52.968          52.968 
        1.11677         269.649         52.3072         52.3072 
         1.1229         269.155          51.659          51.659 
        1.12903         266.895         51.0213         51.0213 
        1.13518         264.923         50.3939         50.3939 
        1.14131         264.095         49.7775         49.7775 
        1.14745         260.911          49.172          49.172 
        1.15359         259.147         48.5764         48.5764 
        1.15973         258.293         47.9906         47.9906 
        1.16584         256.871         47.4172         47.4172 
        1.17197         255.147         46.8525         46.8525 
        1.17811         252.846         46.2953         46.2953 
        1.18424         251.516         45.7488         45.7488 
        1.19038         250.363         45.2097         45.2097 
        1.19652         247.356         44.6796         44.6796 
        1.20267         247.005         44.1581         44.1581 
        1.20881         244.986          43.645          43.645 
        1.21495         244.247          43.141          43.141 
        1.22108         242.452         42.6452         42.6452 
         1.2272         239.692         42.1584         42.1584 
        1.23334          239.03         41.6781         41.6781 
        1.23949         237.783         41.2042         41.2042 
        1.24562         236.153         40.7392         40.7392 
        1.25174         234.712          40.282          40.282 
        1.25789         232.625         39.8306         39.8306 
        1.26402         232.325         39.3869         39.3869 
        1.27014         231.123         38.9511         38.9511 
        1.27628         228.775         38.5207         38.5207 
        1.28244         227.518         38.0961         38.0961 
        1.28858         226.214         37.6784         37.6784 
        1.29471         225.045          37.268          37.268 
        1.30084         223.846         36.8641         36.8641 
        1.30697         221.593         36.4657         36.4657 
        1.31312         220.404         36.0726         36.0726 
        1.31925          219.14         35.6866         35.6866 
        1.32537         218.436         35.3066         35.3066 
        1.33151         216.695         34.9309         34.9309 
        1.33765         215.013         34.5609         34.5609 
        1.34378         214.055         34.1971         34.1971 
        1.34992         212.291         33.8383         33.8383 
        1.35606         211.355         33.4839         33.4839 
         1.3622             210         33.1352         33.1352 
        1.36833         208.467         32.7924         32.7924 
        1.37445         208.234         32.4547         32.4547 
        1.38059         205.901         32.1207         32.1207 
        1.38675         204.575         31.7907         31.7907 
        1.39288         203.507         31.4666         31.4666 
        1.39901         202.057         31.1473         31.1473 
        1.40515         201.405         30.8317         30.8317 
         1.4113         199.754         30.5207         30.5207 
        1.41742         198.084         30.2151         30.2151 
        1.42355          198.24         29.9132         29.9132 
         1.4297         196.372         29.6146         29.6146 
        1.43585         195.389         29.3202         29.3202 
        1.44198         193.556         29.0309         29.0309 
        1.44809           192.9         28.7462         28.7462 
        1.45423         191.724         28.4642         28.4642 
        1.46036         190.628         28.1865         28.1865 
        1.46649         189.463         27.9125         27.9125 
        1.47263         188.718          27.642          27.642 
        1.47877         187.142         27.3751         27.3751 
        1.48491         185.649         27.1115         27.1115 
        1.49104         184.138         26.8518         26.8518 
        1.49718         183.603         26.5954         26.5954 
        1.50333         182.043          26.342          26.342 
        1.50947         181.296         26.0924         26.0924 
         1.5156         180.114         25.8465         25.8465 
        1.52172         179.231         25.6038         25.6038 
        1.52787         178.118         25.3637         25.3637 
          1.534         177.218          25.127          25.127 
        1.54013         175.923         24.8936         24.8936 
        1.54627         175.024         24.6627         24.6627 
        1.55241         174.162         24.4348         24.4348 
        1.55855         173.299         24.2101         24.2101 
        1.56467         172.033         23.9888         23.9888 
         1.5708         170.587         23.7697         23.7697 
        1.57695         169.903         23.5531         23.5531 
        1.58308         168.715         23.3396         23.3396 
        1.58922         167.821         23.1287         23.1287 
        1.59535         166.463         22.9205         22.9205 
         1.6015          165.86         22.7145         22.7145 
        1.60764         164.692         22.5112         22.5112 
        1.61376         163.442          22.311          22.311 
        1.61989         162.696         22.1131         22.1131 
        1.62604         161.572         21.9171         21.9171 
        1.63218         160.797         21.7237         21.7237 
        1.63831         159.955          21.533          21.533 
        1.64444         158.687         21.3446         21.3446 
        1.65059          157.93          21.158          21.158 
        1.65673          156.86         20.9739         20.9739 
        1.66285         156.284         20.7925         20.7925 
        1.66898         155.151         20.6132         20.6132 
        1.67512         154.155         20.4357         20.4357 
        1.68127         153.409         20.2601         20.2601 
         1.6874         152.326          20.087          20.087 
        1.69353         151.904          19.916          19.916 
        1.69967         150.538         19.7466         19.7466 
        1.70581         150.098         19.5793         19.5793 
        1.71193         148.863         19.4146         19.4146 
        1.71806          147.53         19.2514         19.2514 
        1.72421         147.108         19.0898         19.0898 
        1.73035         146.159         18.9302         18.9302 
        1.73649           145.1         18.7725         18.7725 
        1.74262         144.612         18.6167         18.6167 
        1.74876         143.714         18.4627         18.4627 
        1.75489          142.95         18.3106         18.3106 
        1.76101         141.704         18.1604         18.1604 
        1.76715         140.847         18.0117         18.0117 
        1.77329         140.133         17.8644         17.8644 
        1.77943         139.113         17.7187         17.7187 
        1.78557         138.584         17.5749         17.5749 
        1.79171         137.794         17.4327         17.4327 
        1.79785         136.733          17.292          17.292 
        1.80399         136.066          17.153          17.153 
        1.81012         135.164         17.0156         17.0156 
        1.81625         134.507         16.8799         16.8799 
        1.82239         133.655         16.7454         16.7454 
        1.82853         132.851         16.6124         16.6124 
        1.83466         131.797         16.4811         16.4811 
        1.84078         131.428         16.3513         16.3513 
        1.84692         130.817         16.2227         16.2227 
        1.85306         129.736         16.0953         16.0953 
         1.8592         129.219         15.9696         15.9696 
        1.86533         128.061         15.8452         15.8452 
        1.87147         127.579          15.722          15.722 
