# k  (h/Mpc)    P(k)  (Mpc/h)^3    P_linear(k)  (Mpc/h)^3     P_NL(k)  ShotnoiseSubtracted = false
     0.00783031         10250.5         10302.2         10302.2 
       0.013688         12727.9         13023.6         13023.6 
       0.019231           13248         13423.1         13423.1 
      0.0249154         12653.1         12641.8         12641.8 
      0.0312784           11093         11199.8         11199.8 
      0.0375637         9610.24          9772.4          9772.4 
      0.0433917         8636.84         8693.68         8693.68 
      0.0492413         7774.87         7889.66         7889.66 
      0.0555754         7197.37         7259.46         7259.46 
      0.0619321         6511.01         6751.84         6751.84 
       0.067871         6145.82         6289.17         6289.17 
      0.0738098         5698.54         5787.35         5787.35 
      0.0800417         5162.79         5221.73         5221.73 
      0.0862327         4601.11          4663.5          4663.5 
      0.0921407         4150.71         4183.46         4183.46 
      0.0982031         3800.39         3778.76         3778.76 
       0.104506         3437.05         3461.68         3461.68 
       0.110769         3222.52         3234.48         3234.48 
       0.116806          3103.3         3067.46         3067.46 
       0.122832         2918.46         2918.78         2918.78 
       0.129052         2761.76         2758.13         2758.13 
       0.135211         2642.07         2580.58         2580.58 
       0.141259          2431.8         2392.62         2392.62 
       0.147318         2232.17         2204.66         2204.66 
       0.153489         2093.36         2029.53         2029.53 
       0.159709         1998.83         1881.18         1881.18 
       0.165845         1835.92         1765.69         1765.69 
       0.171974         1798.14         1676.54         1676.54 
       0.178125         1739.14         1604.14         1604.14 
       0.184229         1616.22          1538.9          1538.9 
        0.19034         1583.76          1472.1          1472.1 
       0.196428         1529.65         1400.22         1400.22 
       0.202534         1426.92         1323.49         1323.49 
       0.208729         1393.17         1244.89         1244.89 
       0.214876         1329.96         1171.15         1171.15 
       0.220989         1251.97         1105.96         1105.96 
       0.227147         1222.57         1050.22         1050.22 
        0.23329         1177.61         1003.87         1003.87 
       0.239377         1164.55         964.639         964.639 
       0.245482         1108.96         928.937         928.937 
       0.251667         1067.49         893.724         893.724 
       0.257832         1053.26         857.869         857.869 
       0.263955         999.774         821.248         821.248 
       0.270079         968.452         784.431         784.431 
        0.27624         927.141         748.574         748.574 
       0.282372         911.041          715.39          715.39 
        0.28843         900.859         685.791         685.791 
       0.294538         856.482         659.271         659.271 
       0.300721         835.355         635.291         635.291 
        0.30691         819.984         613.292         613.292 
       0.313033         785.974         592.598         592.598 
       0.319153         774.779         572.331         572.331 
       0.325316         762.993         552.037         552.037 
        0.33145         746.416         532.034         532.034 
       0.337538         720.185         512.666         512.666 
       0.343633         700.476          494.15          494.15 
       0.349808         685.049         476.556         476.556 
       0.355968         672.353         460.316         460.316 
       0.362074         650.672         445.415         445.415 
       0.368217         647.716         431.435         431.435 
       0.374374         636.859         418.161         418.161 
       0.380519         612.715         405.397         405.397 
       0.386598         606.733         393.115         393.115 
       0.392688         593.478         381.084         381.084 
        0.39888         578.131          369.18          369.18 
       0.405048         568.115         357.744         357.744 
       0.411186          566.02         346.857         346.857 
       0.417313         560.137         336.539         336.539 
       0.423458         543.468         326.754         326.754 
       0.429607         528.941         317.467         317.467 
       0.435692         521.754          308.71          308.71 
       0.441815         513.373         300.256         300.256 
       0.447964         503.113         292.054         292.054 
       0.454126         497.357         284.082         284.082 
       0.460267         489.404         276.382         276.382 
       0.466387         481.599         268.955         268.955 
        0.47254         474.259         261.747         261.747 
       0.478662         464.714         254.853         254.853 
       0.484765         459.804         248.266         248.266 
       0.490885         455.214         241.931         241.931 
       0.497035         446.248         235.815         235.815 
       0.503198         445.508         229.918         229.918 
       0.509342         435.294         224.246         224.246 
       0.515458          428.02         218.784         218.784 
       0.521598         421.964         213.468         213.468 
       0.527764         415.342         208.293         208.293 
       0.533884         413.369         203.321         203.321 
           0.54         407.628         198.519         198.519 
       0.546137         399.415         193.864         193.864 
       0.552299         398.624         189.347         189.347 
       0.558452         392.212         184.991         184.991 
       0.564573         388.389         180.802         180.802 
       0.570708         383.667          176.74          176.74 
       0.576825         376.575         172.817         172.817 
       0.582926         374.212         169.024         169.024 
       0.589034          368.71         165.336         165.336 
       0.595184         366.157         161.732         161.732 
       0.601379         360.148          158.21          158.21 
       0.607522         353.628         154.823         154.823 
       0.613639          352.09         151.553         151.553 
       0.619772          350.66         148.374         148.374 
       0.625918         344.648         145.282         145.282 
       0.632068         340.922          142.28          142.28 
       0.638161         337.919          139.39          139.39 
         0.6443         334.783         136.561         136.561 
       0.650464         330.017           133.8           133.8 
       0.656582         327.026         131.136         131.136 
       0.662703          324.73         128.545         128.545 
       0.668861         319.452         126.011         126.011 
       0.675024         317.794         123.543         123.543 
       0.681124         314.017         121.168         121.168 
       0.687237          311.64         118.852         118.852 
       0.693381         307.745         116.586         116.586 
       0.699536         305.464         114.377         114.377 
       0.705665         302.246         112.235         112.235 
       0.711789         300.105         110.151         110.151 
       0.717957         296.511         108.106         108.106 
        0.72409         293.235         106.125         106.125 
       0.730186         294.855         104.207         104.207 
       0.736317         289.515         102.326         102.326 
       0.742472         286.352         100.485         100.485 
       0.748622         282.995         98.6925         98.6925 
        0.75476         282.995         96.9477         96.9477 
       0.760888         279.558         95.2485         95.2485 
       0.767043         276.468         93.5838         93.5838 
       0.773185         275.013         91.9629         91.9629 
       0.779291         270.851         90.3902         90.3902 
       0.785407         269.905         88.8525         88.8525 
       0.791564         267.332         87.3414         87.3414 
       0.797719         263.191         85.8666         85.8666 
       0.803834         265.139         84.4357         84.4357 
       0.809972         261.445         83.0326         83.0326 
       0.816124         257.993         81.6588         81.6588 
       0.822261         255.811         80.3202         80.3202 
       0.828378         255.513          79.016          79.016 
       0.834502         251.706         77.7401         77.7401 
       0.840667         251.688         76.4844         76.4844 
       0.846816         247.297         75.2604         75.2604 
       0.852925         246.923         74.0712         74.0712 
       0.859047         244.401         72.9055         72.9055 
       0.865192         244.004         71.7614         71.7614 
       0.871341         240.562         70.6414         70.6414 
       0.877463         238.636         69.5507         69.5507 
       0.883569         238.091         68.4861         68.4861 
       0.889708         235.758         67.4386         67.4386 
       0.895864         233.799         66.4107         66.4107 
       0.902008         231.685         65.4065         65.4065 
       0.908149          229.84          64.424          64.424 
       0.914301         228.628         63.4604         63.4604 
       0.920448         227.856         62.5176         62.5176 
       0.926574         225.353         61.5975         61.5975 
       0.932687         224.279         60.6981         60.6981 
       0.938823         222.356         59.8136         59.8136 
       0.944975         221.182          58.945          58.945 
       0.951105         218.961         58.0969         58.0969 
       0.957225          217.43         57.2672         57.2672 
       0.963368         216.709         56.4511         56.4511 
       0.969511         213.302         55.6511         55.6511 
       0.975621         212.187          54.871          54.871 
       0.981748         211.125         54.1041         54.1041 
       0.987916         210.194         53.3471         53.3471 
        0.99406         208.311         52.6077         52.6077 
        1.00019         207.043         51.8838         51.8838 
        1.00632         206.202         51.1744         51.1744 
        1.01246         204.427         50.4774         50.4774 
        1.01859         202.486         49.7946         49.7946 
        1.02471         200.941         49.1254         49.1254 
        1.03085         199.889         48.4663         48.4663 
        1.03698         198.544         47.8209         47.8209 
        1.04314         198.192         47.1846         47.1846 
        1.04929         196.779         46.5615         46.5615 
        1.05541         195.238         45.9523         45.9523 
        1.06154         193.577         45.3526         45.3526 
        1.06769         192.223         44.7628         44.7628 
        1.07382         191.783         44.1856         44.1856 
        1.07993         189.635         43.6199         43.6199 
        1.08607         188.553         43.0619         43.0619 
        1.09222         187.371         42.5132         42.5132 
        1.09836          186.53         41.9748         41.9748 
        1.10449         184.783         41.4464         41.4464 
        1.11063         183.621         40.9267         40.9267 
        1.11677         182.832         40.4161         40.4161 
         1.1229         181.371         39.9153         39.9153 
        1.12903         180.538         39.4225         39.4225 
        1.13518         179.117         38.9378         38.9378 
        1.14131         178.211         38.4615         38.4615 
        1.14745         176.613         37.9936         37.9936 
        1.15359         175.048         37.5335         37.5335 
        1.15973         174.791         37.0809         37.0809 
        1.16584           173.9         36.6378         36.6378 
        1.17197         172.758         36.2014         36.2014 
        1.17811         171.107         35.7709         35.7709 
        1.18424          170.29         35.3487         35.3487 
        1.19038         169.189         34.9321         34.9321 
        1.19652          167.85         34.5225         34.5225 
        1.20267         166.993         34.1195         34.1195 
        1.20881         165.747         33.7231         33.7231 
        1.21495         165.438         33.3337         33.3337 
        1.22108         164.093         32.9506         32.9506 
         1.2272          162.79         32.5744         32.5744 
        1.23334         162.159         32.2033         32.2033 
        1.23949         161.562         31.8372         31.8372 
        1.24562         160.236         31.4779         31.4779 
        1.25174         159.161         31.1246         31.1246 
        1.25789         157.983         30.7758         30.7758 
        1.26402         157.804          30.433          30.433 
        1.27014         156.711         30.0963         30.0963 
        1.27628         154.982         29.7638         29.7638 
        1.28244         154.574         29.4356         29.4356 
        1.28858         153.455         29.1129         29.1129 
        1.29471          152.62         28.7958         28.7958 
        1.30084         151.602         28.4838         28.4838 
        1.30697         150.676         28.1759         28.1759 
        1.31312         149.705         27.8721         27.8721 
        1.31925         148.659         27.5739         27.5739 
        1.32537         148.147         27.2803         27.2803 
        1.33151          147.29           26.99           26.99 
        1.33765         145.844         26.7041         26.7041 
        1.34378         145.766          26.423          26.423 
        1.34992         144.913         26.1458         26.1458 
        1.35606         143.875         25.8719         25.8719 
         1.3622         143.476         25.6025         25.6025 
        1.36833         141.757         25.3377         25.3377 
        1.37445          141.66         25.0767         25.0767 
        1.38059         140.544         24.8187         24.8187 
        1.38675         139.721         24.5637         24.5637 
        1.39288         138.662         24.3133         24.3133 
        1.39901         137.965         24.0665         24.0665 
        1.40515         137.432         23.8227         23.8227 
         1.4113         136.511         23.5824         23.5824 
        1.41742         135.515         23.3463         23.3463 
        1.42355         135.343          23.113          23.113 
         1.4297         134.089         22.8823         22.8823 
        1.43585         133.334         22.6548         22.6548 
        1.44198          132.14         22.4313         22.4313 
        1.44809         131.466         22.2112         22.2112 
        1.45423         131.144         21.9934         21.9934 
        1.46036         130.068         21.7788         21.7788 
        1.46649         129.305         21.5671         21.5671 
        1.47263         128.877         21.3581         21.3581 
        1.47877         127.681         21.1519         21.1519 
        1.48491         127.183         20.9482         20.9482 
        1.49104         125.695         20.7476         20.7476 
        1.49718          125.68         20.5495         20.5495 
        1.50333         125.155         20.3536         20.3536 
        1.50947         124.262         20.1608         20.1608 
         1.5156         123.427         19.9708         19.9708 
        1.52172         122.776         19.7832         19.7832 
        1.52787         122.122         19.5977         19.5977 
          1.534         121.455         19.4148         19.4148 
        1.54013          120.77         19.2345         19.2345 
        1.54627         119.864         19.0561         19.0561 
        1.55241         119.492           18.88           18.88 
        1.55855         118.702         18.7064         18.7064 
        1.56467         117.868         18.5354         18.5354 
         1.5708         117.024         18.3661         18.3661 
        1.57695         116.677         18.1987         18.1987 
        1.58308         115.846         18.0338         18.0338 
        1.58922         115.791         17.8708         17.8708 
        1.59535         115.079         17.7099         17.7099 
         1.6015         113.869         17.5508         17.5508 
        1.60764         113.199         17.3937         17.3937 
        1.61376         112.689          17.239          17.239 
        1.61989         112.186         17.0861         17.0861 
        1.62604         111.435         16.9347         16.9347 
        1.63218          110.97         16.7852         16.7852 
        1.63831         110.174         16.6379         16.6379 
        1.64444         109.489         16.4923         16.4923 
        1.65059         108.783         16.3482         16.3482 
        1.65673         108.526         16.2059         16.2059 
        1.66285          107.96         16.0657         16.0657 
        1.66898         107.036         15.9272         15.9272 
        1.67512         106.618           15.79           15.79 
        1.68127         105.997         15.6543         15.6543 
         1.6874         105.144         15.5206         15.5206 
        1.69353         104.623         15.3885         15.3885 
        1.69967         104.093         15.2576         15.2576 
        1.70581         103.764         15.1283         15.1283 
        1.71193         102.944          15.001          15.001 
        1.71806         102.332         14.8749         14.8749 
        1.72421         101.728         14.7501         14.7501 
        1.73035         101.309         14.6268         14.6268 
        1.73649         100.614         14.5049         14.5049 
        1.74262         100.163         14.3846         14.3846 
        1.74876         99.4196         14.2655         14.2655 
        1.75489         99.0376         14.1481         14.1481 
        1.76101         98.4006          14.032          14.032 
        1.76715         97.7059          13.917          13.917 
        1.77329         97.3411         13.8033         13.8033 
        1.77943         96.6984         13.6907         13.6907 
        1.78557         96.3149         13.5796         13.5796 
        1.79171         95.8603         13.4697         13.4697 
        1.79785         94.9394          13.361          13.361 
        1.80399         94.8285         13.2536         13.2536 
        1.81012         93.9557         13.1474         13.1474 
        1.81625         93.5319         13.0425         13.0425 
        1.82239         93.1063         12.9386         12.9386 
        1.82853         92.5498         12.8359         12.8359 
        1.83466         91.8233         12.7344         12.7344 
        1.84078         91.5569         12.6341         12.6341 
        1.84692         91.2549         12.5348         12.5348 
        1.85306         90.5698         12.4364         12.4364 
         1.8592          90.234         12.3392         12.3392 
        1.86533         89.6032         12.2431         12.2431 
        1.87147         89.1189         12.1479         12.1479 
        1.87761         88.4054         12.0537         12.0537 
