# k  (h/Mpc)    P(k)  (Mpc/h)^3    P_linear(k)  (Mpc/h)^3     P_NL(k)  ShotnoiseSubtracted = false
     0.00783031         1863.97         1876.46         1876.46 
       0.013688         2343.97          2373.4          2373.4 
       0.019231         2433.08         2446.75         2446.75 
      0.0249154         2306.68         2304.62         2304.62 
      0.0312784         2038.31         2041.93         2041.93 
      0.0375637         1774.29         1781.77         1781.77 
      0.0433917         1587.02         1585.14         1585.14 
      0.0492413         1434.83         1438.58         1438.58 
      0.0555754         1325.87         1323.69         1323.69 
      0.0619321         1217.29         1231.15         1231.15 
       0.067871         1142.22          1146.8          1146.8 
      0.0738098         1053.39          1055.3          1055.3 
      0.0800417         953.434         952.171         952.171 
      0.0862327         849.653         850.385         850.385 
      0.0921407         762.364         762.852         762.852 
      0.0982031          692.52         689.059         689.059 
       0.104506         629.339         631.242         631.242 
       0.110769         588.796         589.814         589.814 
       0.116806          563.09         559.358         559.358 
       0.122832         531.643         532.247         532.247 
       0.129052          504.49         502.953         502.953 
       0.135211         475.086         470.577         470.577 
       0.141259         438.597         436.302         436.302 
       0.147318         401.941         402.027         402.027 
       0.153489         372.725         370.092         370.092 
       0.159709         348.379          343.04          343.04 
       0.165845         322.768         321.981         321.981 
       0.171974         311.956         305.724         305.724 
       0.178125         298.508         292.522         292.522 
       0.184229         283.478         280.626         280.626 
        0.19034         273.982         268.444         268.444 
       0.196428         261.081         255.338         255.338 
       0.202534         243.835         241.345         241.345 
       0.208729         233.147         227.011         227.011 
       0.214876         221.668         213.566         213.566 
       0.220989         206.303         201.677         201.677 
       0.227147         199.868         191.513         191.513 
        0.23329         191.835          183.06          183.06 
       0.239377         185.514         175.907         175.907 
       0.245482         177.525         169.397         169.397 
       0.251667         170.011         162.975         162.975 
       0.257832         165.991         156.437         156.437 
       0.263955         157.239         149.759         149.759 
       0.270079         150.675         143.045         143.045 
        0.27624         143.381         136.507         136.507 
       0.282372         138.047         130.455         130.455 
        0.28843         135.175         125.058         125.058 
       0.294538         129.389         120.222         120.222 
       0.300721         123.902         115.849         115.849 
        0.30691         121.339         111.837         111.837 
       0.313033         116.691         108.064         108.064 
       0.319153         114.413         104.368         104.368 
       0.325316         109.268         100.667         100.667 
        0.33145         105.574         97.0194         97.0194 
       0.337538          102.22         93.4877         93.4877 
       0.343633         99.0433         90.1112         90.1112 
       0.349808         95.6924         86.9028         86.9028 
       0.355968         92.6869         83.9413         83.9413 
       0.362074         90.7719          81.224          81.224 
       0.368217         88.2012         78.6746         78.6746 
       0.374374         86.3052         76.2541         76.2541 
       0.380519         82.6834         73.9265         73.9265 
       0.386598         80.3798         71.6868         71.6868 
       0.392688           77.98          69.493          69.493 
        0.39888         76.4163         67.3221         67.3221 
       0.405048         74.4961         65.2367         65.2367 
       0.411186         72.5079         63.2514         63.2514 
       0.417313         70.4735         61.3699         61.3699 
       0.423458         68.4856         59.5856         59.5856 
       0.429607          67.284          57.892          57.892 
       0.435692         66.0622         56.2952         56.2952 
       0.441815         63.6471         54.7535         54.7535 
       0.447964          61.705         53.2577         53.2577 
       0.454126         60.6275          51.804          51.804 
       0.460267         59.9829         50.3999         50.3999 
       0.466387         58.2837         49.0456         49.0456 
        0.47254         57.3942         47.7312         47.7312 
       0.478662         55.5357          46.474          46.474 
       0.484765         54.4111         45.2728         45.2728 
       0.490885         52.8969         44.1176         44.1176 
       0.497035         52.0993         43.0023         43.0023 
       0.503198         50.8848         41.9269         41.9269 
       0.509342         49.5392         40.8926         40.8926 
       0.515458         48.8906         39.8966         39.8966 
       0.521598         47.7294         38.9271         38.9271 
       0.527764         47.0938         37.9835         37.9835 
       0.533884         46.0518         37.0769         37.0769 
           0.54          45.074         36.2012         36.2012 
       0.546137         43.7386         35.3522         35.3522 
       0.552299         43.0284         34.5286         34.5286 
       0.558452         42.1343         33.7342         33.7342 
       0.564573         41.7348         32.9703         32.9703 
       0.570708          40.594         32.2296         32.2296 
       0.576825         40.0725         31.5143         31.5143 
       0.582926         39.3886         30.8225         30.8225 
       0.589034         38.6145           30.15           30.15 
       0.595184         38.0875         29.4928         29.4928 
       0.601379         37.0584         28.8506         28.8506 
       0.607522          36.497          28.233          28.233 
       0.613639         35.9126         27.6367         27.6367 
       0.619772         35.2936         27.0569         27.0569 
       0.625918         34.5894         26.4932         26.4932 
       0.632068         34.2938         25.9456         25.9456 
       0.638161         33.5638         25.4187         25.4187 
         0.6443         33.0653         24.9027         24.9027 
       0.650464         32.2431         24.3993         24.3993 
       0.656582         32.0385         23.9135         23.9135 
       0.662703         31.6438          23.441          23.441 
       0.668861         30.8154         22.9788         22.9788 
       0.675024         30.4458         22.5289         22.5289 
       0.681124         30.2268         22.0958         22.0958 
       0.687237         29.6144         21.6734         21.6734 
       0.693381         29.0183         21.2603         21.2603 
       0.699536         28.8657         20.8573         20.8573 
       0.705665         28.3163         20.4668         20.4668 
       0.711789         27.8069         20.0867         20.0867 
       0.717957         27.2524         19.7138         19.7138 
        0.72409         27.0156         19.3526         19.3526 
       0.730186         26.8646         19.0028         19.0028 
       0.736317         26.3086         18.6598         18.6598 
       0.742472          25.984         18.3241         18.3241 
       0.748622         25.5533         17.9972         17.9972 
        0.75476         24.9254          17.679          17.679 
       0.760888         24.8418         17.3692         17.3692 
       0.767043         24.4111         17.0656         17.0656 
       0.773185          24.152           16.77           16.77 
       0.779291         23.9081         16.4832         16.4832 
       0.785407         23.4976         16.2028         16.2028 
       0.791564         23.3281         15.9273         15.9273 
       0.797719         22.8239         15.6583         15.6583 
       0.803834         22.7165         15.3974         15.3974 
       0.809972         22.2858         15.1415         15.1415 
       0.816124         22.0376          14.891          14.891 
       0.822261         21.7916         14.6469         14.6469 
       0.828378           21.55         14.4091         14.4091 
       0.834502         21.3205         14.1764         14.1764 
       0.840667         21.0964         13.9474         13.9474 
       0.846816         20.6349         13.7242         13.7242 
       0.852925         20.5585         13.5074         13.5074 
       0.859047         20.3034         13.2948         13.2948 
       0.865192         20.0127         13.0862         13.0862 
       0.871341         19.7544         12.8819         12.8819 
       0.877463         19.5437          12.683          12.683 
       0.883569         19.4224         12.4889         12.4889 
       0.889708         19.0979         12.2979         12.2979 
       0.895864         18.8622         12.1104         12.1104 
       0.902008         18.6287         11.9273         11.9273 
       0.908149         18.3992         11.7481         11.7481 
       0.914301         18.3046         11.5724         11.5724 
       0.920448         18.0228         11.4005         11.4005 
       0.926574         17.8809         11.2327         11.2327 
       0.932687         17.6365         11.0687         11.0687 
       0.938823          17.413         10.9074         10.9074 
       0.944975          17.271          10.749          10.749 
       0.951105         17.0726         10.5943         10.5943 
       0.957225         16.9683          10.443          10.443 
       0.963368         16.6996         10.2942         10.2942 
       0.969511         16.5346         10.1483         10.1483 
       0.975621         16.3739         10.0061         10.0061 
       0.981748         16.1598         9.86622         9.86622 
       0.987916         16.0482         9.72819         9.72819 
        0.99406         15.8764         9.59334         9.59334 
        1.00019         15.7419         9.46135         9.46135 
        1.00632         15.5969         9.33198         9.33198 
        1.01246         15.4475         9.20487         9.20487 
        1.01859         15.2494         9.08036         9.08036 
        1.02471         15.0757         8.95833         8.95833 
        1.03085         15.0182         8.83814         8.83814 
        1.03698         14.8653         8.72044         8.72044 
        1.04314         14.6787         8.60441         8.60441 
        1.04929          14.489         8.49079         8.49079 
        1.05541         14.4242         8.37969         8.37969 
        1.06154          14.298         8.27033         8.27033 
        1.06769         14.1776         8.16278         8.16278 
        1.07382         13.9576         8.05752         8.05752 
        1.07993          13.843         7.95437         7.95437 
        1.08607         13.7746         7.85262         7.85262 
        1.09222         13.5927         7.75256         7.75256 
        1.09836         13.5406         7.65438         7.65438 
        1.10449         13.3412         7.55803         7.55803 
        1.11063         13.2906         7.46325         7.46325 
        1.11677         13.1893         7.37014         7.37014 
         1.1229         13.0602          7.2788          7.2788 
        1.12903          12.956         7.18895         7.18895 
        1.13518         12.7787         7.10055         7.10055 
        1.14131         12.7053         7.01371         7.01371 
        1.14745         12.5238         6.92838         6.92838 
        1.15359         12.4287         6.84447         6.84447 
        1.15973         12.3242         6.76193         6.76193 
        1.16584         12.2268         6.68114         6.68114 
        1.17197         12.1123         6.60156         6.60156 
        1.17811         12.0117         6.52305         6.52305 
        1.18424         11.9276         6.44606         6.44606 
        1.19038         11.8534          6.3701          6.3701 
        1.19652         11.7422          6.2954          6.2954 
        1.20267         11.6551         6.22192         6.22192 
        1.20881         11.5202         6.14963         6.14963 
        1.21495         11.4367         6.07862         6.07862 
        1.22108         11.3817         6.00875         6.00875 
         1.2272         11.2739         5.94016         5.94016 
        1.23334         11.2193         5.87249         5.87249 
        1.23949         11.0996         5.80572         5.80572 
        1.24562         11.0041         5.74019         5.74019 
        1.25174         10.9422         5.67578         5.67578 
        1.25789          10.803         5.61217         5.61217 
        1.26402         10.7694         5.54966         5.54966 
        1.27014          10.706         5.48826         5.48826 
        1.27628         10.5615         5.42761         5.42761 
        1.28244          10.547         5.36778         5.36778 
        1.28858         10.4517         5.30893         5.30893 
        1.29471         10.3079          5.2511          5.2511 
        1.30084         10.2412          5.1942          5.1942 
        1.30697          10.226         5.13805         5.13805 
        1.31312         10.1118         5.08267         5.08267 
        1.31925          10.049         5.02828         5.02828 
        1.32537         9.97701         4.97474         4.97474 
        1.33151         9.89861          4.9218          4.9218 
        1.33765         9.81737         4.86967         4.86967 
        1.34378         9.80058         4.81841         4.81841 
        1.34992         9.69075         4.76785         4.76785 
        1.35606         9.61403         4.71791         4.71791 
         1.3622         9.53738         4.66879         4.66879 
        1.36833         9.49163         4.62049         4.62049 
        1.37445         9.42448          4.5729          4.5729 
        1.38059         9.35989         4.52584         4.52584 
        1.38675          9.2902         4.47934         4.47934 
        1.39288         9.20155         4.43368         4.43368 
        1.39901         9.14537         4.38869         4.38869 
        1.40515         9.08165         4.34422         4.34422 
         1.4113         9.01221          4.3004          4.3004 
        1.41742         8.97291         4.25735         4.25735 
        1.42355         8.88504         4.21481         4.21481 
         1.4297         8.84718         4.17273         4.17273 
        1.43585         8.79409         4.13125         4.13125 
        1.44198         8.73021         4.09049         4.09049 
        1.44809         8.67672         4.05037         4.05037 
        1.45423         8.60108         4.01064         4.01064 
        1.46036         8.55967         3.97151         3.97151 
        1.46649         8.49846         3.93291         3.93291 
        1.47263         8.45291         3.89478         3.89478 
        1.47877         8.39063         3.85719         3.85719 
        1.48491         8.35074         3.82003         3.82003 
        1.49104         8.27165         3.78345         3.78345 
        1.49718         8.24542         3.74733         3.74733 
        1.50333         8.18245         3.71162         3.71162 
        1.50947         8.11262         3.67646         3.67646 
         1.5156         8.09515          3.6418          3.6418 
        1.52172         8.03558          3.6076          3.6076 
        1.52787         7.98692         3.57377         3.57377 
          1.534         7.93376         3.54042         3.54042 
        1.54013         7.89635         3.50753         3.50753 
        1.54627         7.84009         3.47501         3.47501 
        1.55241         7.77154         3.44289         3.44289 
        1.55855         7.75751         3.41123         3.41123 
        1.56467          7.6984         3.38005         3.38005 
         1.5708         7.65539         3.34918         3.34918 
        1.57695         7.59134         3.31865         3.31865 
        1.58308         7.53611         3.28858         3.28858 
        1.58922         7.51397         3.25886         3.25886 
        1.59535         7.46469         3.22952         3.22952 
         1.6015         7.39766          3.2005          3.2005 
        1.60764          7.3734         3.17186         3.17186 
        1.61376           7.342         3.14365         3.14365 
        1.61989           7.268         3.11576         3.11576 
        1.62604         7.24733         3.08815         3.08815 
        1.63218         7.20904         3.06089         3.06089 
        1.63831         7.16477         3.03403         3.03403 
        1.64444         7.10556         3.00748         3.00748 
        1.65059         7.06925         2.98119         2.98119 
        1.65673         7.04766         2.95525         2.95525 
        1.66285         7.00319         2.92969         2.92969 
        1.66898         6.95985         2.90442         2.90442 
        1.67512         6.91428         2.87941         2.87941 
        1.68127         6.86547         2.85467         2.85467 
         1.6874         6.84299         2.83028         2.83028 
        1.69353         6.79142         2.80619         2.80619 
        1.69967          6.7664         2.78232         2.78232 
        1.70581         6.71248         2.75875         2.75875 
        1.71193         6.69834         2.73553         2.73553 
        1.71806         6.65515         2.71254         2.71254 
        1.72421         6.60775         2.68977         2.68977 
        1.73035         6.57544         2.66729         2.66729 
        1.73649         6.54392         2.64507         2.64507 
        1.74262         6.49187         2.62312         2.62312 
        1.74876         6.48762         2.60141         2.60141 
        1.75489         6.44037         2.57999         2.57999 
        1.76101         6.39138         2.55882         2.55882 
        1.76715         6.38032         2.53786         2.53786 
        1.77329         6.34625         2.51712         2.51712 
        1.77943          6.2884         2.49659         2.49659 
        1.78557         6.28378         2.47633         2.47633 
        1.79171         6.24785         2.45629         2.45629 
        1.79785         6.21548         2.43647         2.43647 
        1.80399         6.15566         2.41688         2.41688 
        1.81012         6.14342         2.39752         2.39752 
        1.81625         6.10305         2.37839         2.37839 
        1.82239         6.07545         2.35944         2.35944 
        1.82853         6.03781         2.34071         2.34071 
        1.83466         5.99404          2.3222          2.3222 
        1.84078         5.97667         2.30392         2.30392 
        1.84692         5.94686          2.2858          2.2858 
        1.85306         5.91617         2.26785         2.26785 
         1.8592             5.9         2.25013         2.25013 
        1.86533          5.8672         2.23261         2.23261 
        1.87147         5.83051         2.21525         2.21525 
        1.87761          5.8138         2.19808         2.19808 
