# k  (h/Mpc)    Pcb(k)  (Mpc/h)^3    Pcb_linear(k) (Mpc/h)^3    Pcb_NL(k) (Mpc/h)^3   ShotnoiseSubtracted = false
     0.00783031         11847.6         11905.4         11905.4 
       0.013688         14687.4         15049.5         15049.5 
       0.019231         15291.6         15510.8         15510.8 
      0.0249154         14616.8         14607.8         14607.8 
      0.0312784         12800.7         12941.5         12941.5 
      0.0375637         11083.1           11292           11292 
      0.0433917         9964.79         10045.5         10045.5 
      0.0492413         8966.02         9116.48         9116.48 
      0.0555754            8299         8388.26         8388.26 
      0.0619321         7495.49          7801.7          7801.7 
       0.067871         7077.74         7267.08         7267.08 
      0.0738098         6568.34         6687.22         6687.22 
      0.0800417         5950.02         6033.64         6033.64 
      0.0862327         5304.25         5388.62         5388.62 
      0.0921407         4789.62         4833.93         4833.93 
      0.0982031         4389.82          4366.3          4366.3 
       0.104506         3969.28         3999.93         3999.93 
       0.110769          3722.4          3737.4          3737.4 
       0.116806         3585.29         3544.41         3544.41 
       0.122832         3373.03         3372.61         3372.61 
       0.129052         3188.64         3186.98         3186.98 
       0.135211         3056.58         2981.82         2981.82 
       0.141259         2812.86         2764.64         2764.64 
       0.147318          2585.4         2547.44         2547.44 
       0.153489         2427.77         2345.09         2345.09 
       0.159709         2324.12         2173.67         2173.67 
       0.165845         2134.79         2040.23         2040.23 
       0.171974         2090.79         1937.21         1937.21 
       0.178125         2025.73         1853.56         1853.56 
       0.184229         1878.59         1778.18         1778.18 
        0.19034          1844.1         1700.99         1700.99 
       0.196428         1783.74         1617.94         1617.94 
       0.202534         1666.79         1529.27         1529.27 
       0.208729         1628.69         1438.44         1438.44 
       0.214876         1554.74         1353.25         1353.25 
       0.220989         1468.99         1277.92         1277.92 
       0.227147         1433.52         1213.51         1213.51 
        0.23329         1380.63         1159.95         1159.95 
       0.239377         1368.82         1114.62         1114.62 
       0.245482         1304.55         1073.37         1073.37 
       0.251667         1256.33         1032.68         1032.68 
       0.257832         1238.72         991.252         991.252 
       0.263955         1178.51         948.938         948.938 
       0.270079         1143.99         906.397         906.397 
        0.27624          1095.7         864.964         864.964 
       0.282372         1079.24          826.62          826.62 
        0.28843         1064.96         792.419         792.419 
       0.294538         1013.95         761.776         761.776 
       0.300721         991.559         734.067         734.067 
        0.30691         971.614         708.647         708.647 
       0.313033         932.536         684.737         684.737 
       0.319153         920.581         661.319         661.319 
       0.325316         908.104          637.87          637.87 
        0.33145         888.624         614.756         614.756 
       0.337538         858.152         592.377         592.377 
       0.343633         836.144         570.982         570.982 
       0.349808         818.999         550.653         550.653 
       0.355968         803.741         531.887         531.887 
       0.362074          777.96          514.67          514.67 
       0.368217         775.266         498.515         498.515 
       0.374374         763.319         483.177         483.177 
       0.380519         735.175         468.429         468.429 
       0.386598         729.259         454.236         454.236 
       0.392688         712.949         440.337         440.337 
        0.39888         695.402          426.58          426.58 
       0.405048         683.111         413.367         413.367 
       0.411186         681.076         400.786         400.786 
       0.417313         675.877         388.865         388.865 
       0.423458         655.278         377.559         377.559 
       0.429607         637.426         366.827         366.827 
       0.435692         630.361         356.709         356.709 
       0.441815         619.634          346.94          346.94 
       0.447964         609.082         337.463         337.463 
       0.454126         602.104         328.251         328.251 
       0.460267         592.873         319.355         319.355 
       0.466387          583.52         310.773         310.773 
        0.47254          574.19         302.444         302.444 
       0.478662         564.416         294.478         294.478 
       0.484765         558.478         286.866         286.866 
       0.490885         552.893         279.547         279.547 
       0.497035         541.965          272.48          272.48 
       0.503198          541.38         265.666         265.666 
       0.509342         530.216         259.112         259.112 
       0.515458         520.461         252.801         252.801 
       0.521598         515.191         246.658         246.658 
       0.527764         505.678         240.679         240.679 
       0.533884         502.604         234.934         234.934 
           0.54         496.803         229.386         229.386 
       0.546137         487.909         224.006         224.006 
       0.552299         486.603         218.787         218.787 
       0.558452         479.346         213.754         213.754 
       0.564573         474.749         208.913         208.913 
       0.570708         469.922          204.22          204.22 
       0.576825          460.77         199.687         199.687 
       0.582926         458.771         195.304         195.304 
       0.589034         451.897         191.043         191.043 
       0.595184         448.424         186.878         186.878 
       0.601379         441.293         182.809         182.809 
       0.607522         433.692         178.896         178.896 
       0.613639         432.323         175.117         175.117 
       0.619772         430.508         171.443         171.443 
       0.625918         422.531         167.871         167.871 
       0.632068         419.552         164.402         164.402 
       0.638161         415.434         161.063         161.063 
         0.6443         411.116         157.794         157.794 
       0.650464         406.268         154.604         154.604 
       0.656582         402.724         151.526         151.526 
       0.662703          399.46         148.532         148.532 
       0.668861         393.725         145.603         145.603 
       0.675024         391.351         142.752         142.752 
       0.681124         386.103         140.008         140.008 
       0.687237          384.14         137.331         137.331 
       0.693381         378.892         134.713         134.713 
       0.699536         377.058          132.16          132.16 
       0.705665         372.698         129.686         129.686 
       0.711789         371.031         127.277         127.277 
       0.717957          366.07         124.915         124.915 
        0.72409         362.189         122.626         122.626 
       0.730186         363.877         120.409         120.409 
       0.736317         357.321         118.236         118.236 
       0.742472         353.944         116.109         116.109 
       0.748622         350.642         114.037         114.037 
        0.75476          349.24         112.021         112.021 
       0.760888         345.719         110.058         110.058 
       0.767043         342.627         108.134         108.134 
       0.773185         340.755         106.262         106.262 
       0.779291         335.925         104.444         104.444 
       0.785407         334.414         102.667         102.667 
       0.791564         331.636         100.921         100.921 
       0.797719         326.496         99.2173         99.2173 
       0.803834         328.881         97.5639         97.5639 
       0.809972         323.633         95.9427         95.9427 
       0.816124         320.056         94.3553         94.3553 
       0.822261         317.557         92.8085         92.8085 
       0.828378         316.604         91.3016         91.3016 
       0.834502         311.964         89.8273         89.8273 
       0.840667         312.126         88.3764         88.3764 
       0.846816         306.566          86.962          86.962 
       0.852925         306.886         85.5879         85.5879 
       0.859047         303.844          84.241          84.241 
       0.865192         302.978          82.919          82.919 
       0.871341         298.606         81.6249         81.6249 
       0.877463         296.539         80.3646         80.3646 
       0.883569         295.038         79.1345         79.1345 
       0.889708         292.301         77.9241         77.9241 
       0.895864         289.783         76.7363         76.7363 
       0.902008          287.97         75.5761         75.5761 
       0.908149         285.595         74.4408         74.4408 
       0.914301         284.035         73.3273         73.3273 
       0.920448         282.528         72.2379         72.2379 
       0.926574          280.14         71.1748         71.1748 
       0.932687         278.725         70.1355         70.1355 
       0.938823         275.892         69.1136         69.1136 
       0.944975         275.023         68.1099         68.1099 
       0.951105          272.23           67.13           67.13 
       0.957225         269.559         66.1712         66.1712 
       0.963368         269.687         65.2282         65.2282 
       0.969511         264.669         64.3038         64.3038 
       0.975621         263.905         63.4024         63.4024 
       0.981748         262.732         62.5163         62.5163 
       0.987916         261.406         61.6416         61.6416 
        0.99406         258.879         60.7872         60.7872 
        1.00019         257.059         59.9508         59.9508 
        1.00632         256.494         59.1311         59.1311 
        1.01246         254.225         58.3257         58.3257 
        1.01859         251.355         57.5367         57.5367 
        1.02471         249.626         56.7635         56.7635 
        1.03085         248.639          56.002          56.002 
        1.03698         247.197         55.2562         55.2562 
        1.04314         246.581         54.5209         54.5209 
        1.04929         244.745          53.801          53.801 
        1.05541          242.43          53.097          53.097 
        1.06154         240.642         52.4041         52.4041 
        1.06769         238.728         51.7226         51.7226 
        1.07382         238.293         51.0556         51.0556 
        1.07993         235.581          50.402          50.402 
        1.08607         234.274         49.7573         49.7573 
        1.09222         232.722         49.1233         49.1233 
        1.09836         231.958         48.5011         48.5011 
        1.10449         229.961         47.8906         47.8906 
        1.11063         228.251         47.2901         47.2901 
        1.11677         226.825         46.7001         46.7001 
         1.1229         225.677         46.1214         46.1214 
        1.12903         224.229          45.552          45.552 
        1.13518         222.542         44.9919         44.9919 
        1.14131         221.744         44.4416         44.4416 
        1.14745         219.197         43.9009         43.9009 
        1.15359         217.579         43.3693         43.3693 
        1.15973         217.167         42.8463         42.8463 
        1.16584         216.021         42.3343         42.3343 
        1.17197         214.499         41.8301         41.8301 
        1.17811         212.661         41.3326         41.3326 
        1.18424         211.474         40.8448         40.8448 
        1.19038         210.323         40.3634         40.3634 
        1.19652         208.015         39.8901         39.8901 
        1.20267         207.451         39.4245         39.4245 
        1.20881         205.793         38.9665         38.9665 
        1.21495         205.489         38.5165         38.5165 
        1.22108         203.848         38.0738         38.0738 
         1.2272         201.888         37.6392         37.6392 
        1.23334         201.175         37.2104         37.2104 
        1.23949         200.311         36.7873         36.7873 
        1.24562         198.747         36.3721         36.3721 
        1.25174         197.526          35.964          35.964 
        1.25789         195.793         35.5609         35.5609 
        1.26402         195.602         35.1648         35.1648 
        1.27014         194.628         34.7758         34.7758 
        1.27628         192.463         34.3915         34.3915 
        1.28244         191.592         34.0123         34.0123 
        1.28858         190.323         33.6395         33.6395 
        1.29471         189.406          33.273          33.273 
        1.30084         188.158         32.9125         32.9125 
        1.30697         186.627         32.5567         32.5567 
        1.31312         185.621         32.2058         32.2058 
        1.31925         184.503         31.8611         31.8611 
        1.32537          183.86         31.5219         31.5219 
        1.33151          182.56         31.1865         31.1865 
        1.33765         181.025         30.8562         30.8562 
        1.34378         180.448         30.5313         30.5313 
        1.34992         179.209          30.211          30.211 
        1.35606         178.173         29.8945         29.8945 
         1.3622         177.366         29.5833         29.5833 
        1.36833         175.529         29.2772         29.2772 
        1.37445         175.555         28.9757         28.9757 
        1.38059         173.783         28.6775         28.6775 
        1.38675         172.765         28.3829         28.3829 
        1.39288         171.611         28.0936         28.0936 
        1.39901         170.669         27.8085         27.8085 
        1.40515         170.027         27.5267         27.5267 
         1.4113         168.633          27.249          27.249 
        1.41742         167.299         26.9762         26.9762 
        1.42355         167.509         26.7067         26.7067 
         1.4297         165.774           26.44           26.44 
        1.43585         165.016         26.1772         26.1772 
        1.44198         163.299         25.9189         25.9189 
        1.44809         162.723         25.6647         25.6647 
        1.45423          161.95         25.4129         25.4129 
        1.46036         160.893         25.1651         25.1651 
        1.46649         159.863         24.9204         24.9204 
        1.47263         159.311         24.6789         24.6789 
        1.47877         157.961         24.4406         24.4406 
        1.48491         156.871         24.2052         24.2052 
        1.49104         155.379         23.9734         23.9734 
        1.49718         155.149         23.7445         23.7445 
        1.50333         154.225         23.5183         23.5183 
        1.50947         153.244         23.2954         23.2954 
         1.5156         152.108         23.0759         23.0759 
        1.52172         151.559         22.8591         22.8591 
        1.52787         150.668         22.6448         22.6448 
          1.534         149.689         22.4335         22.4335 
        1.54013         148.844         22.2251         22.2251 
        1.54627         147.876          22.019          22.019 
        1.55241         147.309         21.8155         21.8155 
        1.55855         146.582         21.6149         21.6149 
        1.56467         145.427         21.4173         21.4173 
         1.5708         144.246         21.2217         21.2217 
        1.57695          143.77         21.0283         21.0283 
        1.58308         142.733         20.8377         20.8377 
        1.58922         142.267         20.6494         20.6494 
        1.59535         141.241         20.4635         20.4635 
         1.6015         140.211         20.2796         20.2796 
        1.60764         139.385         20.0981         20.0981 
        1.61376         138.535         19.9194         19.9194 
        1.61989         137.913         19.7427         19.7427 
        1.62604         136.879         19.5677         19.5677 
        1.63218         136.283          19.395          19.395 
        1.63831         135.363         19.2248         19.2248 
        1.64444         134.509         19.0566         19.0566 
        1.65059         133.801           18.89           18.89 
        1.65673         133.196         18.7256         18.7256 
        1.66285         132.699         18.5636         18.5636 
        1.66898         131.512         18.4035         18.4035 
        1.67512         130.837         18.2451         18.2451 
        1.68127         130.135         18.0883         18.0883 
         1.6874         129.116         17.9337         17.9337 
        1.69353         128.755         17.7811         17.7811 
        1.69967         127.662         17.6299         17.6299 
        1.70581         127.329         17.4805         17.4805 
        1.71193         126.292         17.3334         17.3334 
        1.71806          125.28         17.1877         17.1877 
        1.72421         124.899         17.0434         17.0434 
        1.73035         124.155          16.901          16.901 
        1.73649         123.141         16.7602         16.7602 
        1.74262         122.874         16.6211         16.6211 
        1.74876         121.895         16.4835         16.4835 
        1.75489         121.365         16.3478         16.3478 
        1.76101         120.563         16.2137         16.2137 
        1.76715         119.578         16.0809         16.0809 
        1.77329         119.176         15.9494         15.9494 
        1.77943         118.234         15.8194         15.8194 
        1.78557         117.864          15.691          15.691 
        1.79171         117.208          15.564          15.564 
        1.79785         116.122         15.4384         15.4384 
        1.80399         115.775         15.3143         15.3143 
        1.81012          114.71         15.1916         15.1916 
        1.81625         114.442         15.0704         15.0704 
        1.82239         113.711         14.9504         14.9504 
        1.82853         113.114         14.8317         14.8317 
        1.83466         112.215         14.7144         14.7144 
        1.84078         111.848         14.5985         14.5985 
        1.84692         111.486         14.4837         14.4837 
        1.85306         110.519           14.37           14.37 
         1.8592         110.053         14.2577         14.2577 
        1.86533          109.12         14.1467         14.1467 
        1.87147         108.855         14.0367         14.0367 
