# k  (h/Mpc)    P(k)  (Mpc/h)^3    P_linear(k)  (Mpc/h)^3     P_NL(k)  ShotnoiseSubtracted = false
     0.00783031         5758.74         5791.46         5791.46 
       0.013688         7190.77         7322.76         7322.76 
       0.019231         7476.64         7548.04         7548.04 
      0.0249154         7119.22         7109.03         7109.03 
      0.0312784         6264.45         6298.39         6298.39 
      0.0375637         5438.49         5495.76         5495.76 
      0.0433917         4878.93         4889.18         4889.18 
      0.0492413         4399.98         4437.06         4437.06 
      0.0555754         4072.57         4082.67         4082.67 
      0.0619321         3706.92         3797.21         3797.21 
       0.067871          3492.3         3537.02         3537.02 
      0.0738098         3229.39         3254.81         3254.81 
      0.0800417         2925.88         2936.71         2936.71 
      0.0862327         2606.26         2622.77         2622.77 
      0.0921407         2344.23          2352.8          2352.8 
      0.0982031         2138.88          2125.2          2125.2 
       0.104506            1937         1946.87         1946.87 
       0.110769         1814.59          1819.1          1819.1 
       0.116806         1744.26         1725.16         1725.16 
       0.122832         1640.89         1641.55         1641.55 
       0.129052         1556.79          1551.2          1551.2 
       0.135211          1478.4         1451.34         1451.34 
       0.141259         1362.18         1345.63         1345.63 
       0.147318          1247.1         1239.92         1239.92 
       0.153489         1163.93         1141.43         1141.43 
       0.159709         1100.85         1057.99         1057.99 
       0.165845            1013         993.043         993.043 
       0.171974         989.323         942.905         942.905 
       0.178125         951.297         902.185         902.185 
       0.184229         892.273         865.496         865.496 
        0.19034         868.976         827.925         827.925 
       0.196428         834.294         787.502         787.502 
       0.202534         776.241         744.347         744.347 
       0.208729         752.991         700.138         700.138 
       0.214876          718.74          658.67          658.67 
       0.220989         669.945         622.005         622.005 
       0.227147         654.275         590.657         590.657 
        0.23329         630.153         564.586         564.586 
       0.239377         616.588         542.525         542.525 
       0.245482          587.01         522.446         522.446 
       0.251667         563.724         502.641         502.641 
       0.257832         556.004         482.476         482.476 
       0.263955         524.933          461.88          461.88 
       0.270079         505.559         441.174         441.174 
        0.27624         482.883         421.007         421.007 
       0.282372         470.206         402.344         402.344 
        0.28843         465.829         385.698         385.698 
       0.294538         443.114         370.782         370.782 
       0.300721          427.74         357.296         357.296 
        0.30691         421.016         344.923         344.923 
       0.313033         403.373         333.285         333.285 
       0.319153         396.218         321.886         321.886 
       0.325316         385.642         310.473         310.473 
        0.33145         375.693         299.223         299.223 
       0.337538         362.636          288.33          288.33 
       0.343633         351.124         277.917         277.917 
       0.349808         341.675         268.021         268.021 
       0.355968         334.191         258.888         258.888 
       0.362074          325.53         250.507         250.507 
       0.368217         320.915         242.644         242.644 
       0.374374          313.83         235.179         235.179 
       0.380519         301.196             228             228 
       0.386598         296.212         221.093         221.093 
       0.392688         288.948         214.327         214.327 
        0.39888          282.31         207.631         207.631 
       0.405048         276.794           201.2           201.2 
       0.411186         273.799         195.077         195.077 
       0.417313         268.042         189.274         189.274 
       0.423458         261.008         183.771         183.771 
       0.429607          255.28         178.548         178.548 
       0.435692         250.589         173.623         173.623 
       0.441815          245.58         168.868         168.868 
       0.447964         238.637         164.255         164.255 
       0.454126         234.851         159.771         159.771 
       0.460267         232.227         155.441         155.441 
       0.466387         227.564         151.264         151.264 
        0.47254         224.756          147.21          147.21 
       0.478662         217.847         143.333         143.333 
       0.484765         215.204         139.628         139.628 
       0.490885         211.891         136.065         136.065 
       0.497035         209.497         132.625         132.625 
       0.503198         206.273         129.309         129.309 
       0.509342         200.849         126.119         126.119 
       0.515458         198.563         123.047         123.047 
       0.521598         193.919         120.057         120.057 
       0.527764         191.911         117.147         117.147 
       0.533884          191.16         114.351         114.351 
           0.54         186.374          111.65          111.65 
       0.546137         182.192         109.031         109.031 
       0.552299         180.533         106.491         106.491 
       0.558452         177.303         104.041         104.041 
       0.564573         176.336         101.685         101.685 
       0.570708         172.032         99.4008         99.4008 
       0.576825         169.868         97.1947         97.1947 
       0.582926         168.083         95.0611         95.0611 
       0.589034          165.61         92.9871         92.9871 
       0.595184         164.089         90.9601         90.9601 
       0.601379         160.391         88.9795         88.9795 
       0.607522         157.828         87.0747         87.0747 
       0.613639         156.536         85.2356         85.2356 
       0.619772         154.543         83.4474         83.4474 
       0.625918         153.275         81.7088         81.7088 
       0.632068         149.999         80.0201         80.0201 
       0.638161         148.085         78.3949         78.3949 
         0.6443         147.472         76.8036         76.8036 
       0.650464           144.6          75.251          75.251 
       0.656582         143.953         73.7529         73.7529 
       0.662703          142.25         72.2956         72.2956 
       0.668861         139.359           70.87           70.87 
       0.675024         139.359         69.4824         69.4824 
       0.681124          137.08         68.1466         68.1466 
       0.687237         134.883         66.8439         66.8439 
       0.693381         134.151         65.5698         65.5698 
       0.699536         132.395         64.3271         64.3271 
       0.705665         130.589         63.1225         63.1225 
       0.711789         128.953         61.9503         61.9503 
       0.717957         127.594         60.8003         60.8003 
        0.72409         126.644         59.6862         59.6862 
       0.730186         126.026         58.6073         58.6073 
       0.736317         123.848         57.5495         57.5495 
       0.742472         122.313         56.5143         56.5143 
       0.748622         120.446          55.506          55.506 
        0.75476         120.348         54.5247         54.5247 
       0.760888         119.423          53.569          53.569 
       0.767043         117.279         52.6328         52.6328 
       0.773185         115.933         51.7212         51.7212 
       0.779291         114.676         50.8367         50.8367 
       0.785407         113.415         49.9718         49.9718 
       0.791564         113.056          49.122          49.122 
       0.797719         111.684         48.2925         48.2925 
       0.803834         110.961         47.4877         47.4877 
       0.809972          110.23         46.6987         46.6987 
       0.816124         108.812          45.926          45.926 
       0.822261         107.512         45.1732         45.1732 
       0.828378         107.283         44.4397         44.4397 
       0.834502         105.581         43.7221         43.7221 
       0.840667         105.062         43.0159         43.0159 
       0.846816         104.094         42.3275         42.3275 
       0.852925         102.994         41.6586         41.6586 
       0.859047         102.424         41.0031         41.0031 
       0.865192         101.136         40.3596         40.3596 
       0.871341         100.096         39.7297         39.7297 
       0.877463         99.4826         39.1163         39.1163 
       0.883569         99.2218         38.5175         38.5175 
       0.889708          98.308         37.9284         37.9284 
       0.895864         97.4074         37.3502         37.3502 
       0.902008         96.4859         36.7855         36.7855 
       0.908149         95.3251          36.233          36.233 
       0.914301         95.1609          35.691          35.691 
       0.920448          94.705         35.1607         35.1607 
       0.926574          92.859         34.6433         34.6433 
       0.932687         92.6447         34.1374         34.1374 
       0.938823         91.8812           33.64           33.64 
       0.944975         90.8198         33.1515         33.1515 
       0.951105         90.1415         32.6745         32.6745 
       0.957225         90.0624         32.2079         32.2079 
       0.963368         89.0025         31.7489         31.7489 
       0.969511         88.2709         31.2989         31.2989 
       0.975621         87.6205         30.8602         30.8602 
       0.981748         86.7881         30.4289         30.4289 
       0.987916         86.2048         30.0031         30.0031 
        0.99406         85.8399         29.5873         29.5873 
        1.00019          84.812         29.1802         29.1802 
        1.00632         84.2902         28.7812         28.7812 
        1.01246         83.7139         28.3892         28.3892 
        1.01859         83.3521         28.0051         28.0051 
        1.02471         82.4764         27.6288         27.6288 
        1.03085         81.8403         27.2581         27.2581 
        1.03698         81.3441         26.8951         26.8951 
        1.04314         80.7453         26.5373         26.5373 
        1.04929         80.2518         26.1868         26.1868 
        1.05541         79.7223         25.8442         25.8442 
        1.06154         79.2539         25.5069         25.5069 
        1.06769         78.3963         25.1752         25.1752 
        1.07382         77.8278         24.8506         24.8506 
        1.07993         77.5689         24.5324         24.5324 
        1.08607         76.9316         24.2186         24.2186 
        1.09222          76.655           23.91           23.91 
        1.09836         75.8779         23.6072         23.6072 
        1.10449         75.4858           23.31           23.31 
        1.11063         74.8346         23.0177         23.0177 
        1.11677          74.547         22.7306         22.7306 
         1.1229         73.8564         22.4489         22.4489 
        1.12903         73.6564         22.1718         22.1718 
        1.13518          73.378         21.8991         21.8991 
        1.14131         72.6397         21.6313         21.6313 
        1.14745         72.0517         21.3681         21.3681 
        1.15359         71.3089         21.1093         21.1093 
        1.15973         71.2848         20.8548         20.8548 
        1.16584         70.7447         20.6056         20.6056 
        1.17197         70.0842         20.3602         20.3602 
        1.17811         69.7373          20.118          20.118 
        1.18424         68.9815         19.8806         19.8806 
        1.19038         68.9226         19.6463         19.6463 
        1.19652         68.5507         19.4159         19.4159 
        1.20267         67.9861         19.1893         19.1893 
        1.20881         67.5458         18.9664         18.9664 
        1.21495         67.2482         18.7473         18.7473 
        1.22108          66.953         18.5319         18.5319 
         1.2272         66.3135         18.3203         18.3203 
        1.23334         66.0111         18.1116         18.1116 
        1.23949         65.6131         17.9057         17.9057 
        1.24562         65.1172         17.7036         17.7036 
        1.25174         64.7035         17.5049         17.5049 
        1.25789         64.7493         17.3087         17.3087 
        1.26402         64.1328         17.1159         17.1159 
        1.27014         63.8313         16.9266         16.9266 
        1.27628         63.2099         16.7395         16.7395 
        1.28244           63.07          16.555          16.555 
        1.28858         62.6512         16.3735         16.3735 
        1.29471         62.3069         16.1952         16.1952 
        1.30084         61.7254         16.0197         16.0197 
        1.30697         61.7463         15.8465         15.8465 
        1.31312         61.1736         15.6757         15.6757 
        1.31925         60.7266         15.5079         15.5079 
        1.32537         60.4415         15.3428         15.3428 
        1.33151         60.1411         15.1796         15.1796 
        1.33765         59.7775         15.0188         15.0188 
        1.34378         59.5896         14.8607         14.8607 
        1.34992         59.1577         14.7047         14.7047 
        1.35606         58.7424         14.5507         14.5507 
         1.3622         58.4457         14.3992         14.3992 
        1.36833         58.1188         14.2502         14.2502 
        1.37445         57.6323         14.1035         14.1035 
        1.38059         57.5501         13.9584         13.9584 
        1.38675         56.9074         13.8149         13.8149 
        1.39288         56.9206         13.6741         13.6741 
        1.39901         56.4205         13.5354         13.5354 
        1.40515         56.2018         13.3982         13.3982 
         1.4113         56.0999          13.263          13.263 
        1.41742         55.6896         13.1303         13.1303 
        1.42355         55.2616         12.9991         12.9991 
         1.4297         54.9942         12.8693         12.8693 
        1.43585         54.6067         12.7414         12.7414 
        1.44198          54.293         12.6157         12.6157 
        1.44809         53.9917         12.4919         12.4919 
        1.45423         53.7897         12.3694         12.3694 
        1.46036         53.4793         12.2487         12.2487 
        1.46649         53.3298         12.1296         12.1296 
        1.47263         52.9549         12.0121         12.0121 
        1.47877         52.7286         11.8961         11.8961 
        1.48491         52.4979         11.7815         11.7815 
        1.49104         52.0239         11.6687         11.6687 
        1.49718         51.8414         11.5573         11.5573 
        1.50333         51.6635         11.4472         11.4472 
        1.50947         51.2862         11.3387         11.3387 
         1.5156         51.0772         11.2318         11.2318 
        1.52172         50.7124         11.1264         11.1264 
        1.52787         50.4627          11.022          11.022 
          1.534         50.2441         10.9192         10.9192 
        1.54013         50.0984         10.8177         10.8177 
        1.54627         49.6128         10.7174         10.7174 
        1.55241         49.3699         10.6184         10.6184 
        1.55855         49.2966         10.5207         10.5207 
        1.56467         48.9296         10.4246         10.4246 
         1.5708          48.786         10.3294         10.3294 
        1.57695         48.4913         10.2352         10.2352 
        1.58308         48.1396         10.1425         10.1425 
        1.58922         47.9229         10.0508         10.0508 
        1.59535          47.764          9.9603          9.9603 
         1.6015         47.6821         9.87081         9.87081 
        1.60764         47.3144         9.78247         9.78247 
        1.61376          47.012         9.69546         9.69546 
        1.61989         46.7454         9.60944         9.60944 
        1.62604         46.5433         9.52429         9.52429 
        1.63218         46.2913         9.44023         9.44023 
        1.63831         46.1557         9.35738         9.35738 
        1.64444          45.858         9.27551         9.27551 
        1.65059         45.6692         9.19443         9.19443 
        1.65673         45.3536         9.11441         9.11441 
        1.66285         45.2931         9.03558         9.03558 
        1.66898         44.8228         8.95766         8.95766 
        1.67512         44.7683         8.88051         8.88051 
        1.68127         44.5179         8.80421         8.80421 
         1.6874         44.2777         8.72898         8.72898 
        1.69353         44.1633         8.65468         8.65468 
        1.69967         43.9724         8.58108         8.58108 
        1.70581         43.5894         8.50837         8.50837 
        1.71193          43.397         8.43678         8.43678 
        1.71806          43.256         8.36587         8.36587 
        1.72421         43.0215         8.29564         8.29564 
        1.73035         42.8054          8.2263          8.2263 
        1.73649         42.5022         8.15777         8.15777 
        1.74262         42.2327         8.09008         8.09008 
        1.74876         42.1498         8.02312         8.02312 
        1.75489         41.8906         7.95707         7.95707 
        1.76101         41.7322         7.89178         7.89178 
        1.76715         41.6549         7.82714         7.82714 
        1.77329         41.2367         7.76315         7.76315 
        1.77943         41.2517         7.69985         7.69985 
        1.78557         41.0124         7.63736         7.63736 
        1.79171         40.8158         7.57555         7.57555 
        1.79785         40.5753         7.51442         7.51442 
        1.80399         40.3867         7.45399         7.45399 
        1.81012         40.2461          7.3943          7.3943 
        1.81625         39.9067          7.3353          7.3353 
        1.82239         39.7485         7.27686         7.27686 
        1.82853         39.6339         7.21909         7.21909 
        1.83466         39.3861         7.16201         7.16201 
        1.84078         39.2193         7.10561         7.10561 
        1.84692         39.0086         7.04973         7.04973 
        1.85306         38.7778         6.99438         6.99438 
         1.8592         38.6954         6.93972         6.93972 
        1.86533         38.4985         6.88568         6.88568 
        1.87147         38.2917         6.83216         6.83216 
        1.87761         38.0446         6.77918         6.77918 
