# k  (h/Mpc)    P(k)  (Mpc/h)^3    P_linear(k)  (Mpc/h)^3     P_NL(k)  ShotnoiseSubtracted = false
     0.00783031         4627.39         4654.72         4654.72 
       0.013688         5787.99         5885.87         5885.87 
       0.019231         6015.87         6067.12         6067.12 
      0.0249154         5722.55         5714.34         5714.34 
      0.0312784         5040.86         5062.79         5062.79 
      0.0375637         4379.08         4417.65         4417.65 
      0.0433917            3926         3930.08         3930.08 
      0.0492413          3542.7         3566.66         3566.66 
      0.0555754         3278.29          3281.8          3281.8 
      0.0619321         2989.96         3052.35         3052.35 
       0.067871         2814.58          2843.2          2843.2 
      0.0738098         2600.83         2616.35         2616.35 
      0.0800417         2356.09         2360.65         2360.65 
      0.0862327         2098.69         2108.29         2108.29 
      0.0921407         1886.31         1891.28         1891.28 
      0.0982031         1719.23         1708.32         1708.32 
       0.104506         1557.98         1564.98         1564.98 
       0.110769          1459.1         1462.27         1462.27 
       0.116806         1401.19         1386.76         1386.76 
       0.122832         1318.92         1319.55         1319.55 
       0.129052         1251.81         1246.92         1246.92 
       0.135211         1186.18         1166.65         1166.65 
       0.141259         1093.37         1081.68         1081.68 
       0.147318         1000.85         996.703         996.703 
       0.153489         932.649          917.53          917.53 
       0.159709          879.48         850.463         850.463 
       0.165845         810.283         798.253         798.253 
       0.171974         789.879         757.949         757.949 
       0.178125          758.36         725.217         725.217 
       0.184229         713.558         695.725         695.725 
        0.19034          693.63         665.524         665.524 
       0.196428          664.65          633.03          633.03 
       0.202534         618.574          598.34          598.34 
       0.208729         598.205         562.803         562.803 
       0.214876         570.737         529.469         529.469 
       0.220989         531.121         499.996         499.996 
       0.227147         518.179         474.797         474.797 
        0.23329         498.831          453.84          453.84 
       0.239377         486.532         436.106         436.106 
       0.245482         463.565         419.966         419.966 
       0.251667         444.797         404.046         404.046 
       0.257832         438.051         387.836         387.836 
       0.263955         413.457          371.28          371.28 
       0.270079         397.653         354.636         354.636 
        0.27624         379.482         338.425         338.425 
       0.282372         368.441         323.423         323.423 
        0.28843         364.514         310.041         310.041 
       0.294538         347.202         298.052         298.052 
       0.300721         334.183         287.211         287.211 
        0.30691         328.817         277.265         277.265 
       0.313033         315.233          267.91          267.91 
       0.319153         309.557         258.747         258.747 
       0.325316         299.806         249.572         249.572 
        0.33145         291.411         240.529         240.529 
       0.337538         281.547         231.773         231.773 
       0.343633         272.535         223.402         223.402 
       0.349808         264.753         215.448         215.448 
       0.355968         258.417         208.106         208.106 
       0.362074         252.389         201.369         201.369 
       0.368217         247.819         195.049         195.049 
       0.374374         242.222         189.048         189.048 
       0.380519         232.269         183.277         183.277 
       0.386598         227.827         177.725         177.725 
       0.392688         221.874         172.286         172.286 
        0.39888         217.216         166.904         166.904 
       0.405048         212.642         161.734         161.734 
       0.411186         209.524         156.812         156.812 
       0.417313         204.603         152.147         152.147 
       0.423458         199.382         147.724         147.724 
       0.429607         195.332         143.525         143.525 
       0.435692         191.776         139.566         139.566 
       0.441815         187.101         135.744         135.744 
       0.447964         181.624         132.036         132.036 
       0.454126         178.457         128.431         128.431 
       0.460267         176.792         124.951         124.951 
       0.466387         172.942         121.593         121.593 
        0.47254         170.864         118.334         118.334 
       0.478662          165.23         115.217         115.217 
       0.484765         163.029         112.239         112.239 
       0.490885         159.936         109.376         109.376 
       0.497035         158.517          106.61          106.61 
       0.503198         155.287         103.944         103.944 
       0.509342         151.297          101.38          101.38 
       0.515458         149.552         98.9108         98.9108 
       0.521598         145.944         96.5074         96.5074 
       0.527764          144.44         94.1679         94.1679 
       0.533884         143.543         91.9203         91.9203 
           0.54         139.732         89.7493         89.7493 
       0.546137         136.487         87.6445         87.6445 
       0.552299         134.859         85.6027         85.6027 
       0.558452         132.383         83.6333         83.6333 
       0.564573         131.787         81.7394         81.7394 
       0.570708         128.162         79.9029         79.9029 
       0.576825         126.744         78.1296         78.1296 
       0.582926         125.381         76.4145         76.4145 
       0.589034          123.34         74.7473         74.7473 
       0.595184         121.949         73.1179         73.1179 
       0.601379         118.992         71.5258         71.5258 
       0.607522         117.228         69.9947         69.9947 
       0.613639         116.196         68.5163         68.5163 
       0.619772         114.363         67.0789         67.0789 
       0.625918         113.258         65.6813         65.6813 
       0.632068         111.201         64.3239         64.3239 
       0.638161         109.428         63.0175         63.0175 
         0.6443         108.875         61.7383         61.7383 
       0.650464         106.667         60.4902         60.4902 
       0.656582          106.24          59.286          59.286 
       0.662703          104.85         58.1145         58.1145 
       0.668861         102.616         56.9686         56.9686 
       0.675024         102.493         55.8532         55.8532 
       0.681124         100.847         54.7794         54.7794 
       0.687237         98.9468         53.7322         53.7322 
       0.693381         98.4471          52.708          52.708 
       0.699536         97.2091         51.7091         51.7091 
       0.705665         95.7208         50.7408         50.7408 
       0.711789         94.4412         49.7985         49.7985 
       0.717957         93.3526         48.8741         48.8741 
        0.72409         92.6184         47.9786         47.9786 
       0.730186         91.9945         47.1112         47.1112 
       0.736317         90.3531          46.261          46.261 
       0.742472         89.3326         45.4288         45.4288 
       0.748622         87.9692         44.6183         44.6183 
        0.75476         87.3258         43.8295         43.8295 
       0.760888         86.9539         43.0613         43.0613 
       0.767043         85.2971         42.3087         42.3087 
       0.773185         84.3391         41.5759         41.5759 
       0.779291          83.398         40.8649         40.8649 
       0.785407         82.2851         40.1697         40.1697 
       0.791564         82.2413         39.4865         39.4865 
       0.797719         81.1606         38.8198         38.8198 
       0.803834         80.3918         38.1728         38.1728 
       0.809972         79.7394         37.5385         37.5385 
       0.816124         78.8247         36.9175         36.9175 
       0.822261         77.7772         36.3123         36.3123 
       0.828378         77.5433         35.7227         35.7227 
       0.834502         76.3917         35.1458         35.1458 
       0.840667         75.9332         34.5781         34.5781 
       0.846816         75.0545         34.0248         34.0248 
       0.852925          74.404         33.4871         33.4871 
       0.859047         74.0773         32.9601         32.9601 
       0.865192         72.8756         32.4429         32.4429 
       0.871341          72.126         31.9366         31.9366 
       0.877463         71.6748         31.4435         31.4435 
       0.883569         71.4248         30.9622         30.9622 
       0.889708         70.6963         30.4886         30.4886 
       0.895864         70.0472         30.0239         30.0239 
       0.902008         69.3408         29.5699         29.5699 
       0.908149         68.6616         29.1257         29.1257 
       0.914301         68.2802         28.6901         28.6901 
       0.920448          67.921         28.2638         28.2638 
       0.926574         66.6127         27.8479         27.8479 
       0.932687         66.3379         27.4412         27.4412 
       0.938823         65.7431         27.0414         27.0414 
       0.944975         65.0196         26.6487         26.6487 
       0.951105         64.5321         26.2653         26.2653 
       0.957225         64.3484         25.8902         25.8902 
       0.963368         63.6476         25.5212         25.5212 
       0.969511         63.0959         25.1595         25.1595 
       0.975621         62.6558         24.8069         24.8069 
       0.981748         61.9878         24.4601         24.4601 
       0.987916         61.5528         24.1179         24.1179 
        0.99406         61.1431         23.7836         23.7836 
        1.00019         60.5477         23.4564         23.4564 
        1.00632         60.1215         23.1357         23.1357 
        1.01246         59.6755         22.8205         22.8205 
        1.01859         59.3365         22.5118         22.5118 
        1.02471          58.639         22.2093         22.2093 
        1.03085          58.347         21.9113         21.9113 
        1.03698          57.942         21.6195         21.6195 
        1.04314         57.5457         21.3319         21.3319 
        1.04929         56.9622         21.0502         21.0502 
        1.05541         56.6849         20.7748         20.7748 
        1.06154         56.3802         20.5036         20.5036 
        1.06769          55.589          20.237          20.237 
        1.07382         55.3703          19.976          19.976 
        1.07993         55.0247         19.7203         19.7203 
        1.08607         54.5958          19.468          19.468 
        1.09222         54.3396           19.22           19.22 
        1.09836         53.8483         18.9766         18.9766 
        1.10449         53.5752         18.7377         18.7377 
        1.11063         53.0601         18.5027         18.5027 
        1.11677         52.9822         18.2719         18.2719 
         1.1229         52.4002         18.0454         18.0454 
        1.12903         52.2065         17.8227         17.8227 
        1.13518         52.0541         17.6035         17.6035 
        1.14131         51.4543         17.3882         17.3882 
        1.14745         50.9727         17.1767         17.1767 
        1.15359         50.5157         16.9687         16.9687 
        1.15973         50.4321          16.764          16.764 
        1.16584         50.0649         16.5637         16.5637 
        1.17197         49.4702         16.3665         16.3665 
        1.17811         49.2994         16.1718         16.1718 
        1.18424         48.6817         15.9809         15.9809 
        1.19038         48.5857         15.7926         15.7926 
        1.19652         48.3528         15.6074         15.6074 
        1.20267         48.0359         15.4252         15.4252 
        1.20881         47.6889          15.246          15.246 
        1.21495         47.4827           15.07           15.07 
        1.22108          47.298         14.8968         14.8968 
         1.2272         46.8949         14.7267         14.7267 
        1.23334         46.5932         14.5589         14.5589 
        1.23949         46.3024         14.3934         14.3934 
        1.24562         45.9249          14.231          14.231 
        1.25174         45.6502         14.0713         14.0713 
        1.25789         45.6422         13.9136         13.9136 
        1.26402          45.248         13.7586         13.7586 
        1.27014         44.9839         13.6064         13.6064 
        1.27628         44.5447          13.456          13.456 
        1.28244         44.4737         13.3077         13.3077 
        1.28858         44.1109         13.1618         13.1618 
        1.29471         43.8892         13.0184         13.0184 
        1.30084         43.5112         12.8773         12.8773 
        1.30697         43.4154         12.7382         12.7382 
        1.31312         43.0274         12.6008         12.6008 
        1.31925         42.7034          12.466          12.466 
        1.32537         42.5139         12.3333         12.3333 
        1.33151         42.2414          12.202          12.202 
        1.33765          42.081         12.0728         12.0728 
        1.34378         41.9229         11.9457         11.9457 
        1.34992         41.5783         11.8203         11.8203 
        1.35606         41.3439         11.6965         11.6965 
         1.3622         41.0628         11.5748         11.5748 
        1.36833         40.8808          11.455          11.455 
        1.37445         40.5682          11.337          11.337 
        1.38059          40.426         11.2204         11.2204 
        1.38675         40.0299         11.1051         11.1051 
        1.39288          39.979         10.9919         10.9919 
        1.39901         39.6866         10.8803         10.8803 
        1.40515         39.4984         10.7701         10.7701 
         1.4113         39.4728         10.6615         10.6615 
        1.41742          39.194         10.5547         10.5547 
        1.42355         38.8142         10.4493         10.4493 
         1.4297         38.6199         10.3449         10.3449 
        1.43585         38.3605         10.2421         10.2421 
        1.44198         38.2005         10.1411         10.1411 
        1.44809         37.9751         10.0416         10.0416 
        1.45423         37.8494         9.94308         9.94308 
        1.46036         37.6386         9.84609         9.84609 
        1.46649         37.4492         9.75037         9.75037 
        1.47263          37.179         9.65586         9.65586 
        1.47877         37.0365         9.56266         9.56266 
        1.48491         36.9011         9.47054         9.47054 
        1.49104         36.5896         9.37985         9.37985 
        1.49718          36.482         9.29029         9.29029 
        1.50333         36.3684         9.20177         9.20177 
        1.50947         36.0643         9.11459         9.11459 
         1.5156         35.9085         9.02867         9.02867 
        1.52172         35.6432         8.94388         8.94388 
        1.52787         35.5068         8.86001         8.86001 
          1.534         35.3222         8.77733         8.77733 
        1.54013         35.2311         8.69579         8.69579 
        1.54627         34.8983         8.61516         8.61516 
        1.55241         34.7638         8.53553         8.53553 
        1.55855           34.66         8.45704         8.45704 
        1.56467         34.5103         8.37975         8.37975 
         1.5708         34.3008         8.30322         8.30322 
        1.57695         34.1344         8.22753         8.22753 
        1.58308         33.8387         8.15297         8.15297 
        1.58922         33.6723         8.07929         8.07929 
        1.59535          33.581         8.00655         8.00655 
         1.6015         33.4614         7.93461         7.93461 
        1.60764         33.2818          7.8636          7.8636 
        1.61376         33.0592         7.79366         7.79366 
        1.61989         32.8489         7.72452         7.72452 
        1.62604         32.7262         7.65607         7.65607 
        1.63218         32.5766         7.58849         7.58849 
        1.63831         32.4526          7.5219          7.5219 
        1.64444         32.2636         7.45608         7.45608 
        1.65059         32.0982         7.39091         7.39091 
        1.65673         31.9623         7.32659         7.32659 
        1.66285          31.859         7.26322         7.26322 
        1.66898         31.6087         7.20058         7.20058 
        1.67512         31.5538         7.13857         7.13857 
        1.68127          31.373         7.07723         7.07723 
         1.6874         31.2062         7.01676         7.01676 
        1.69353         31.1024         6.95703         6.95703 
        1.69967         30.9421         6.89787         6.89787 
        1.70581         30.6764         6.83942         6.83942 
        1.71193         30.5335         6.78188         6.78188 
        1.71806         30.4847         6.72487         6.72487 
        1.72421         30.3571         6.66842         6.66842 
        1.73035         30.1599         6.61268         6.61268 
        1.73649         29.9746         6.55759         6.55759 
        1.74262         29.8022         6.50318         6.50318 
        1.74876         29.6995         6.44936         6.44936 
        1.75489         29.5704         6.39626         6.39626 
        1.76101         29.4676         6.34378         6.34378 
        1.76715         29.3493         6.29182         6.29182 
        1.77329         29.1266         6.24038         6.24038 
        1.77943         29.0841          6.1895          6.1895 
        1.78557         28.9248         6.13926         6.13926 
        1.79171         28.7856         6.08958         6.08958 
        1.79785         28.6452         6.04044         6.04044 
        1.80399         28.5193         5.99186         5.99186 
        1.81012         28.4219         5.94389         5.94389 
        1.81625         28.2008         5.89646         5.89646 
        1.82239         28.1117         5.84948         5.84948 
        1.82853          27.979         5.80304         5.80304 
        1.83466          27.834         5.75716         5.75716 
        1.84078         27.7062         5.71182         5.71182 
        1.84692         27.6246          5.6669          5.6669 
        1.85306         27.4327         5.62241         5.62241 
         1.8592         27.3748         5.57847         5.57847 
        1.86533         27.1786         5.53503         5.53503 
        1.87147          27.056         5.49201         5.49201 
        1.87761         26.9514         5.44942         5.44942 
