# k  (h/Mpc)    P(k)  (Mpc/h)^3    P_linear(k)  (Mpc/h)^3     P_NL(k)  ShotnoiseSubtracted = false
     0.00783031         2312.23         2327.33         2327.33 
       0.013688         2904.61          2943.5          2943.5 
       0.019231         3015.86          3034.4          3034.4 
      0.0249154         2861.16          2858.1          2858.1 
      0.0312784         2526.78          2532.3          2532.3 
      0.0375637         2198.62         2209.65         2209.65 
      0.0433917         1967.55          1965.8          1965.8 
      0.0492413         1778.18         1784.04         1784.04 
      0.0555754         1643.74         1641.56         1641.56 
      0.0619321         1507.11         1526.79         1526.79 
       0.067871         1415.18         1422.18         1422.18 
      0.0738098         1305.59         1308.71         1308.71 
      0.0800417         1181.97         1180.82         1180.82 
      0.0862327         1053.16         1054.59         1054.59 
      0.0921407         945.208         946.035         946.035 
      0.0982031         859.178         854.521         854.521 
       0.104506         780.284         782.821         782.821 
       0.110769         730.174         731.444         731.444 
       0.116806         698.947         693.675         693.675 
       0.122832          659.44         660.054         660.054 
       0.129052         625.889         623.726         623.726 
       0.135211         590.071         583.575         583.575 
       0.141259         544.565          541.07          541.07 
       0.147318         498.853         498.564         498.564 
       0.153489         463.034         458.961         458.961 
       0.159709         433.495         425.413         425.413 
       0.165845         401.114         399.297         399.297 
       0.171974         388.439         379.137         379.137 
       0.178125         371.869         362.764         362.764 
       0.184229         352.563         348.011         348.011 
        0.19034         341.133         332.904         332.904 
       0.196428         325.389         316.651         316.651 
       0.202534           303.6         299.298         299.298 
       0.208729         290.966         281.522         281.522 
       0.214876         276.904         264.848         264.848 
       0.220989         257.547         250.105         250.105 
       0.227147          249.97         237.501         237.501 
        0.23329         240.093         227.018         227.018 
       0.239377         232.527         218.147         218.147 
       0.245482         222.286         210.073         210.073 
       0.251667         212.924          202.11          202.11 
       0.257832         208.329         194.002         194.002 
       0.263955         197.114          185.72          185.72 
       0.270079         189.016         177.394         177.394 
        0.27624         179.954         169.285         169.285 
       0.282372         173.517         161.781         161.781 
        0.28843         170.355         155.087         155.087 
       0.294538         162.915          149.09          149.09 
       0.300721         156.071         143.667         143.667 
        0.30691         153.048         138.692         138.692 
       0.313033         147.087         134.012         134.012 
       0.319153         144.306         129.429         129.429 
       0.325316         138.105          124.84          124.84 
        0.33145          133.55         120.316         120.316 
       0.337538         129.286         115.936         115.936 
       0.343633         125.255         111.749         111.749 
       0.349808          121.14          107.77          107.77 
       0.355968         117.502         104.098         104.098 
       0.362074         115.122         100.728         100.728 
       0.368217         112.037         97.5664         97.5664 
       0.374374         109.604         94.5646         94.5646 
       0.380519         104.976         91.6781         91.6781 
       0.386598          102.22         88.9006         88.9006 
       0.392688         99.2246         86.1799         86.1799 
        0.39888         97.3027         83.4878         83.4878 
       0.405048         94.9263         80.9017         80.9017 
       0.411186         92.5791         78.4396         78.4396 
       0.417313         90.0294         76.1064         76.1064 
       0.423458         87.5957         73.8936         73.8936 
       0.429607         86.0513         71.7933         71.7933 
       0.435692         84.5359          69.813          69.813 
       0.441815         81.5434         67.9011         67.9011 
       0.447964          79.079         66.0463         66.0463 
       0.454126         77.6791         64.2434         64.2434 
       0.460267         76.9482         62.5022         62.5022 
       0.466387         74.8619         60.8226         60.8226 
        0.47254         73.8095         59.1927         59.1927 
       0.478662         71.3553         57.6336         57.6336 
       0.484765         70.0171         56.1439         56.1439 
       0.490885         68.1386         54.7113         54.7113 
       0.497035         67.2996         53.3282         53.3282 
       0.503198         65.6755         51.9946         51.9946 
       0.509342         63.9815         50.7119         50.7119 
       0.515458         63.1748         49.4768         49.4768 
       0.521598         61.6609         48.2745         48.2745 
       0.527764          60.887         47.1043         47.1043 
       0.533884         59.7715           45.98           45.98 
           0.54          58.415          44.894          44.894 
       0.546137         56.7418         43.8411         43.8411 
       0.552299         55.8477         42.8198         42.8198 
       0.558452         54.7186         41.8347         41.8347 
       0.564573          54.309         40.8873         40.8873 
       0.570708         52.7485         39.9687         39.9687 
       0.576825          52.154         39.0816         39.0816 
       0.582926         51.3533         38.2237         38.2237 
       0.589034         50.3589         37.3898         37.3898 
       0.595184         49.6654         36.5747         36.5747 
       0.601379         48.3441         35.7783         35.7783 
       0.607522         47.6406         35.0124         35.0124 
       0.613639         46.9898         34.2729         34.2729 
       0.619772         46.1498         33.5539         33.5539 
       0.625918         45.3035         32.8548         32.8548 
       0.632068         44.9079         32.1758         32.1758 
       0.638161         43.9667         31.5223         31.5223 
         0.6443         43.4033         30.8825         30.8825 
       0.650464         42.3538         30.2582         30.2582 
       0.656582         42.1051         29.6558         29.6558 
       0.662703         41.5917         29.0698         29.0698 
       0.668861         40.5465         28.4966         28.4966 
       0.675024         40.1482         27.9386         27.9386 
       0.681124         39.7815         27.4015         27.4015 
       0.687237         38.9858         26.8777         26.8777 
       0.693381         38.3314         26.3654         26.3654 
       0.699536         38.0992         25.8657         25.8657 
       0.705665         37.3961         25.3813         25.3813 
       0.711789         36.7597           24.91           24.91 
       0.717957         36.0821         24.4476         24.4476 
        0.72409         35.7549         23.9996         23.9996 
       0.730186         35.5674         23.5658         23.5658 
       0.736317         34.8677         23.1405         23.1405 
       0.742472         34.4534         22.7242         22.7242 
       0.748622         33.8898         22.3188         22.3188 
        0.75476         33.1194         21.9242         21.9242 
       0.760888         33.0482         21.5399         21.5399 
       0.767043         32.4716         21.1635         21.1635 
       0.773185         32.1613         20.7969         20.7969 
       0.779291         31.7821         20.4413         20.4413 
       0.785407         31.2744         20.0935         20.0935 
       0.791564         31.1308         19.7518         19.7518 
       0.797719         30.4811         19.4183         19.4183 
       0.803834         30.3215         19.0947         19.0947 
       0.809972         29.7872         18.7774         18.7774 
       0.816124          29.471         18.4667         18.4667 
       0.822261         29.1457          18.164          18.164 
       0.828378         28.8739          17.869          17.869 
       0.834502         28.5652         17.5805         17.5805 
       0.840667         28.2751         17.2965         17.2965 
       0.846816         27.6775         17.0197         17.0197 
       0.852925         27.6081         16.7508         16.7508 
       0.859047         27.2982         16.4872         16.4872 
       0.865192         26.9017         16.2285         16.2285 
       0.871341         26.5828         15.9752         15.9752 
       0.877463         26.3154         15.7285         15.7285 
       0.883569          26.173         15.4878         15.4878 
       0.889708         25.7706         15.2509         15.2509 
       0.895864         25.4559         15.0184         15.0184 
       0.902008         25.1502         14.7913         14.7913 
       0.908149         24.8885         14.5691         14.5691 
       0.914301         24.7555         14.3512         14.3512 
       0.920448         24.3949          14.138          14.138 
       0.926574         24.1532         13.9299         13.9299 
       0.932687         23.8864         13.7265         13.7265 
       0.938823         23.5914         13.5265         13.5265 
       0.944975         23.4006         13.3301         13.3301 
       0.951105         23.1685         13.1383         13.1383 
       0.957225         23.0322         12.9507         12.9507 
       0.963368         22.6687         12.7661         12.7661 
       0.969511          22.473         12.5852         12.5852 
       0.975621         22.2696         12.4088         12.4088 
       0.981748         21.9975         12.2353         12.2353 
       0.987916         21.8636         12.0642         12.0642 
        0.99406         21.6033         11.8969         11.8969 
        1.00019         21.4464         11.7333         11.7333 
        1.00632         21.2527         11.5728         11.5728 
        1.01246         21.0787         11.4152         11.4152 
        1.01859         20.8107         11.2608         11.2608 
        1.02471         20.6087         11.1094         11.1094 
        1.03085         20.5264         10.9604         10.9604 
        1.03698         20.3323         10.8144         10.8144 
        1.04314         20.0866         10.6705         10.6705 
        1.04929         19.8528         10.5296         10.5296 
        1.05541         19.7739         10.3919         10.3919 
        1.06154         19.6241         10.2562         10.2562 
        1.06769         19.4049         10.1229         10.1229 
        1.07382         19.1672         9.99233         9.99233 
        1.07993         19.0125         9.86441         9.86441 
        1.08607         18.9176         9.73822         9.73822 
        1.09222         18.6987         9.61414         9.61414 
        1.09836         18.5865         9.49238         9.49238 
        1.10449         18.3997         9.37289         9.37289 
        1.11063         18.2955         9.25535         9.25535 
        1.11677         18.1884         9.13989         9.13989 
         1.1229         17.9991         9.02662         9.02662 
        1.12903         17.8588         8.91519         8.91519 
        1.13518          17.669         8.80557         8.80557 
        1.14131         17.5705         8.69787         8.69787 
        1.14745         17.3239         8.59206         8.59206 
        1.15359         17.1856           8.488           8.488 
        1.15973         17.0567         8.38564         8.38564 
        1.16584         16.9239         8.28544         8.28544 
        1.17197         16.7637         8.18676         8.18676 
        1.17811         16.6521          8.0894          8.0894 
        1.18424          16.532         7.99392         7.99392 
        1.19038         16.4421         7.89972         7.89972 
        1.19652         16.2742         7.80708         7.80708 
        1.20267         16.1786         7.71595         7.71595 
        1.20881          16.001         7.62631         7.62631 
        1.21495         15.8959         7.53825         7.53825 
        1.22108         15.8472          7.4516          7.4516 
         1.2272         15.7049         7.36654         7.36654 
        1.23334         15.6022         7.28262         7.28262 
        1.23949         15.4645         7.19982         7.19982 
        1.24562          15.317         7.11855         7.11855 
        1.25174         15.2489         7.03867         7.03867 
        1.25789         15.1024         6.95979         6.95979 
        1.26402         15.0392         6.88227         6.88227 
        1.27014         14.9525         6.80612         6.80612 
        1.27628         14.7637         6.73092         6.73092 
        1.28244         14.7563         6.65671         6.65671 
        1.28858         14.5974         6.58373         6.58373 
        1.29471         14.4187         6.51202         6.51202 
        1.30084         14.3389         6.44145         6.44145 
        1.30697         14.3187         6.37183         6.37183 
        1.31312         14.1654         6.30314         6.30314 
        1.31925         14.0913         6.23569         6.23569 
        1.32537          13.982          6.1693          6.1693 
        1.33151         13.8871         6.10365         6.10365 
        1.33765         13.7991           6.039           6.039 
        1.34378         13.7503         5.97542         5.97542 
        1.34992         13.6142         5.91273         5.91273 
        1.35606         13.4964          5.8508          5.8508 
         1.3622         13.3964         5.78988         5.78988 
        1.36833         13.3621         5.72998         5.72998 
        1.37445          13.281         5.67097         5.67097 
        1.38059         13.1903         5.61261         5.61261 
        1.38675         13.0939         5.55494         5.55494 
        1.39288         12.9673         5.49832         5.49832 
        1.39901         12.9139         5.44252         5.44252 
        1.40515         12.8173         5.38738         5.38738 
         1.4113         12.7302         5.33303         5.33303 
        1.41742         12.6798         5.27964         5.27964 
        1.42355         12.5539         5.22689         5.22689 
         1.4297         12.5026         5.17471         5.17471 
        1.43585         12.4339         5.12326         5.12326 
        1.44198         12.3668         5.07272         5.07272 
        1.44809         12.2785         5.02296         5.02296 
        1.45423         12.1847         4.97369         4.97369 
        1.46036         12.1221         4.92517         4.92517 
        1.46649          12.042         4.87729         4.87729 
        1.47263         11.9874         4.83002         4.83002 
        1.47877         11.9053         4.78339         4.78339 
        1.48491         11.8404         4.73732         4.73732 
        1.49104         11.7473         4.69195         4.69195 
        1.49718         11.7054         4.64715         4.64715 
        1.50333          11.629         4.60287         4.60287 
        1.50947         11.5533         4.55926         4.55926 
         1.5156          11.512         4.51629         4.51629 
        1.52172         11.4245         4.47387         4.47387 
        1.52787         11.3663         4.43192         4.43192 
          1.534          11.306         4.39056         4.39056 
        1.54013         11.2475         4.34978         4.34978 
        1.54627         11.1654         4.30944         4.30944 
        1.55241         11.0763         4.26961         4.26961 
        1.55855         11.0558         4.23035         4.23035 
        1.56467         10.9836         4.19169         4.19169 
         1.5708         10.9347          4.1534          4.1534 
        1.57695         10.8508         4.11555         4.11555 
        1.58308         10.7716         4.07825         4.07825 
        1.58922         10.7401         4.04139         4.04139 
        1.59535         10.6691         4.00501         4.00501 
         1.6015         10.5718         3.96902         3.96902 
        1.60764         10.5402          3.9335          3.9335 
        1.61376         10.5039         3.89851         3.89851 
        1.61989         10.4111         3.86393         3.86393 
        1.62604         10.3889         3.82969         3.82969 
        1.63218         10.3382         3.79589         3.79589 
        1.63831         10.2582         3.76258         3.76258 
        1.64444         10.1862         3.72965         3.72965 
        1.65059         10.1294         3.69705         3.69705 
        1.65673         10.1074         3.66488         3.66488 
        1.66285         10.0401         3.63318         3.63318 
        1.66898         10.0015         3.60185         3.60185 
        1.67512         9.94173         3.57083         3.57083 
        1.68127         9.85622         3.54015         3.54015 
         1.6874         9.83801          3.5099          3.5099 
        1.69353         9.76426         3.48002         3.48002 
        1.69967         9.72538         3.45043         3.45043 
        1.70581         9.66733         3.42119         3.42119 
        1.71193         9.64131          3.3924          3.3924 
        1.71806         9.58588         3.36389         3.36389 
        1.72421         9.51626         3.33565         3.33565 
        1.73035         9.47719         3.30777         3.30777 
        1.73649         9.44484         3.28021         3.28021 
        1.74262         9.34605           3.253           3.253 
        1.74876          9.3546         3.22607         3.22607 
        1.75489         9.29362         3.19951         3.19951 
        1.76101         9.22412         3.17326         3.17326 
        1.76715          9.2063         3.14727         3.14727 
        1.77329         9.15757         3.12154         3.12154 
        1.77943         9.08231         3.09609         3.09609 
        1.78557         9.08177         3.07096         3.07096 
        1.79171         9.02379         3.04611         3.04611 
        1.79785         8.99337         3.02153         3.02153 
        1.80399         8.91036         2.99723         2.99723 
        1.81012         8.89048         2.97323         2.97323 
        1.81625         8.82458          2.9495          2.9495 
        1.82239         8.78843         2.92601         2.92601 
        1.82853         8.73748         2.90278         2.90278 
        1.83466         8.67926         2.87982         2.87982 
        1.84078         8.66585         2.85714         2.85714 
        1.84692         8.62734         2.83468         2.83468 
        1.85306         8.58588         2.81242         2.81242 
         1.8592         8.55751         2.79044         2.79044 
        1.86533         8.50871         2.76871         2.76871 
        1.87147         8.45795         2.74719         2.74719 
        1.87761         8.43289         2.72589         2.72589 
