# k  (h/Mpc)    Pcb(k)  (Mpc/h)^3    Pcb_linear(k) (Mpc/h)^3    Pcb_NL(k) (Mpc/h)^3   ShotnoiseSubtracted = false
     0.00783031         239.245         241.094         241.094 
       0.013688          302.65         305.092         305.092 
       0.019231         313.636         314.578         314.578 
      0.0249154         296.125         296.333         296.333 
      0.0312784         262.488         262.571         262.571 
      0.0375637          228.99         229.126         229.126 
      0.0433917         204.183         203.845         203.845 
      0.0492413         185.015             185             185 
      0.0555754         170.511         170.227         170.227 
      0.0619321         157.764         158.328         158.328 
       0.067871         147.345         147.481         147.481 
      0.0738098         135.662         135.715         135.715 
      0.0800417         122.578         122.452         122.452 
      0.0862327          109.39         109.363         109.363 
      0.0921407         98.0996          98.106          98.106 
      0.0982031         88.7977          88.616          88.616 
       0.104506         81.0677         81.1807         81.1807 
       0.110769         75.7567         75.8529         75.8529 
       0.116806         72.0327         71.9362         71.9362 
       0.122832         68.3279         68.4497         68.4497 
       0.129052         64.6827         64.6824         64.6824 
       0.135211         60.6116         60.5187         60.5187 
       0.141259         56.0951         56.1109         56.1109 
       0.147318         51.5806         51.7029         51.7029 
       0.153489         47.5979          47.596          47.596 
       0.159709          44.185          44.117          44.117 
       0.165845         41.2713         41.4086         41.4086 
       0.171974          39.414         39.3179         39.3179 
       0.178125           37.68           37.62           37.62 
       0.184229         36.0434         36.0902         36.0902 
        0.19034         34.6118         34.5235         34.5235 
       0.196428         32.8852          32.838          32.838 
       0.202534         30.9372         31.0385         31.0385 
       0.208729         29.2344          29.195          29.195 
       0.214876         27.6072         27.4659         27.4659 
       0.220989         25.9029          25.937          25.937 
       0.227147         24.7747         24.6298         24.6298 
        0.23329         23.6949         23.5427         23.5427 
       0.239377         22.7825         22.6227         22.6227 
       0.245482         21.9174         21.7855         21.7855 
       0.251667           21.02         20.9596         20.9596 
       0.257832         20.2673         20.1188         20.1188 
       0.263955         19.3468           19.26           19.26 
       0.270079         18.4828         18.3965         18.3965 
        0.27624         17.5904         17.5556         17.5556 
       0.282372         16.8317         16.7774         16.7774 
        0.28843         16.2294         16.0832         16.0832 
       0.294538         15.5876         15.4613         15.4613 
       0.300721         14.9666         14.8989         14.8989 
        0.30691         14.5181          14.383          14.383 
       0.313033         14.0096         13.8977         13.8977 
       0.319153         13.6233         13.4224         13.4224 
       0.325316         13.0213         12.9465         12.9465 
        0.33145         12.5574         12.4773         12.4773 
       0.337538         12.1271         12.0231         12.0231 
       0.343633         11.7191         11.5889         11.5889 
       0.349808         11.2879         11.1763         11.1763 
       0.355968         10.8933         10.7954         10.7954 
       0.362074         10.5805          10.446          10.446 
       0.368217         10.2446         10.1181         10.1181 
       0.374374          9.9828         9.80677         9.80677 
       0.380519          9.6257         9.50744         9.50744 
       0.386598          9.3211         9.21936         9.21936 
       0.392688         9.02623         8.93726         8.93726 
        0.39888          8.7744         8.65806         8.65806 
       0.405048         8.51386         8.38987         8.38987 
       0.411186         8.24877         8.13453         8.13453 
       0.417313          8.0128         7.89258         7.89258 
       0.423458         7.75469          7.6631          7.6631 
       0.429607         7.57409         7.44529         7.44529 
       0.435692         7.37895         7.23993         7.23993 
       0.441815         7.15488         7.04166         7.04166 
       0.447964         6.93408         6.84929         6.84929 
       0.454126         6.78098         6.66233         6.66233 
       0.460267         6.62884         6.48176         6.48176 
       0.466387         6.43789         6.30758         6.30758 
        0.47254          6.2816         6.13855         6.13855 
       0.478662         6.10833         5.97686         5.97686 
       0.484765         5.95727         5.82237         5.82237 
       0.490885         5.79339         5.67381         5.67381 
       0.497035         5.63275         5.53038         5.53038 
       0.503198         5.51379         5.39208         5.39208 
       0.509342         5.35984         5.25905         5.25905 
       0.515458         5.25183         5.13096         5.13096 
       0.521598         5.12753         5.00629         5.00629 
       0.527764         5.02568         4.88493         4.88493 
       0.533884         4.87389         4.76833         4.76833 
           0.54         4.77122         4.65572         4.65572 
       0.546137         4.64504         4.54653         4.54653 
       0.552299         4.54986         4.44061         4.44061 
       0.558452         4.44767         4.33845         4.33845 
       0.564573         4.35427          4.2402          4.2402 
       0.570708         4.25728         4.14494         4.14494 
       0.576825         4.16567         4.05295         4.05295 
       0.582926           4.067         3.96398         3.96398 
       0.589034         3.99553         3.87749         3.87749 
       0.595184         3.91842         3.79297         3.79297 
       0.601379         3.82009         3.71038         3.71038 
       0.607522         3.73822         3.63095         3.63095 
       0.613639          3.6492         3.55426         3.55426 
       0.619772         3.59026         3.47969         3.47969 
       0.625918         3.51443          3.4072          3.4072 
       0.632068         3.44787         3.33678         3.33678 
       0.638161          3.3754         3.26901         3.26901 
         0.6443         3.30607         3.20265         3.20265 
       0.650464         3.24011         3.13791         3.13791 
       0.656582         3.18934         3.07544         3.07544 
       0.662703         3.12566         3.01467         3.01467 
       0.668861         3.04849         2.95523         2.95523 
       0.675024         2.99672         2.89737         2.89737 
       0.681124         2.96721         2.84166         2.84166 
       0.687237         2.89648         2.78734         2.78734 
       0.693381         2.82774         2.73421         2.73421 
       0.699536         2.79317         2.68239         2.68239 
       0.705665          2.7403         2.63216         2.63216 
       0.711789         2.67875         2.58328         2.58328 
       0.717957         2.63227         2.53533         2.53533 
        0.72409         2.58712         2.48887         2.48887 
       0.730186         2.55309         2.44388         2.44388 
       0.736317         2.49758         2.39977         2.39977 
       0.742472         2.46102         2.35661         2.35661 
       0.748622         2.41998         2.31456         2.31456 
        0.75476         2.36845         2.27364         2.27364 
       0.760888         2.33803         2.23379         2.23379 
       0.767043         2.27643         2.19475         2.19475 
       0.773185         2.24762         2.15674         2.15674 
       0.779291         2.22369         2.11985         2.11985 
       0.785407         2.17958         2.08379         2.08379 
       0.791564          2.1435         2.04835         2.04835 
       0.797719         2.10693         2.01376         2.01376 
       0.803834         2.07217          1.9802          1.9802 
       0.809972          2.0389          1.9473          1.9473 
       0.816124         2.00561         1.91508         1.91508 
       0.822261         1.97707         1.88369         1.88369 
       0.828378         1.94165          1.8531          1.8531 
       0.834502         1.91202         1.82318         1.82318 
       0.840667         1.88678         1.79373         1.79373 
       0.846816         1.85517         1.76502         1.76502 
       0.852925         1.82235         1.73714         1.73714 
       0.859047         1.79567          1.7098          1.7098 
       0.865192         1.76889         1.68297         1.68297 
       0.871341          1.7449          1.6567          1.6567 
       0.877463         1.71305         1.63112         1.63112 
       0.883569         1.68904         1.60615         1.60615 
       0.889708         1.66777         1.58159         1.58159 
       0.895864         1.64304         1.55748         1.55748 
       0.902008         1.61378         1.53393         1.53393 
       0.908149         1.59424         1.51089         1.51089 
       0.914301         1.57446         1.48829         1.48829 
       0.920448         1.55169         1.46618         1.46618 
       0.926574         1.53377          1.4446          1.4446 
       0.932687         1.50973         1.42351         1.42351 
       0.938823         1.48211         1.40276         1.40276 
       0.944975         1.46638         1.38239         1.38239 
       0.951105         1.43897          1.3625          1.3625 
       0.957225         1.42081         1.34305         1.34305 
       0.963368         1.40534         1.32391         1.32391 
       0.969511          1.3881         1.30514         1.30514 
       0.975621         1.36449         1.28685         1.28685 
       0.981748         1.34073         1.26886         1.26886 
       0.987916         1.32539         1.25111         1.25111 
        0.99406         1.31174         1.23377         1.23377 
        1.00019         1.29307         1.21679         1.21679 
        1.00632         1.28051         1.20016         1.20016 
        1.01246         1.26145         1.18381         1.18381 
        1.01859         1.24489         1.16779         1.16779 
        1.02471         1.22434          1.1521          1.1521 
        1.03085         1.20843         1.13664         1.13664 
        1.03698         1.19582         1.12151         1.12151 
        1.04314         1.18059         1.10658         1.10658 
        1.04929         1.16819         1.09197         1.09197 
        1.05541         1.14781         1.07768         1.07768 
        1.06154         1.13673         1.06362         1.06362 
        1.06769         1.12393         1.04979         1.04979 
        1.07382         1.10848         1.03625         1.03625 
        1.07993         1.09499         1.02299         1.02299 
        1.08607         1.08204          1.0099          1.0099 
        1.09222         1.06635        0.997031        0.997031 
        1.09836         1.05624        0.984404        0.984404 
        1.10449         1.03977        0.972013        0.972013 
        1.11063         1.02741        0.959823        0.959823 
        1.11677         1.01754        0.947849        0.947849 
         1.1229         1.00109        0.936103        0.936103 
        1.12903        0.992903        0.924547        0.924547 
        1.13518        0.979054        0.913179        0.913179 
        1.14131        0.969086         0.90201         0.90201 
        1.14745        0.960138        0.891036        0.891036 
        1.15359        0.946569        0.880245        0.880245 
        1.15973        0.936963         0.86963         0.86963 
        1.16584        0.924182        0.859239        0.859239 
        1.17197        0.912788        0.849005        0.849005 
        1.17811        0.902009        0.838908        0.838908 
        1.18424        0.892144        0.829006        0.829006 
        1.19038        0.880504        0.819237        0.819237 
        1.19652        0.874387        0.809631        0.809631 
        1.20267        0.865118         0.80018         0.80018 
        1.20881        0.850889        0.790884        0.790884 
        1.21495        0.843705        0.781751        0.781751 
        1.22108         0.83475        0.772766        0.772766 
         1.2272        0.822981        0.763944        0.763944 
        1.23334        0.815463        0.755241        0.755241 
        1.23949        0.808242        0.746655        0.746655 
        1.24562        0.798634        0.738227        0.738227 
        1.25174        0.790149        0.729943        0.729943 
        1.25789        0.779041        0.721762        0.721762 
        1.26402        0.772251        0.713723        0.713723 
        1.27014          0.7617        0.705827        0.705827 
        1.27628        0.756234        0.698027        0.698027 
        1.28244        0.748212        0.690332        0.690332 
        1.28858        0.738516        0.682764        0.682764 
        1.29471        0.730873        0.675327        0.675327 
        1.30084        0.723681        0.668009        0.668009 
        1.30697        0.718372        0.660788        0.660788 
        1.31312        0.709944        0.653665        0.653665 
        1.31925        0.702268         0.64667         0.64667 
        1.32537        0.695253        0.639785        0.639785 
        1.33151        0.687717        0.632977        0.632977 
        1.33765        0.680497        0.626273        0.626273 
        1.34378        0.672318        0.619679        0.619679 
        1.34992        0.668413        0.613177        0.613177 
        1.35606        0.660074        0.606755        0.606755 
         1.3622        0.653878        0.600438        0.600438 
        1.36833        0.648174        0.594226        0.594226 
        1.37445        0.641797        0.588106        0.588106 
        1.38059        0.634913        0.582054        0.582054 
        1.38675         0.62817        0.576074        0.576074 
        1.39288        0.621173        0.570202        0.570202 
        1.39901        0.616536        0.564415        0.564415 
        1.40515        0.609734        0.558697        0.558697 
         1.4113        0.606041         0.55306         0.55306 
        1.41742        0.598887        0.547523        0.547523 
        1.42355        0.590792        0.542053        0.542053 
         1.4297        0.588131        0.536641        0.536641 
        1.43585        0.580737        0.531306        0.531306 
        1.44198        0.576159        0.526065        0.526065 
        1.44809        0.569733        0.520904        0.520904 
        1.45423        0.565221        0.515795        0.515795 
        1.46036        0.559613        0.510763        0.510763 
        1.46649        0.554195        0.505798        0.505798 
        1.47263        0.547886        0.500895        0.500895 
        1.47877        0.546119         0.49606         0.49606 
        1.48491        0.537507        0.491282        0.491282 
        1.49104         0.53576        0.486578        0.486578 
        1.49718        0.528652        0.481932        0.481932 
        1.50333        0.524947        0.477339        0.477339 
        1.50947        0.520525        0.472817        0.472817 
         1.5156        0.515188         0.46836         0.46836 
        1.52172        0.511182        0.463961        0.463961 
        1.52787        0.504883        0.459611        0.459611 
          1.534        0.502097        0.455322        0.455322 
        1.54013        0.497194        0.451092        0.451092 
        1.54627          0.4928        0.446909        0.446909 
        1.55241        0.487857        0.442779        0.442779 
        1.55855        0.483789        0.438707        0.438707 
        1.56467        0.479952        0.434698        0.434698 
         1.5708        0.475085        0.430728        0.430728 
        1.57695        0.470739        0.426801        0.426801 
        1.58308        0.465401        0.422934        0.422934 
        1.58922         0.46317        0.419111        0.419111 
        1.59535        0.458169        0.415338        0.415338 
         1.6015        0.454481        0.411606        0.411606 
        1.60764        0.450583        0.407922        0.407922 
        1.61376         0.44674        0.404294        0.404294 
        1.61989        0.442736        0.400708        0.400708 
        1.62604        0.438782        0.397157        0.397157 
        1.63218        0.435972        0.393651        0.393651 
        1.63831        0.431409        0.390197        0.390197 
        1.64444        0.428275        0.386783        0.386783 
        1.65059         0.42392        0.383402        0.383402 
        1.65673        0.420739        0.380065        0.380065 
        1.66285        0.417735        0.376778        0.376778 
        1.66898        0.413785        0.373528        0.373528 
        1.67512        0.409834        0.370311        0.370311 
        1.68127        0.406156         0.36713         0.36713 
         1.6874         0.40383        0.363993        0.363993 
        1.69353        0.400121        0.360895        0.360895 
        1.69967        0.396716        0.357825        0.357825 
        1.70581        0.394134        0.354793        0.354793 
        1.71193        0.391276        0.351808        0.351808 
        1.71806        0.387618        0.348851        0.348851 
        1.72421        0.384145        0.345923        0.345923 
        1.73035        0.380599        0.343031        0.343031 
        1.73649        0.378903        0.340174        0.340174 
        1.74262        0.374627        0.337351        0.337351 
        1.74876        0.372589        0.334559        0.334559 
        1.75489        0.369477        0.331805        0.331805 
        1.76101        0.366064        0.329082        0.329082 
        1.76715        0.363568        0.326387        0.326387 
        1.77329        0.360375        0.323718        0.323718 
        1.77943        0.357463        0.321079        0.321079 
        1.78557        0.355803        0.318473        0.318473 
        1.79171        0.352733        0.315896        0.315896 
        1.79785        0.349372        0.313347        0.313347 
        1.80399        0.345911        0.310827        0.310827 
        1.81012        0.344214        0.308338        0.308338 
        1.81625        0.342025        0.305877        0.305877 
        1.82239        0.339637        0.303441        0.303441 
        1.82853         0.33625        0.301032        0.301032 
        1.83466        0.333618        0.298651        0.298651 
        1.84078        0.330793        0.296299        0.296299 
        1.84692        0.328694        0.293969        0.293969 
        1.85306        0.326343        0.291661        0.291661 
         1.8592        0.323861        0.289382        0.289382 
        1.86533        0.321821        0.287129        0.287129 
        1.87147        0.318678        0.284897        0.284897 
