# k  (h/Mpc)    Pcb(k)  (Mpc/h)^3    Pcb_linear(k) (Mpc/h)^3    Pcb_NL(k) (Mpc/h)^3   ShotnoiseSubtracted = false
     0.00783031         5808.48         5841.49         5841.49 
       0.013688         7252.88         7386.02         7386.02 
       0.019231         7541.22         7613.24         7613.24 
      0.0249154         7180.71         7170.44         7170.44 
      0.0312784         6318.56          6352.8          6352.8 
      0.0375637         5485.47         5543.23         5543.23 
      0.0433917         4921.08         4931.41         4931.41 
      0.0492413         4437.99         4475.39         4475.39 
      0.0555754         4107.75         4117.93         4117.93 
      0.0619321         3738.94         3830.01         3830.01 
       0.067871         3522.46         3567.58         3567.58 
      0.0738098         3257.28         3282.92         3282.92 
      0.0800417         2951.15         2962.08         2962.08 
      0.0862327         2628.77         2645.43         2645.43 
      0.0921407         2364.48         2373.12         2373.12 
      0.0982031         2157.36         2143.55         2143.55 
       0.104506         1953.73         1963.69         1963.69 
       0.110769         1830.26         1834.81         1834.81 
       0.116806         1759.32         1740.07         1740.07 
       0.122832         1655.06         1655.73         1655.73 
       0.129052         1570.24          1564.6          1564.6 
       0.135211         1491.17         1463.88         1463.88 
       0.141259         1373.94         1357.26         1357.26 
       0.147318         1257.87         1250.63         1250.63 
       0.153489         1173.99         1151.29         1151.29 
       0.159709         1110.35         1067.13         1067.13 
       0.165845         1021.75         1001.62         1001.62 
       0.171974         997.869         951.049         951.049 
       0.178125         959.515         909.978         909.978 
       0.184229          899.98         872.972         872.972 
        0.19034         876.482         835.077         835.077 
       0.196428         841.501         794.305         794.305 
       0.202534         782.946         750.777         750.777 
       0.208729         759.495         706.186         706.186 
       0.214876         724.949          664.36          664.36 
       0.220989         675.732         627.378         627.378 
       0.227147         659.927         595.759         595.759 
        0.23329         635.597         569.463         569.463 
       0.239377         621.914         547.211         547.211 
       0.245482          592.08         526.958         526.958 
       0.251667         568.594         506.982         506.982 
       0.257832         560.807         486.643         486.643 
       0.263955         529.467          465.87          465.87 
       0.270079         509.926         444.985         444.985 
        0.27624         487.054         424.644         424.644 
       0.282372         474.268         405.819         405.819 
        0.28843         469.852         389.029         389.029 
       0.294538         446.941         373.985         373.985 
       0.300721         431.435         360.382         360.382 
        0.30691         424.652         347.902         347.902 
       0.313033         406.857         336.164         336.164 
       0.319153          399.64         324.667         324.667 
       0.325316         388.973         313.155         313.155 
        0.33145         378.938         301.807         301.807 
       0.337538         365.768         290.821         290.821 
       0.343633         354.156         280.317         280.317 
       0.349808         344.626         270.337         270.337 
       0.355968         337.078         261.124         261.124 
       0.362074         328.341         252.672         252.672 
       0.368217         323.687          244.74          244.74 
       0.374374         316.541          237.21          237.21 
       0.380519         303.797          229.97          229.97 
       0.386598          298.77         223.002         223.002 
       0.392688         291.444         216.178         216.178 
        0.39888         284.748         209.425         209.425 
       0.405048         279.185         202.938         202.938 
       0.411186         276.164         196.762         196.762 
       0.417313         270.357         190.909         190.909 
       0.423458         263.263         185.358         185.358 
       0.429607         257.485          180.09          180.09 
       0.435692         252.753         175.122         175.122 
       0.441815         247.701         170.326         170.326 
       0.447964         240.698         165.674         165.674 
       0.454126          236.88         161.151         161.151 
       0.460267         234.233         156.784         156.784 
       0.466387          229.53          152.57          152.57 
        0.47254         226.697         148.482         148.482 
       0.478662         219.729         144.571         144.571 
       0.484765         217.063         140.834         140.834 
       0.490885         213.721         137.241         137.241 
       0.497035         211.307         133.771         133.771 
       0.503198         208.055         130.426         130.426 
       0.509342         202.584         127.208         127.208 
       0.515458         200.278          124.11          124.11 
       0.521598         195.594         121.094         121.094 
       0.527764         193.569         118.159         118.159 
       0.533884         192.811         115.338         115.338 
           0.54         187.984         112.614         112.614 
       0.546137         183.766         109.973         109.973 
       0.552299         182.092         107.411         107.411 
       0.558452         178.834          104.94          104.94 
       0.564573         177.859         102.564         102.564 
       0.570708         173.518         100.259         100.259 
       0.576825         171.335         98.0343         98.0343 
       0.582926         169.534         95.8822         95.8822 
       0.589034         167.041         93.7903         93.7903 
       0.595184         165.506         91.7458         91.7458 
       0.601379         161.777         89.7481         89.7481 
       0.607522         159.191         87.8268         87.8268 
       0.613639         157.888         85.9719         85.9719 
       0.619772         155.878         84.1682         84.1682 
       0.625918         154.599         82.4146         82.4146 
       0.632068         151.295         80.7113         80.7113 
       0.638161         149.365         79.0721         79.0721 
         0.6443         148.746          77.467          77.467 
       0.650464         145.849          75.901          75.901 
       0.656582         145.196         74.3899         74.3899 
       0.662703         143.479         72.9201         72.9201 
       0.668861         140.563         71.4822         71.4822 
       0.675024         140.562         70.0826         70.0826 
       0.681124         138.264         68.7353         68.7353 
       0.687237         136.048         67.4213         67.4213 
       0.693381          135.31         66.1361         66.1361 
       0.699536         133.539         64.8828         64.8828 
       0.705665         131.717         63.6677         63.6677 
       0.711789         130.066         62.4854         62.4854 
       0.717957         128.696         61.3254         61.3254 
        0.72409         127.738         60.2018         60.2018 
       0.730186         127.115         59.1135         59.1135 
       0.736317         124.918         58.0466         58.0466 
       0.742472          123.37         57.0025         57.0025 
       0.748622         121.487         55.9854         55.9854 
        0.75476         121.388         54.9957         54.9957 
       0.760888         120.455         54.0317         54.0317 
       0.767043         118.292         53.0874         53.0874 
       0.773185         116.934         52.1679         52.1679 
       0.779291         115.666         51.2758         51.2758 
       0.785407         114.395         50.4035         50.4035 
       0.791564         114.033         49.5463         49.5463 
       0.797719         112.649         48.7097         48.7097 
       0.803834         111.919         47.8979         47.8979 
       0.809972         111.183          47.102          47.102 
       0.816124         109.752         46.3227         46.3227 
       0.822261         108.441         45.5634         45.5634 
       0.828378         108.209         44.8235         44.8235 
       0.834502         106.493         44.0997         44.0997 
       0.840667         105.969         43.3874         43.3874 
       0.846816         104.993         42.6931         42.6931 
       0.852925         103.883         42.0185         42.0185 
       0.859047         103.309         41.3572         41.3572 
       0.865192         102.009         40.7082         40.7082 
       0.871341          100.96         40.0729         40.0729 
       0.877463         100.342         39.4542         39.4542 
       0.883569         100.079         38.8502         38.8502 
       0.889708         99.1572          38.256          38.256 
       0.895864         98.2488         37.6729         37.6729 
       0.902008         97.3194         37.1033         37.1033 
       0.908149         96.1485         36.5459         36.5459 
       0.914301         95.9829         35.9993         35.9993 
       0.920448          95.523         35.4644         35.4644 
       0.926574         93.6611         34.9425         34.9425 
       0.932687          93.445         34.4323         34.4323 
       0.938823         92.6749         33.9306         33.9306 
       0.944975         91.6043         33.4378         33.4378 
       0.951105         90.9201         32.9567         32.9567 
       0.957225         90.8403         32.4861         32.4861 
       0.963368         89.7713         32.0231         32.0231 
       0.969511         89.0333         31.5693         31.5693 
       0.975621         88.3773         31.1268         31.1268 
       0.981748         87.5378         30.6917         30.6917 
       0.987916         86.9494         30.2623         30.2623 
        0.99406         86.5814         29.8428         29.8428 
        1.00019         85.5446         29.4322         29.4322 
        1.00632         85.0182         29.0298         29.0298 
        1.01246          84.437         28.6344         28.6344 
        1.01859         84.0721          28.247          28.247 
        1.02471         83.1888         27.8674         27.8674 
        1.03085         82.5472         27.4936         27.4936 
        1.03698         82.0468         27.1274         27.1274 
        1.04314         81.4428         26.7665         26.7665 
        1.04929          80.945          26.413          26.413 
        1.05541         80.4109         26.0674         26.0674 
        1.06154         79.9385         25.7272         25.7272 
        1.06769         79.0735         25.3927         25.3927 
        1.07382         78.5001         25.0652         25.0652 
        1.07993         78.2389         24.7443         24.7443 
        1.08607         77.5961         24.4278         24.4278 
        1.09222         77.3171         24.1165         24.1165 
        1.09836         76.5334         23.8111         23.8111 
        1.10449         76.1378         23.5114         23.5114 
        1.11063          75.481         23.2166         23.2166 
        1.11677         75.1909         22.9269         22.9269 
         1.1229         74.4944         22.6428         22.6428 
        1.12903         74.2926         22.3633         22.3633 
        1.13518         74.0118         22.0883         22.0883 
        1.14131         73.2672         21.8181         21.8181 
        1.14745         72.6741         21.5527         21.5527 
        1.15359         71.9248         21.2917         21.2917 
        1.15973         71.9005         21.0349         21.0349 
        1.16584         71.3558         20.7836         20.7836 
        1.17197         70.6895          20.536          20.536 
        1.17811         70.3397         20.2918         20.2918 
        1.18424         69.5774         20.0523         20.0523 
        1.19038         69.5179          19.816          19.816 
        1.19652         69.1429         19.5836         19.5836 
        1.20267         68.5733          19.355          19.355 
        1.20881         68.1293         19.1302         19.1302 
        1.21495          67.829         18.9093         18.9093 
        1.22108         67.5313         18.6919         18.6919 
         1.2272         66.8863         18.4786         18.4786 
        1.23334         66.5813          18.268          18.268 
        1.23949         66.1798         18.0604         18.0604 
        1.24562         65.6796         17.8565         17.8565 
        1.25174         65.2624         17.6561         17.6561 
        1.25789         65.3086         17.4582         17.4582 
        1.26402         64.6867         17.2638         17.2638 
        1.27014         64.3826         17.0728         17.0728 
        1.27628         63.7558         16.8841         16.8841 
        1.28244         63.6148          16.698          16.698 
        1.28858         63.1924         16.5149         16.5149 
        1.29471         62.8451          16.335          16.335 
        1.30084         62.2585          16.158          16.158 
        1.30697         62.2796         15.9834         15.9834 
        1.31312          61.702         15.8111         15.8111 
        1.31925         61.2512         15.6419         15.6419 
        1.32537         60.9636         15.4754         15.4754 
        1.33151         60.6606         15.3107         15.3107 
        1.33765         60.2939         15.1485         15.1485 
        1.34378         60.1043          14.989          14.989 
        1.34992         59.6687         14.8317         14.8317 
        1.35606         59.2498         14.6764         14.6764 
         1.3622         58.9505         14.5236         14.5236 
        1.36833         58.6209         14.3733         14.3733 
        1.37445         58.1301         14.2253         14.2253 
        1.38059         58.0472         14.0789         14.0789 
        1.38675         57.3989         13.9343         13.9343 
        1.39288         57.4123         13.7922         13.7922 
        1.39901         56.9079         13.6523         13.6523 
        1.40515         56.6872         13.5139         13.5139 
         1.4113         56.5845         13.3776         13.3776 
        1.41742         56.1707         13.2437         13.2437 
        1.42355         55.7389         13.1114         13.1114 
         1.4297         55.4692         12.9805         12.9805 
        1.43585         55.0783         12.8514         12.8514 
        1.44198          54.762         12.7246         12.7246 
        1.44809          54.458         12.5998         12.5998 
        1.45423         54.2543         12.4762         12.4762 
        1.46036         53.9413         12.3545         12.3545 
        1.46649         53.7904         12.2344         12.2344 
        1.47263         53.4123         12.1158         12.1158 
        1.47877          53.184         11.9989         11.9989 
        1.48491         52.9514         11.8833         11.8833 
        1.49104         52.4732         11.7695         11.7695 
        1.49718         52.2892         11.6571         11.6571 
        1.50333         52.1098          11.546          11.546 
        1.50947         51.7292         11.4367         11.4367 
         1.5156         51.5184         11.3289         11.3289 
        1.52172         51.1505         11.2225         11.2225 
        1.52787         50.8986         11.1172         11.1172 
          1.534         50.6781         11.0135         11.0135 
        1.54013         50.5311         10.9112         10.9112 
        1.54627         50.0414           10.81           10.81 
        1.55241         49.7963         10.7101         10.7101 
        1.55855         49.7224         10.6116         10.6116 
        1.56467         49.3522         10.5146         10.5146 
         1.5708         49.2074         10.4186         10.4186 
        1.57695         48.9101         10.3236         10.3236 
        1.58308         48.5554         10.2301         10.2301 
        1.58922         48.3368         10.1376         10.1376 
        1.59535         48.1766         10.0463         10.0463 
         1.6015          48.094         9.95607         9.95607 
        1.60764         47.7231         9.86696         9.86696 
        1.61376         47.4181          9.7792          9.7792 
        1.61989         47.1492         9.69245         9.69245 
        1.62604         46.9453         9.60656         9.60656 
        1.63218         46.6912         9.52177         9.52177 
        1.63831         46.5544         9.43821         9.43821 
        1.64444         46.2541         9.35563         9.35563 
        1.65059         46.0636         9.27385         9.27385 
        1.65673         45.7453         9.19314         9.19314 
        1.66285         45.6843         9.11362         9.11362 
        1.66898           45.21         9.03503         9.03503 
        1.67512          45.155         8.95722         8.95722 
        1.68127         44.9024         8.88026         8.88026 
         1.6874         44.6602         8.80438         8.80438 
        1.69353         44.5448         8.72944         8.72944 
        1.69967         44.3522          8.6552          8.6552 
        1.70581          43.966         8.58186         8.58186 
        1.71193         43.7719         8.50966         8.50966 
        1.71806         43.6296         8.43813         8.43813 
        1.72421         43.3932         8.36729         8.36729 
        1.73035         43.1751         8.29735         8.29735 
        1.73649         42.8693         8.22823         8.22823 
        1.74262         42.5975         8.15996         8.15996 
        1.74876         42.5138         8.09243         8.09243 
        1.75489         42.2525          8.0258          8.0258 
        1.76101         42.0927         7.95995         7.95995 
        1.76715         42.0147         7.89475         7.89475 
        1.77329         41.5929          7.8302          7.8302 
        1.77943          41.608         7.76636         7.76636 
        1.78557         41.3667         7.70333         7.70333 
        1.79171         41.1684         7.64099         7.64099 
        1.79785         40.9258         7.57933         7.57933 
        1.80399         40.7355         7.51837         7.51837 
        1.81012         40.5937         7.45817         7.45817 
        1.81625         40.2514         7.39866         7.39866 
        1.82239         40.0919         7.33972         7.33972 
        1.82853         39.9762         7.28145         7.28145 
        1.83466         39.7263         7.22387         7.22387 
        1.84078         39.5581         7.16699         7.16699 
        1.84692         39.3455         7.11062         7.11062 
        1.85306         39.1127          7.0548          7.0548 
         1.8592         39.0297         6.99967         6.99967 
        1.86533          38.831         6.94516         6.94516 
        1.87147         38.6225         6.89117         6.89117 
