# k  (h/Mpc)    Pcb(k)  (Mpc/h)^3    Pcb_linear(k) (Mpc/h)^3    Pcb_NL(k) (Mpc/h)^3   ShotnoiseSubtracted = false
     0.00783031         10722.7         10776.3         10776.3 
       0.013688         13308.7         13622.8         13622.8 
       0.019231         13853.5         14040.6         14040.6 
      0.0249154         13234.3         13223.3         13223.3 
      0.0312784         11599.2           11715           11715 
      0.0375637         10047.2         10221.9         10221.9 
      0.0433917         9030.62         9093.54         9093.54 
      0.0492413         8128.32         8252.54         8252.54 
      0.0555754         7524.37         7593.34         7593.34 
      0.0619321         6803.92         7062.38         7062.38 
       0.067871         6422.98         6578.43         6578.43 
      0.0738098         5956.84         6053.52         6053.52 
      0.0800417         5396.66         5461.88         5461.88 
      0.0862327         4809.86         4877.99         4877.99 
      0.0921407         4340.09         4375.86         4375.86 
      0.0982031         3974.83         3952.55         3952.55 
       0.104506          3594.6         3620.89         3620.89 
       0.110769         3370.43         3383.24         3383.24 
       0.116806         3245.93         3208.54         3208.54 
       0.122832         3052.84         3053.02         3053.02 
       0.129052         2888.18         2884.98         2884.98 
       0.135211         2764.47         2699.26         2699.26 
       0.141259         2544.33         2502.66         2502.66 
       0.147318         2336.22         2306.05         2306.05 
       0.153489         2191.68         2122.87         2122.87 
       0.159709         2094.13         1967.69         1967.69 
       0.165845         1923.44          1846.9          1846.9 
       0.171974          1883.9         1753.65         1753.65 
       0.178125         1822.91         1677.91         1677.91 
       0.184229          1693.1         1609.68         1609.68 
        0.19034         1659.86          1539.8          1539.8 
       0.196428         1603.78         1464.62         1464.62 
       0.202534         1496.68         1384.36         1384.36 
       0.208729         1461.65         1302.14         1302.14 
       0.214876         1395.32         1225.02         1225.02 
       0.220989         1314.72         1156.82         1156.82 
       0.227147         1283.65         1098.52         1098.52 
        0.23329          1236.4         1050.03         1050.03 
       0.239377         1223.54            1009            1009 
       0.245482         1165.35          971.66          971.66 
       0.251667         1121.92         934.825         934.825 
       0.257832         1106.77         897.322         897.322 
       0.263955         1051.18         859.018         859.018 
       0.270079         1018.79         820.508         820.508 
        0.27624         975.455         783.001         783.001 
       0.282372         959.123         748.291         748.291 
        0.28843         947.936          717.33          717.33 
       0.294538         901.513         689.591         689.591 
       0.300721         879.902         664.508         664.508 
        0.30691         863.348         641.496         641.496 
       0.313033          827.77         619.852         619.852 
       0.319153         816.278         598.653         598.653 
       0.325316         804.271         577.426         577.426 
        0.33145         786.876         556.503         556.503 
       0.337538         759.367         536.245         536.245 
       0.343633         738.929         516.877         516.877 
       0.349808         722.938         498.474         498.474 
       0.355968         709.553         481.486         481.486 
       0.362074         686.622         465.901         465.901 
       0.368217         683.751         451.276         451.276 
       0.374374         672.561         437.392         437.392 
       0.380519         647.229         424.042         424.042 
       0.386598         641.193         411.193         411.193 
       0.392688         627.135         398.611         398.611 
        0.39888          611.07         386.158         386.158 
       0.405048         600.446         374.197         374.197 
       0.411186         598.359         362.809         362.809 
       0.417313         592.607         352.017         352.017 
       0.423458         574.837         341.782         341.782 
       0.429607         559.363         332.067         332.067 
       0.435692         552.132         322.908         322.908 
       0.441815         543.137         314.065         314.065 
       0.447964         532.696         305.485         305.485 
       0.454126         526.634         297.147         297.147 
       0.460267         518.249         289.093         289.093 
       0.466387         510.036         281.324         281.324 
        0.47254         502.146         273.785         273.785 
       0.478662         492.458         266.574         266.574 
       0.484765         487.272         259.683         259.683 
       0.490885         482.419         253.058         253.058 
       0.497035         472.858          246.66          246.66 
       0.503198         472.208         240.492         240.492 
       0.509342         461.666         234.559         234.559 
       0.515458         453.723         228.846         228.846 
       0.521598         447.763         223.285         223.285 
       0.527764          440.42         217.872         217.872 
       0.533884         438.183         212.672         212.672 
           0.54         432.385         207.649         207.649 
       0.546137         423.906         202.779         202.779 
       0.552299         423.049         198.055         198.055 
       0.558452         416.344         193.499         193.499 
       0.564573         412.265         189.117         189.117 
       0.570708         407.521         184.868         184.868 
       0.576825         399.862         180.765         180.765 
       0.582926         397.569         176.797         176.797 
       0.589034         391.673          172.94          172.94 
       0.595184         388.897          169.17          169.17 
       0.601379         382.572         165.486         165.486 
       0.607522          375.72         161.944         161.944 
       0.613639         374.198         158.523         158.523 
       0.619772         372.723         155.198         155.198 
       0.625918         366.141         151.964         151.964 
       0.632068         362.582         148.823         148.823 
       0.638161         359.316         145.801         145.801 
         0.6443         355.848         142.841         142.841 
       0.650464         351.017         139.954         139.954 
       0.656582         347.834         137.167         137.167 
       0.662703         345.334         134.457         134.457 
       0.668861         339.878         131.806         131.806 
       0.675024         338.006         129.225         129.225 
       0.681124         333.909         126.741         126.741 
       0.687237         331.571         124.318         124.318 
       0.693381         327.345         121.948         121.948 
       0.699536         325.116         119.637         119.637 
       0.705665         321.621         117.397         117.397 
       0.711789         319.565         115.217         115.217 
       0.717957          315.62         113.078         113.078 
        0.72409         312.138         111.006         111.006 
       0.730186         313.868         108.999         108.999 
       0.736317         308.149         107.032         107.032 
       0.742472         304.931         105.107         105.107 
       0.748622          301.53         103.231         103.231 
        0.75476         301.233         101.406         101.406 
       0.760888         297.705          99.629          99.629 
       0.767043         294.588         97.8878         97.8878 
       0.773185         293.055         96.1924         96.1924 
       0.779291         288.646         94.5473         94.5473 
       0.785407          287.61         92.9389         92.9389 
       0.791564         284.923         91.3583         91.3583 
       0.797719         280.495         89.8156         89.8156 
       0.803834         282.638         88.3189         88.3189 
       0.809972         278.509         86.8513         86.8513 
       0.816124         274.968         85.4143         85.4143 
       0.822261         272.669         84.0142         84.0142 
       0.828378         272.243           82.65           82.65 
       0.834502         268.218         81.3154         81.3154 
       0.840667         268.256          80.002          80.002 
       0.846816         263.486         78.7216         78.7216 
       0.852925         263.305         77.4778         77.4778 
       0.859047         260.635         76.2585         76.2585 
       0.865192         260.161         75.0618         75.0618 
       0.871341         256.458         73.8903         73.8903 
       0.877463         254.446         72.7494         72.7494 
       0.883569         253.705         71.6358         71.6358 
       0.889708         251.244         70.5402         70.5402 
       0.895864         249.157         69.4649         69.4649 
       0.902008         247.059         68.4146         68.4146 
       0.908149         245.105         67.3869         67.3869 
       0.914301         243.748          66.379          66.379 
       0.920448         242.847         65.3928         65.3928 
       0.926574         240.364         64.4304         64.4304 
       0.932687         239.164         63.4896         63.4896 
       0.938823          237.02         62.5645         62.5645 
       0.944975         235.933         61.6559         61.6559 
       0.951105         233.517         60.7688         60.7688 
       0.957225          231.71          59.901          59.901 
       0.963368          231.22         59.0473         59.0473 
       0.969511         227.364         58.2105         58.2105 
       0.975621         226.301         57.3945         57.3945 
       0.981748         225.233         56.5923         56.5923 
       0.987916         224.215         55.8006         55.8006 
        0.99406         222.141         55.0271         55.0271 
        1.00019         220.764           54.27           54.27 
        1.00632          219.97          53.528          53.528 
        1.01246         218.051         52.7988         52.7988 
        1.01859         215.876         52.0846         52.0846 
        1.02471          214.25         51.3847         51.3847 
        1.03085         213.201         50.6953         50.6953 
        1.03698         211.837         50.0202         50.0202 
        1.04314         211.447         49.3546         49.3546 
        1.04929         209.895         48.7029         48.7029 
        1.05541         208.188         48.0656         48.0656 
        1.06154          206.44         47.4384         47.4384 
        1.06769         204.966         46.8215         46.8215 
        1.07382         204.571         46.2177         46.2177 
        1.07993          202.18          45.626          45.626 
        1.08607         201.055         45.0424         45.0424 
        1.09222         199.784         44.4684         44.4684 
        1.09836         198.974         43.9053         43.9053 
        1.10449         197.118         43.3526         43.3526 
        1.11063         195.832         42.8089         42.8089 
        1.11677         194.926         42.2749         42.2749 
         1.1229          193.47          41.751          41.751 
        1.12903         192.524         41.2356         41.2356 
        1.13518         191.012         40.7285         40.7285 
        1.14131         190.115         40.2304         40.2304 
        1.14745         188.273          39.741          39.741 
        1.15359         186.683         39.2597         39.2597 
        1.15973         186.415         38.7862         38.7862 
        1.16584         185.469         38.3228         38.3228 
        1.17197         184.206         37.8663         37.8663 
        1.17811         182.499          37.416          37.416 
        1.18424         181.589         36.9744         36.9744 
        1.19038         180.428         36.5387         36.5387 
        1.19652         178.877         36.1102         36.1102 
        1.20267          178.06         35.6887         35.6887 
        1.20881         176.709         35.2741         35.2741 
        1.21495         176.419         34.8668         34.8668 
        1.22108         174.982          34.466          34.466 
         1.2272         173.527         34.0725         34.0725 
        1.23334         172.842         33.6844         33.6844 
        1.23949         172.199         33.3014         33.3014 
        1.24562         170.803         32.9255         32.9255 
        1.25174         169.692         32.5561         32.5561 
        1.25789          168.35         32.1912         32.1912 
        1.26402         168.181         31.8326         31.8326 
        1.27014         167.116         31.4805         31.4805 
        1.27628          165.25         31.1326         31.1326 
        1.28244         164.714         30.7894         30.7894 
        1.28858         163.579         30.4518         30.4518 
        1.29471         162.716         30.1201         30.1201 
        1.30084         161.609         29.7937         29.7937 
        1.30697         160.538         29.4717         29.4717 
        1.31312         159.552          29.154          29.154 
        1.31925         158.492          28.842          28.842 
        1.32537         157.928          28.535          28.535 
        1.33151         156.945         28.2313         28.2313 
        1.33765         155.463         27.9323         27.9323 
        1.34378         155.303         27.6382         27.6382 
        1.34992         154.342         27.3482         27.3482 
        1.35606         153.294         27.0618         27.0618 
         1.3622         152.807           26.78           26.78 
        1.36833         151.017          26.503          26.503 
        1.37445         150.955           26.23           26.23 
        1.38059         149.657         25.9601         25.9601 
        1.38675         148.827         25.6933         25.6933 
        1.39288         147.696         25.4315         25.4315 
        1.39901         146.966         25.1734         25.1734 
        1.40515         146.374         24.9183         24.9183 
         1.4113         145.334         24.6669         24.6669 
        1.41742         144.257           24.42           24.42 
        1.42355         144.182          24.176          24.176 
         1.4297          142.78         23.9346         23.9346 
        1.43585         142.026         23.6967         23.6967 
        1.44198         140.672         23.4629         23.4629 
        1.44809         140.035         23.2328         23.2328 
        1.45423         139.624         23.0049         23.0049 
        1.46036         138.523         22.7805         22.7805 
        1.46649         137.692          22.559          22.559 
        1.47263         137.207         22.3403         22.3403 
        1.47877          135.96         22.1247         22.1247 
        1.48491         135.361         21.9116         21.9116 
        1.49104         133.817         21.7018         21.7018 
        1.49718         133.777         21.4945         21.4945 
        1.50333         133.197         21.2897         21.2897 
        1.50947         132.226          21.088          21.088 
         1.5156         131.281         20.8892         20.8892 
        1.52172         130.673         20.6931         20.6931 
        1.52787         129.961          20.499          20.499 
          1.534         129.222         20.3077         20.3077 
        1.54013         128.486         20.1191         20.1191 
        1.54627         127.555         19.9325         19.9325 
        1.55241         127.146         19.7483         19.7483 
        1.55855         126.359         19.5667         19.5667 
        1.56467         125.452         19.3879         19.3879 
         1.5708         124.488         19.2108         19.2108 
        1.57695         124.119         19.0357         19.0357 
        1.58308          123.23         18.8632         18.8632 
        1.58922         123.108         18.6927         18.6927 
        1.59535         122.336         18.5244         18.5244 
         1.6015         121.075          18.358          18.358 
        1.60764         120.375         18.1937         18.1937 
        1.61376         119.813         18.0318         18.0318 
        1.61989         119.272         17.8719         17.8719 
        1.62604         118.448         17.7135         17.7135 
        1.63218         117.934         17.5572         17.5572 
        1.63831         117.106         17.4031         17.4031 
        1.64444         116.371         17.2508         17.2508 
        1.65059         115.632            17.1            17.1 
        1.65673         115.365         16.9512         16.9512 
        1.66285         114.804         16.8046         16.8046 
        1.66898          113.76         16.6597         16.6597 
        1.67512         113.306         16.5162         16.5162 
        1.68127         112.647         16.3743         16.3743 
         1.6874          111.71         16.2344         16.2344 
        1.69353         111.232         16.0962         16.0962 
        1.69967          110.57         15.9593         15.9593 
        1.70581          110.26         15.8241         15.8241 
        1.71193         109.365         15.6909         15.6909 
        1.71806         108.675          15.559          15.559 
        1.72421         108.092         15.4284         15.4284 
        1.73035          107.59         15.2995         15.2995 
        1.73649         106.812          15.172          15.172 
        1.74262         106.428         15.0461         15.0461 
        1.74876         105.577         14.9216         14.9216 
        1.75489         105.192         14.7987         14.7987 
        1.76101         104.527         14.6773         14.6773 
        1.76715         103.711         14.5571         14.5571 
        1.77329         103.353         14.4381         14.4381 
        1.77943         102.609         14.3204         14.3204 
        1.78557         102.243         14.2041         14.2041 
        1.79171         101.756         14.0892         14.0892 
        1.79785         100.762         13.9755         13.9755 
        1.80399         100.624         13.8631         13.8631 
        1.81012         99.6765         13.7521         13.7521 
        1.81625         99.2896         13.6424         13.6424 
        1.82239         98.7852         13.5337         13.5337 
        1.82853           98.23         13.4262         13.4262 
        1.83466         97.4337         13.3201         13.3201 
        1.84078         97.1446         13.2152         13.2152 
        1.84692         96.8204         13.1113         13.1113 
        1.85306         96.0711         13.0083         13.0083 
         1.8592         95.7184         12.9067         12.9067 
        1.86533         94.9866         12.8062         12.8062 
        1.87147         94.5661         12.7066         12.7066 
