# k  (h/Mpc)    Pcb(k)  (Mpc/h)^3    Pcb_linear(k) (Mpc/h)^3    Pcb_NL(k) (Mpc/h)^3   ShotnoiseSubtracted = false
     0.00783031         6170.85         6205.52         6205.52 
       0.013688         7701.43         7846.14         7846.14 
       0.019231         8008.44         8087.45         8087.45 
      0.0249154         7627.82         7617.03         7617.03 
      0.0312784         6709.81         6748.44         6748.44 
      0.0375637            5824         5888.45         5888.45 
      0.0433917         5225.73         5238.52         5238.52 
      0.0492413         4711.92         4754.09         4754.09 
      0.0555754         4361.53         4374.37         4374.37 
      0.0619321         3967.61         4068.52         4068.52 
       0.067871          3738.7         3789.74         3789.74 
      0.0738098         3458.02         3487.36         3487.36 
      0.0800417         3133.09         3146.53         3146.53 
      0.0862327         2790.88         2810.16         2810.16 
      0.0921407         2510.88          2520.9          2520.9 
      0.0982031         2291.67         2277.03         2277.03 
       0.104506         2075.01         2085.97         2085.97 
       0.110769         1944.03         1949.07         1949.07 
       0.116806         1869.16         1848.42         1848.42 
       0.122832         1758.15         1758.83         1758.83 
       0.129052         1667.79         1662.03         1662.03 
       0.135211         1584.86         1555.04         1555.04 
       0.141259          1460.1         1441.77         1441.77 
       0.147318         1336.89         1328.51         1328.51 
       0.153489         1248.31         1222.98         1222.98 
       0.159709         1181.69         1133.58         1133.58 
       0.165845         1087.06         1063.99         1063.99 
       0.171974         1062.15         1010.27         1010.27 
       0.178125         1021.82         966.643         966.643 
       0.184229         957.532         927.332         927.332 
        0.19034          933.05         887.077         887.077 
       0.196428         896.331         843.767         843.767 
       0.202534         833.971         797.528         797.528 
       0.208729         809.659          750.16          750.16 
       0.214876         772.895          705.73          705.73 
       0.220989          720.88         666.445         666.445 
       0.227147         704.151         632.857         632.857 
        0.23329         678.256         604.923         604.923 
       0.239377         664.308         581.286         581.286 
       0.245482         632.333         559.772         559.772 
       0.251667         607.406         538.552         538.552 
       0.257832         599.274         516.947         516.947 
       0.263955         565.909          494.88          494.88 
       0.270079         545.269         472.694         472.694 
        0.27624         520.936         451.086         451.086 
       0.282372           507.7          431.09          431.09 
        0.28843         503.083         413.254         413.254 
       0.294538         478.397         397.273         397.273 
       0.300721         462.229         382.823         382.823 
        0.30691         454.958         369.566         369.566 
       0.313033         435.838         357.097         357.097 
       0.319153         428.169         344.884         344.884 
       0.325316          417.32         332.655         332.655 
        0.33145         406.804         320.601         320.601 
       0.337538          392.57          308.93          308.93 
       0.343633         380.182         297.773         297.773 
       0.349808         370.131          287.17          287.17 
       0.355968         362.218         277.384         277.384 
       0.362074         352.542         268.405         268.405 
       0.368217         347.942          259.98          259.98 
       0.374374         340.364         251.981         251.981 
       0.380519         326.739          244.29          244.29 
       0.386598          321.57         236.888         236.888 
       0.392688         313.834          229.64          229.64 
        0.39888         306.431         222.466         222.466 
       0.405048         300.572         215.575         215.575 
       0.411186         297.629         209.014         209.014 
       0.417313         291.615         202.797         202.797 
       0.423458         283.882         196.901         196.901 
       0.429607          277.51         191.304         191.304 
       0.435692         272.426         186.027         186.027 
       0.441815         267.268         180.933         180.933 
       0.447964         259.839          175.99          175.99 
       0.454126         255.857         171.186         171.186 
       0.460267         252.836         166.546         166.546 
       0.466387         247.875         162.071         162.071 
        0.47254         244.771         157.728         157.728 
       0.478662         237.452         153.573         153.573 
       0.484765         234.632         149.604         149.604 
       0.490885         231.241         145.787         145.787 
       0.497035         228.407         142.101         142.101 
       0.503198         225.272         138.547         138.547 
       0.509342         219.329         135.129         135.129 
       0.515458         216.808         131.838         131.838 
       0.521598         211.821         128.635         128.635 
       0.527764         209.596         125.516         125.516 
       0.533884         208.865          122.52          122.52 
           0.54         203.801         119.627         119.627 
       0.546137         199.246         116.821         116.821 
       0.552299         197.614           114.1           114.1 
       0.558452         194.108         111.475         111.475 
       0.564573         192.963          108.95          108.95 
       0.570708          188.46         106.503         106.503 
       0.576825         185.993         104.139         104.139 
       0.582926         184.045         101.853         101.853 
       0.589034          181.41         99.6306         99.6306 
       0.595184         179.842         97.4588         97.4588 
       0.601379         175.912         95.3367         95.3367 
       0.607522         173.027         93.2958         93.2958 
       0.613639         171.647         91.3253         91.3253 
       0.619772         169.639         89.4094         89.4094 
       0.625918         168.229         87.5466         87.5466 
       0.632068         164.576         85.7372         85.7372 
       0.638161         162.624         83.9959         83.9959 
         0.6443         161.939         82.2909         82.2909 
       0.650464         158.816         80.6274         80.6274 
       0.656582         158.052         79.0222         79.0222 
       0.662703         156.271         77.4608         77.4608 
       0.668861         153.143         75.9334         75.9334 
       0.675024         153.138         74.4466         74.4466 
       0.681124         150.678         73.0154         73.0154 
       0.687237         148.417         71.6196         71.6196 
       0.693381         147.515         70.2544         70.2544 
       0.699536         145.615          68.923          68.923 
       0.705665         143.705         67.6323         67.6323 
       0.711789         141.933         66.3764         66.3764 
       0.717957         140.456         65.1442         65.1442 
        0.72409         139.388         63.9506         63.9506 
       0.730186         138.845         62.7945         62.7945 
       0.736317         136.475         61.6612         61.6612 
       0.742472         134.734          60.552          60.552 
       0.748622         132.682         59.4716         59.4716 
        0.75476         132.771         58.4203         58.4203 
       0.760888         131.619         57.3963         57.3963 
       0.767043         129.312         56.3932         56.3932 
       0.773185          127.86         55.4164         55.4164 
       0.779291         126.457         54.4687         54.4687 
       0.785407         125.179         53.5421         53.5421 
       0.791564         124.661         52.6315         52.6315 
       0.797719         123.137         51.7428         51.7428 
       0.803834         122.511         50.8805         50.8805 
       0.809972           121.7         50.0351         50.0351 
       0.816124         120.083         49.2072         49.2072 
       0.822261         118.727         48.4006         48.4006 
       0.828378         118.495         47.6147         47.6147 
       0.834502         116.593         46.8458         46.8458 
       0.840667         116.059         46.0892         46.0892 
       0.846816         115.006         45.3516         45.3516 
       0.852925         113.784          44.635          44.635 
       0.859047         113.064         43.9325         43.9325 
       0.865192         111.813         43.2431         43.2431 
       0.871341         110.655         42.5682         42.5682 
       0.877463         109.961          41.911          41.911 
       0.883569         109.702         41.2694         41.2694 
       0.889708         108.708         40.6382         40.6382 
       0.895864         107.691         40.0188         40.0188 
       0.902008         106.676         39.4137         39.4137 
       0.908149         105.362         38.8216         38.8216 
       0.914301         105.284         38.2409         38.2409 
       0.920448         104.758         37.6728         37.6728 
       0.926574          102.76         37.1184         37.1184 
       0.932687         102.572         36.5764         36.5764 
       0.938823         101.725         36.0434         36.0434 
       0.944975         100.565           35.52           35.52 
       0.951105         99.8122          35.009          35.009 
       0.957225         99.7447          34.509          34.509 
       0.963368         98.5412         34.0172         34.0172 
       0.969511         97.7546         33.5351         33.5351 
       0.975621         97.0017          33.065          33.065 
       0.981748         96.1301         32.6029         32.6029 
       0.987916         95.5069         32.1467         32.1467 
        0.99406          95.123         31.7011         31.7011 
        1.00019         93.9824          31.265          31.265 
        1.00632         93.4223         30.8375         30.8375 
        1.01246         92.7777         30.4174         30.4174 
        1.01859         92.3637          30.006          30.006 
        1.02471         91.4738         29.6027         29.6027 
        1.03085         90.7082         29.2056         29.2056 
        1.03698         90.1619         28.8166         28.8166 
        1.04314         89.4977         28.4332         28.4332 
        1.04929         89.0447         28.0577         28.0577 
        1.05541         88.4253         27.6906         27.6906 
        1.06154         87.8908         27.3293         27.3293 
        1.06769         87.0149         26.9739         26.9739 
        1.07382         86.3312          26.626          26.626 
        1.07993         86.0632         26.2852         26.2852 
        1.08607         85.3475         25.9489         25.9489 
        1.09222         85.0604         25.6183         25.6183 
        1.09836         84.1607         25.2938         25.2938 
        1.10449         83.7385         24.9754         24.9754 
        1.11063         83.0511         24.6622         24.6622 
        1.11677         82.6603         24.3546         24.3546 
         1.1229          81.953         24.0528         24.0528 
        1.12903         81.7149         23.7558         23.7558 
        1.13518         81.3609         23.4637         23.4637 
        1.14131         80.6144         23.1768         23.1768 
        1.14745         79.9937         22.8948         22.8948 
        1.15359         79.1402         22.6175         22.6175 
        1.15973          79.099         22.3448         22.3448 
        1.16584         78.5136         22.0778         22.0778 
        1.17197         77.8605         21.8148         21.8148 
        1.17811         77.4123         21.5554         21.5554 
        1.18424          76.651          21.301          21.301 
        1.19038         76.6013         21.0499         21.0499 
        1.19652         76.1345         20.8031         20.8031 
        1.20267         75.4974         20.5603         20.5603 
        1.20881         75.0292         20.3214         20.3214 
        1.21495         74.6768         20.0868         20.0868 
        1.22108         74.3367         19.8559         19.8559 
         1.2272         73.6195         19.6292         19.6292 
        1.23334         73.3384         19.4056         19.4056 
        1.23949          72.879          19.185          19.185 
        1.24562         72.3137         18.9684         18.9684 
        1.25174         71.8683         18.7556         18.7556 
        1.25789          71.908         18.5454         18.5454 
        1.26402         71.2263         18.3388         18.3388 
        1.27014          70.898         18.1359         18.1359 
        1.27628         70.2196         17.9355         17.9355 
        1.28244         70.0571         17.7378         17.7378 
        1.28858         69.5977         17.5433         17.5433 
        1.29471         69.2064         17.3522         17.3522 
        1.30084         68.5656         17.1642         17.1642 
        1.30697         68.6036         16.9787         16.9787 
        1.31312           67.98         16.7956         16.7956 
        1.31925         67.5036         16.6159         16.6159 
        1.32537         67.1579          16.439          16.439 
        1.33151         66.8809         16.2641         16.2641 
        1.33765         66.4279         16.0918         16.0918 
        1.34378         66.2119         15.9224         15.9224 
        1.34992         65.7737         15.7553         15.7553 
        1.35606         65.2982         15.5903         15.5903 
         1.3622         64.9997          15.428          15.428 
        1.36833         64.5837         15.2684         15.2684 
        1.37445         64.0554         15.1111         15.1111 
        1.38059         63.9626         14.9556         14.9556 
        1.38675         63.2556          14.802          14.802 
        1.39288         63.2774         14.6511         14.6511 
        1.39901         62.6859         14.5024         14.5024 
        1.40515         62.4678         14.3555         14.3555 
         1.4113         62.2972         14.2106         14.2106 
        1.41742         61.8677         14.0684         14.0684 
        1.42355         61.4405         13.9278         13.9278 
         1.4297         61.1315         13.7888         13.7888 
        1.43585         60.6958         13.6517         13.6517 
        1.44198         60.3574          13.517          13.517 
        1.44809         60.0099         13.3844         13.3844 
        1.45423         59.7586         13.2531         13.2531 
        1.46036         59.3942         13.1238         13.1238 
        1.46649         59.2575         12.9963         12.9963 
        1.47263           58.86         12.8703         12.8703 
        1.47877         58.6059          12.746          12.746 
        1.48491          58.318         12.6233         12.6233 
        1.49104         57.8002         12.5024         12.5024 
        1.49718         57.5889          12.383          12.383 
        1.50333         57.3674          12.265          12.265 
        1.50947         57.0045         12.1488         12.1488 
         1.5156          56.766         12.0343         12.0343 
        1.52172         56.3576         11.9213         11.9213 
        1.52787         56.0383         11.8095         11.8095 
          1.534         55.8273         11.6993         11.6993 
        1.54013          55.644         11.5906         11.5906 
        1.54627         55.1096         11.4831         11.4831 
        1.55241         54.8355          11.377          11.377 
        1.55855         54.7382         11.2724         11.2724 
        1.56467         54.2978         11.1694         11.1694 
         1.5708         54.1721         11.0673         11.0673 
        1.57695         53.8382         10.9665         10.9665 
        1.58308         53.4799         10.8671         10.8671 
        1.58922         53.2322         10.7689         10.7689 
        1.59535         53.0553         10.6719         10.6719 
         1.6015         52.9733          10.576          10.576 
        1.60764         52.5528         10.4814         10.4814 
        1.61376         52.2215         10.3882         10.3882 
        1.61989         51.8983          10.296          10.296 
        1.62604         51.6854         10.2048         10.2048 
        1.63218         51.4145         10.1147         10.1147 
        1.63831         51.2584         10.0259         10.0259 
        1.64444         50.9353          9.9382          9.9382 
        1.65059         50.7311         9.85133         9.85133 
        1.65673         50.3431          9.7656          9.7656 
        1.66285         50.2663         9.68113         9.68113 
        1.66898          49.755         9.59764         9.59764 
        1.67512         49.6884         9.51498         9.51498 
        1.68127         49.4152         9.43323         9.43323 
         1.6874         49.1409         9.35263         9.35263 
        1.69353         48.9986         9.27302         9.27302 
        1.69967         48.7892         9.19416         9.19416 
        1.70581         48.4063         9.11625         9.11625 
        1.71193          48.182         9.03955         9.03955 
        1.71806          47.988         8.96357         8.96357 
        1.72421         47.7412         8.88832         8.88832 
        1.73035         47.5125         8.81403         8.81403 
        1.73649           47.18         8.74061         8.74061 
        1.74262         46.8688         8.66808         8.66808 
        1.74876         46.7946         8.59634         8.59634 
        1.75489         46.4719         8.52556         8.52556 
        1.76101         46.2776         8.45561         8.45561 
        1.76715         46.2375         8.38635         8.38635 
        1.77329         45.7372         8.31779         8.31779 
        1.77943         45.7617         8.24997         8.24997 
        1.78557         45.5073         8.18301         8.18301 
        1.79171         45.2578         8.11679         8.11679 
        1.79785         45.0028          8.0513          8.0513 
        1.80399         44.7771         7.98654         7.98654 
        1.81012         44.6202         7.92259         7.92259 
        1.81625         44.2729         7.85938         7.85938 
        1.82239          44.082         7.79676         7.79676 
        1.82853         43.9582         7.73487         7.73487 
        1.83466         43.6804          7.6737          7.6737 
        1.84078         43.4926         7.61327         7.61327 
        1.84692         43.2375          7.5534          7.5534 
        1.85306         43.0086          7.4941          7.4941 
         1.8592         42.9041         7.43554         7.43554 
        1.86533         42.6812         7.37764         7.37764 
        1.87147         42.4449         7.32029         7.32029 
