# k  (h/Mpc)    Pcb(k)  (Mpc/h)^3    Pcb_linear(k) (Mpc/h)^3    Pcb_NL(k) (Mpc/h)^3   ShotnoiseSubtracted = false
     0.00783031         3920.89         3944.71         3944.71 
       0.013688         4910.32         4988.33         4988.33 
       0.019231         5102.23         5142.06         5142.06 
      0.0249154         4849.86         4843.14         4843.14 
      0.0312784         4275.34         4290.96         4290.96 
      0.0375637         3715.79         3744.19         3744.19 
      0.0433917         3329.71         3330.96         3330.96 
      0.0492413         3005.93         3022.95         3022.95 
      0.0555754         2780.92         2781.52         2781.52 
      0.0619321          2540.1         2587.04         2587.04 
       0.067871         2389.57         2409.78         2409.78 
      0.0738098         2207.01         2217.51         2217.51 
      0.0800417         1999.06          2000.8          2000.8 
      0.0862327         1780.73         1786.91         1786.91 
      0.0921407         1599.76         1602.97         1602.97 
      0.0982031         1456.95         1447.91         1447.91 
       0.104506         1321.01         1326.42         1326.42 
       0.110769          1236.9         1239.37         1239.37 
       0.116806         1186.85         1175.37         1175.37 
       0.122832         1117.78          1118.4          1118.4 
       0.129052         1061.06         1056.85         1056.85 
       0.135211          1003.9         988.813         988.813 
       0.141259         925.646         916.792         916.792 
       0.147318         847.359          844.77          844.77 
       0.153489         788.732         777.666         777.666 
       0.159709         742.193         720.822         720.822 
       0.165845          684.52          676.57          676.57 
       0.171974         666.205          642.41          642.41 
       0.178125         638.997         614.668         614.668 
       0.184229         602.611         589.672         589.672 
        0.19034         584.995         564.074         564.074 
       0.196428         559.785         536.534         536.534 
       0.202534         521.226         507.132         507.132 
       0.208729         502.832         477.012         477.012 
       0.214876         479.503         448.759         448.759 
       0.220989         445.917         423.779         423.779 
       0.227147         434.576         402.421         402.421 
        0.23329         418.136         384.659         384.659 
       0.239377         406.941         369.628         369.628 
       0.245482         388.034         355.948         355.948 
       0.251667         372.109         342.454         342.454 
       0.257832         365.919         328.716         328.716 
       0.263955         345.465         314.684         314.684 
       0.270079         331.964         300.577         300.577 
        0.27624         316.579         286.837         286.837 
       0.282372         306.734         274.122         274.122 
        0.28843         302.979          262.78          262.78 
       0.294538         288.907         252.618         252.618 
       0.300721         277.577          243.43          243.43 
        0.30691         272.957             235             235 
       0.313033         261.841         227.071         227.071 
       0.319153         257.095         219.305         219.305 
       0.325316         248.085         211.529         211.529 
        0.33145         240.739         203.864         203.864 
       0.337538          232.75         196.443         196.443 
       0.343633         225.331         189.348         189.348 
       0.349808         218.618         182.606         182.606 
       0.355968         213.019         176.383         176.383 
       0.362074         208.384         170.674         170.674 
       0.368217         204.027         165.316         165.316 
       0.374374         199.427          160.23          160.23 
       0.380519         191.122         155.339         155.339 
       0.386598         187.086         150.633         150.633 
       0.392688         181.992         146.023         146.023 
        0.39888         178.376         141.462         141.462 
       0.405048         174.427          137.08          137.08 
       0.411186         171.347         132.908         132.908 
       0.417313         167.073         128.955         128.955 
       0.423458         162.835         125.205         125.205 
       0.429607         159.695         121.647         121.647 
       0.435692         156.844         118.291         118.291 
       0.441815         152.456         115.052         115.052 
       0.447964          147.94         111.909         111.909 
       0.454126         145.268         108.854         108.854 
       0.460267          144.03         105.904         105.904 
       0.466387         140.687         103.058         103.058 
        0.47254         138.983         100.296         100.296 
       0.478662         134.275         97.6543         97.6543 
       0.484765          132.32         95.1301         95.1301 
       0.490885         129.457         92.7029         92.7029 
       0.497035         128.376         90.3593         90.3593 
       0.503198         125.442         88.0996         88.0996 
       0.509342          122.27         85.9262         85.9262 
       0.515458          120.82         83.8333         83.8333 
       0.521598          117.89         81.7963         81.7963 
       0.527764         116.628         79.8134         79.8134 
       0.533884         115.606         77.9085         77.9085 
           0.54         112.553         76.0684         76.0684 
       0.546137         109.807         74.2844         74.2844 
       0.552299         108.322         72.5538         72.5538 
       0.558452         106.286         70.8846         70.8846 
       0.564573          105.81         69.2795         69.2795 
       0.570708         102.738         67.7229         67.7229 
       0.576825          101.68         66.2199         66.2199 
       0.582926         100.517         64.7663         64.7663 
       0.589034         98.7718         63.3532         63.3532 
       0.595184         97.5231         61.9722         61.9722 
       0.601379         95.0796         60.6228         60.6228 
       0.607522         93.7156          59.325          59.325 
       0.613639         92.8309         58.0721         58.0721 
       0.619772         91.2218         56.8537         56.8537 
       0.625918         90.1331         55.6692         55.6692 
       0.632068         88.8008         54.5187         54.5187 
       0.638161         87.2014         53.4114         53.4114 
         0.6443         86.6135         52.3272         52.3272 
       0.650464         84.7836         51.2694         51.2694 
       0.656582         84.4161         50.2487         50.2487 
       0.662703          83.303         49.2559         49.2559 
       0.668861         81.4547         48.2846         48.2846 
       0.675024         81.1999         47.3392         47.3392 
       0.681124         80.0067         46.4291         46.4291 
       0.687237         78.4138         45.5416         45.5416 
       0.693381         77.8695         44.6735         44.6735 
       0.699536         77.0103         43.8268         43.8268 
       0.705665         75.7501         43.0061         43.0061 
       0.711789           74.67         42.2075         42.2075 
       0.717957         73.7001         41.4239         41.4239 
        0.72409         73.0632         40.6649         40.6649 
       0.730186         72.5719         39.9298         39.9298 
       0.736317         71.2596         39.2092         39.2092 
       0.742472         70.4795         38.5039         38.5039 
       0.748622         69.3927         37.8169         37.8169 
        0.75476          68.527         37.1484         37.1484 
       0.760888         68.3601         36.4972         36.4972 
       0.767043         67.0457         35.8594         35.8594 
       0.773185         66.3565         35.2383         35.2383 
       0.779291         65.5656         34.6356         34.6356 
       0.785407         64.6237         34.0464         34.0464 
       0.791564         64.6244         33.4674         33.4674 
       0.797719         63.6502         32.9023         32.9023 
       0.803834         63.0451          32.354          32.354 
       0.809972         62.3744         31.8164         31.8164 
       0.816124         61.7102           31.29           31.29 
       0.822261         60.9012          30.777          30.777 
       0.828378         60.6412         30.2773         30.2773 
       0.834502          59.815         29.7884         29.7884 
       0.840667         59.3895         29.3072         29.3072 
       0.846816          58.525         28.8382         28.8382 
       0.852925         58.1676         28.3825         28.3825 
       0.859047         57.8436         27.9359         27.9359 
       0.865192         56.8678         27.4975         27.4975 
       0.871341         56.2822         27.0683         27.0683 
       0.877463         55.8805         26.6504         26.6504 
       0.883569         55.6494         26.2425         26.2425 
       0.889708         55.0285         25.8411         25.8411 
       0.895864         54.4746         25.4472         25.4472 
       0.902008         53.8858         25.0624         25.0624 
       0.908149         53.4497         24.6859         24.6859 
       0.914301         53.0637         24.3167         24.3167 
       0.920448         52.6713         23.9554         23.9554 
       0.926574         51.7502         23.6029         23.6029 
       0.932687         51.4697         23.2582         23.2582 
       0.938823         50.9399         22.9193         22.9193 
       0.944975         50.4466         22.5865         22.5865 
       0.951105         50.0487         22.2615         22.2615 
       0.957225         49.8297         21.9436         21.9436 
       0.963368         49.2556         21.6309         21.6309 
       0.969511         48.8534         21.3243         21.3243 
       0.975621         48.4791         21.0254         21.0254 
       0.981748         47.9461         20.7316         20.7316 
       0.987916         47.6233         20.4415         20.4415 
        0.99406         47.1855         20.1582         20.1582 
        1.00019          46.833         19.8808         19.8808 
        1.00632         46.4636          19.609          19.609 
        1.01246         46.1023         19.3419         19.3419 
        1.01859         45.7274         19.0802         19.0802 
        1.02471         45.2331         18.8238         18.8238 
        1.03085         45.0672         18.5713         18.5713 
        1.03698         44.7151          18.324          18.324 
        1.04314          44.381         18.0802         18.0802 
        1.04929         43.8701         17.8414         17.8414 
        1.05541         43.6985          17.608          17.608 
        1.06154         43.4585         17.3782         17.3782 
        1.06769          42.798         17.1522         17.1522 
        1.07382         42.6594          16.931          16.931 
        1.07993         42.2982         16.7142         16.7142 
        1.08607         41.9981         16.5004         16.5004 
        1.09222          41.749         16.2902         16.2902 
        1.09836         41.3604         16.0839         16.0839 
        1.10449          41.177         15.8814         15.8814 
        1.11063         40.7761         15.6823         15.6823 
        1.11677         40.7257         15.4866         15.4866 
         1.1229         40.2812         15.2947         15.2947 
        1.12903         40.0514         15.1059         15.1059 
        1.13518         39.9174         14.9201         14.9201 
        1.14131         39.4873         14.7377         14.7377 
        1.14745         39.0755         14.5584         14.5584 
        1.15359          38.746         14.3821         14.3821 
        1.15973         38.5978         14.2086         14.2086 
        1.16584         38.3356         14.0388         14.0388 
        1.17197         37.8742         13.8716         13.8716 
        1.17811         37.7404         13.7067         13.7067 
        1.18424         37.2947         13.5449         13.5449 
        1.19038         37.1926         13.3853         13.3853 
        1.19652           36.95         13.2283         13.2283 
        1.20267         36.7508         13.0739         13.0739 
        1.20881         36.4846          12.922          12.922 
        1.21495         36.2834         12.7728         12.7728 
        1.22108         36.1682          12.626          12.626 
         1.2272         35.8861         12.4818         12.4818 
        1.23334         35.6364         12.3397         12.3397 
        1.23949         35.3709         12.1994         12.1994 
        1.24562         35.0483         12.0617         12.0617 
        1.25174          34.882         11.9263         11.9263 
        1.25789         34.8064         11.7927         11.7927 
        1.26402         34.5545         11.6613         11.6613 
        1.27014          34.315         11.5323         11.5323 
        1.27628         33.9921         11.4049         11.4049 
        1.28244           33.95         11.2791         11.2791 
        1.28858         33.6292         11.1555         11.1555 
        1.29471         33.4374          11.034          11.034 
        1.30084         33.1787         10.9144         10.9144 
        1.30697         33.0479         10.7964         10.7964 
        1.31312         32.7667           10.68           10.68 
        1.31925         32.5452         10.5657         10.5657 
        1.32537         32.3616         10.4533         10.4533 
        1.33151         32.1543          10.342          10.342 
        1.33765         32.0765         10.2325         10.2325 
        1.34378         31.8975         10.1247         10.1247 
        1.34992         31.6644         10.0185         10.0185 
        1.35606         31.4777         9.91359         9.91359 
         1.3622         31.2331         9.81036         9.81036 
        1.36833          31.113         9.70887         9.70887 
        1.37445         30.9078         9.60888         9.60888 
        1.38059         30.7371            9.51            9.51 
        1.38675         30.4783         9.41229         9.41229 
        1.39288         30.3693         9.31635         9.31635 
        1.39901         30.1689          9.2218          9.2218 
        1.40515         30.0379         9.12837         9.12837 
         1.4113         29.9582         9.03628         9.03628 
        1.41742         29.7804         8.94581         8.94581 
        1.42355         29.5061         8.85643         8.85643 
         1.4297         29.3301         8.76801         8.76801 
        1.43585          29.151         8.68085         8.68085 
        1.44198         29.0533         8.59521         8.59521 
        1.44809         28.8802         8.51089         8.51089 
        1.45423         28.7439         8.42741         8.42741 
        1.46036         28.5802          8.3452          8.3452 
        1.46649         28.4164         8.26408         8.26408 
        1.47263         28.2341         8.18397         8.18397 
        1.47877         28.1329         8.10497         8.10497 
        1.48491         27.9966         8.02691         8.02691 
        1.49104          27.783         7.95004         7.95004 
        1.49718         27.6956         7.87413         7.87413 
        1.50333         27.5929          7.7991          7.7991 
        1.50947         27.3963         7.72521         7.72521 
         1.5156         27.2456         7.65239         7.65239 
        1.52172         27.0562         7.58052         7.58052 
        1.52787         26.9334         7.50944         7.50944 
          1.534          26.833         7.43936         7.43936 
        1.54013         26.7382         7.37025         7.37025 
        1.54627         26.4971         7.30191         7.30191 
        1.55241         26.3827         7.23442         7.23442 
        1.55855         26.2772         7.16789         7.16789 
        1.56467         26.2018         7.10239         7.10239 
         1.5708         26.0284         7.03752         7.03752 
        1.57695         25.9006         6.97337         6.97337 
        1.58308         25.6666         6.91018         6.91018 
        1.58922          25.552         6.84773         6.84773 
        1.59535         25.4632         6.78607         6.78607 
         1.6015         25.3276          6.7251          6.7251 
        1.60764         25.2266         6.66491         6.66491 
        1.61376         25.1028         6.60563         6.60563 
        1.61989         24.9102         6.54703         6.54703 
        1.62604         24.8263         6.48902         6.48902 
        1.63218         24.7143         6.43174         6.43174 
        1.63831         24.5793          6.3753          6.3753 
        1.64444         24.4619         6.31952         6.31952 
        1.65059         24.3338         6.26428         6.26428 
        1.65673         24.2545         6.20976         6.20976 
        1.66285         24.1039         6.15605         6.15605 
        1.66898         24.0022         6.10296         6.10296 
        1.67512         23.9378          6.0504          6.0504 
        1.68127         23.7969         5.99842         5.99842 
         1.6874         23.6878         5.94716         5.94716 
        1.69353         23.5267         5.89654         5.89654 
        1.69967         23.4249         5.84639         5.84639 
        1.70581         23.2992         5.79686         5.79686 
        1.71193         23.1351         5.74808         5.74808 
        1.71806         23.1032         5.69977         5.69977 
        1.72421         23.0153         5.65192         5.65192 
        1.73035         22.8598         5.60468         5.60468 
        1.73649          22.752         5.55799         5.55799 
        1.74262         22.6292         5.51187         5.51187 
        1.74876         22.5269         5.46625         5.46625 
        1.75489         22.4506         5.42125         5.42125 
        1.76101         22.3294         5.37677         5.37677 
        1.76715         22.2468         5.33273         5.33273 
        1.77329         22.1115         5.28913         5.28913 
        1.77943         22.0348           5.246           5.246 
        1.78557         21.9403         5.20343         5.20343 
        1.79171         21.8015         5.16132         5.16132 
        1.79785         21.7188         5.11967         5.11967 
        1.80399         21.6149         5.07849         5.07849 
        1.81012         21.5507         5.03783         5.03783 
        1.81625         21.3999         4.99763         4.99763 
        1.82239         21.3156         4.95782         4.95782 
        1.82853          21.226         4.91846         4.91846 
        1.83466         21.1054         4.87957         4.87957 
        1.84078         21.0455         4.84114         4.84114 
        1.84692         20.9857         4.80307         4.80307 
        1.85306         20.8526         4.76536         4.76536 
         1.8592         20.7903         4.72812         4.72812 
        1.86533         20.5952          4.6913          4.6913 
        1.87147         20.5288         4.65483         4.65483 
