# k  (h/Mpc)    P(k)  (Mpc/h)^3    P_linear(k)  (Mpc/h)^3     P_NL(k)  ShotnoiseSubtracted = false
     0.00783031         8698.68         8744.17         8744.17 
       0.013688         10820.3         11054.6         11054.6 
       0.019231         11258.8           11394           11394 
      0.0249154         10743.3           10731           10731 
      0.0312784         9429.93          9507.1          9507.1 
      0.0375637         8174.82         8295.46         8295.46 
      0.0433917         7343.03          7379.8          7379.8 
      0.0492413         6613.83         6697.31         6697.31 
      0.0555754         6122.92         6162.36         6162.36 
      0.0619321         5549.39         5731.47         5731.47 
       0.067871         5235.51         5338.73         5338.73 
      0.0738098         4850.04         4912.75         4912.75 
      0.0800417         4394.43         4432.61         4432.61 
      0.0862327          3915.4         3958.75         3958.75 
      0.0921407         3528.56         3551.25         3551.25 
      0.0982031         3227.15         3207.71         3207.71 
       0.104506         2919.53         2938.55         2938.55 
       0.110769         2736.62         2745.69         2745.69 
       0.116806         2634.42         2603.91         2603.91 
       0.122832         2477.07          2477.7          2477.7 
       0.129052         2346.41         2341.33         2341.33 
       0.135211         2239.56         2190.61         2190.61 
       0.141259          2061.9         2031.05         2031.05 
       0.147318         1890.39         1871.49         1871.49 
       0.153489         1770.21         1722.83         1722.83 
       0.159709         1685.29          1596.9          1596.9 
       0.165845          1548.3         1498.86         1498.86 
       0.171974         1515.87         1423.19         1423.19 
       0.178125         1463.29         1361.72         1361.72 
       0.184229          1363.5         1306.35         1306.35 
        0.19034         1333.47         1249.64         1249.64 
       0.196428         1285.65         1188.63         1188.63 
       0.202534         1197.62         1123.49         1123.49 
       0.208729         1167.62         1056.76         1056.76 
       0.214876         1114.74         994.171         994.171 
       0.220989         1045.47         938.829         938.829 
       0.227147         1021.39         891.515         891.515 
        0.23329         983.974         852.164         852.164 
       0.239377         969.947         818.866         818.866 
       0.245482         923.111         788.559         788.559 
       0.251667         888.045         758.667         758.667 
       0.257832         876.674          728.23          728.23 
       0.263955         830.234         697.143         697.143 
       0.270079         802.567          665.89          665.89 
        0.27624         767.837         635.451         635.451 
       0.282372         752.413         607.282         607.282 
        0.28843         745.202         582.156         582.156 
       0.294538         707.991         559.644         559.644 
       0.300721          688.33         539.287         539.287 
        0.30691         676.661         520.613         520.613 
       0.313033         648.132         503.046         503.046 
       0.319153         637.967         485.842         485.842 
       0.325316          626.52         468.615         468.615 
        0.33145         612.475         451.634         451.634 
       0.337538         590.664         435.194         435.194 
       0.343633         573.423         419.476         419.476 
       0.349808         559.907          404.54          404.54 
       0.355968          549.28         390.755         390.755 
       0.362074         532.175         378.105         378.105 
       0.368217          528.57         366.237         366.237 
       0.374374         518.734         354.969         354.969 
       0.380519         498.617         344.135         344.135 
       0.386598         492.811         333.708         333.708 
       0.392688         481.993         323.496         323.496 
        0.39888         469.361          313.39          313.39 
       0.405048         461.202         303.683         303.683 
       0.411186         458.918         294.441         294.441 
       0.417313         452.509         285.682         285.682 
       0.423458         439.546         277.376         277.376 
       0.429607         428.327         269.492         269.492 
       0.435692         421.418         262.059         262.059 
       0.441815         414.837         254.882         254.882 
       0.447964          405.26         247.919         247.919 
       0.454126         400.297         241.152         241.152 
       0.460267         394.124         234.616         234.616 
       0.466387         387.475         228.311         228.311 
        0.47254         381.989         222.193         222.193 
       0.478662          372.94          216.34          216.34 
       0.484765          368.88         210.749         210.749 
       0.490885         365.007         205.371         205.371 
       0.497035         358.363         200.179         200.179 
       0.503198         356.851         195.173         195.173 
       0.509342         347.902         190.358         190.358 
       0.515458         342.902         185.722         185.722 
       0.521598         336.682         181.209         181.209 
       0.527764         332.287         176.816         176.816 
       0.533884         331.108         172.596         172.596 
           0.54         325.397          168.52          168.52 
       0.546137         318.327         164.567         164.567 
       0.552299         317.372         160.734         160.734 
       0.558452         312.064         157.036         157.036 
       0.564573         309.281          153.48          153.48 
       0.570708         304.424         150.031         150.031 
       0.576825         299.309         146.702         146.702 
       0.582926         296.753         143.481         143.481 
       0.589034         292.618         140.351         140.351 
       0.595184         290.654         137.291         137.291 
       0.601379         285.583         134.302         134.302 
       0.607522         280.308         131.427         131.427 
       0.613639         278.722         128.651         128.651 
       0.619772         277.148         125.952         125.952 
       0.625918         273.296         123.328         123.328 
       0.632068         268.912         120.779         120.779 
       0.638161         266.593         118.326         118.326 
         0.6443         264.665         115.924         115.924 
       0.650464          260.17         113.581         113.581 
       0.656582          258.06          111.32          111.32 
       0.662703         256.159          109.12          109.12 
       0.668861         251.597         106.968         106.968 
       0.675024         250.788         104.874         104.874 
       0.681124         247.695         102.858         102.858 
       0.687237         245.284         100.891         100.891 
       0.693381         242.546         98.9682         98.9682 
       0.699536         240.233         97.0926         97.0926 
       0.705665         237.689         95.2745         95.2745 
       0.711789         235.397         93.5052         93.5052 
       0.717957         232.882         91.7694         91.7694 
        0.72409          230.47         90.0879         90.0879 
       0.730186         231.315         88.4594         88.4594 
       0.736317         227.329         86.8628         86.8628 
       0.742472         224.408         85.3004         85.3004 
       0.748622         221.325         83.7784         83.7784 
        0.75476         222.025         82.2973         82.2973 
       0.760888         219.192         80.8548         80.8548 
       0.767043         216.202         79.4417         79.4417 
       0.773185         214.729         78.0658         78.0658 
       0.779291         211.721         76.7307         76.7307 
       0.785407         210.781         75.4254         75.4254 
       0.791564         208.829         74.1426         74.1426 
       0.797719         205.749         72.8907         72.8907 
       0.803834         206.689          71.676          71.676 
       0.809972         204.497          70.485          70.485 
       0.816124         201.551         69.3188         69.3188 
       0.822261         199.817         68.1825         68.1825 
       0.828378         199.704         67.0754         67.0754 
       0.834502         196.563         65.9922         65.9922 
       0.840667         196.279         64.9263         64.9263 
       0.846816         193.485         63.8873         63.8873 
       0.852925         192.376         62.8778         62.8778 
       0.859047         190.395         61.8883         61.8883 
       0.865192         189.959         60.9171         60.9171 
       0.871341         187.471         59.9663         59.9663 
       0.877463          185.98         59.0404         59.0404 
       0.883569         185.801         58.1367         58.1367 
       0.889708         184.032         57.2475         57.2475 
       0.895864         182.348         56.3749         56.3749 
       0.902008         180.504         55.5225         55.5225 
       0.908149         178.776         54.6885         54.6885 
       0.914301         178.337         53.8705         53.8705 
       0.920448         177.675         53.0701         53.0701 
       0.926574          175.13         52.2891         52.2891 
       0.932687         174.607         51.5256         51.5256 
       0.938823         173.245         50.7748         50.7748 
       0.944975         171.785         50.0374         50.0374 
       0.951105         170.344         49.3175         49.3175 
       0.957225         169.666         48.6132         48.6132 
       0.963368         168.192         47.9204         47.9204 
       0.969511         166.299         47.2412         47.2412 
       0.975621          165.13         46.5791         46.5791 
       0.981748         164.034          45.928          45.928 
       0.987916         163.325         45.2855         45.2855 
        0.99406         162.181         44.6578         44.6578 
        1.00019         161.023         44.0433         44.0433 
        1.00632         160.171         43.4411         43.4411 
        1.01246         158.871         42.8494         42.8494 
        1.01859         157.648         42.2698         42.2698 
        1.02471         156.484         41.7017         41.7017 
        1.03085         155.412         41.1422         41.1422 
        1.03698         154.234         40.5943         40.5943 
        1.04314         153.773         40.0542         40.0542 
        1.04929         152.927         39.5253         39.5253 
        1.05541         151.795         39.0081         39.0081 
        1.06154         150.631         38.4991         38.4991 
        1.06769         149.515         37.9984         37.9984 
        1.07382         148.843         37.5084         37.5084 
        1.07993         147.688         37.0282         37.0282 
        1.08607         146.659         36.5545         36.5545 
        1.09222         145.864         36.0888         36.0888 
        1.09836         144.784         35.6317         35.6317 
        1.10449         143.647         35.1832         35.1832 
        1.11063         142.755          34.742          34.742 
        1.11677         142.118         34.3086         34.3086 
         1.1229         140.909         33.8834         33.8834 
        1.12903         140.325         33.4651         33.4651 
        1.13518          139.28         33.0536         33.0536 
        1.14131          138.47         32.6494         32.6494 
        1.14745         137.541         32.2521         32.2521 
        1.15359         136.138         31.8615         31.8615 
        1.15973         135.806         31.4773         31.4773 
        1.16584         135.033         31.1012         31.1012 
        1.17197         134.287         30.7308         30.7308 
        1.17811         133.042         30.3653         30.3653 
        1.18424         132.405         30.0069         30.0069 
        1.19038          131.75         29.6533         29.6533 
        1.19652         130.777         29.3056         29.3056 
        1.20267         129.937         28.9635         28.9635 
        1.20881         129.062          28.627          28.627 
        1.21495         128.635         28.2964         28.2964 
        1.22108         127.696         27.9712         27.9712 
         1.2272         126.726         27.6519         27.6519 
        1.23334          126.38         27.3369         27.3369 
        1.23949         125.759         27.0261         27.0261 
        1.24562         124.686          26.721          26.721 
        1.25174         123.797         26.4212         26.4212 
        1.25789         123.218         26.1251         26.1251 
        1.26402         122.793         25.8341         25.8341 
        1.27014         121.896         25.5483         25.5483 
        1.27628         120.633          25.266          25.266 
        1.28244         120.534         24.9874         24.9874 
        1.28858         119.428         24.7135         24.7135 
        1.29471         118.777         24.4443         24.4443 
        1.30084         118.053         24.1794         24.1794 
        1.30697         117.641          23.918          23.918 
        1.31312         116.739         23.6602         23.6602 
        1.31925         115.884          23.407          23.407 
        1.32537         115.457         23.1578         23.1578 
        1.33151         115.068         22.9114         22.9114 
        1.33765         113.861         22.6687         22.6687 
        1.34378         113.757           22.43           22.43 
        1.34992         113.222         22.1947         22.1947 
        1.35606         112.297         21.9622         21.9622 
         1.3622          112.14         21.7336         21.7336 
        1.36833          110.79         21.5087         21.5087 
        1.37445         110.521         21.2872         21.2872 
        1.38059          109.97         21.0681         21.0681 
        1.38675          109.05         20.8517         20.8517 
        1.39288         108.505         20.6391         20.6391 
        1.39901         107.681         20.4297         20.4297 
        1.40515          107.41         20.2227         20.2227 
         1.4113         106.803         20.0187         20.0187 
        1.41742         106.027         19.8183         19.8183 
        1.42355           105.7         19.6203         19.6203 
         1.4297          104.91         19.4244         19.4244 
        1.43585         104.193         19.2313         19.2313 
        1.44198         103.592         19.0415         19.0415 
        1.44809         102.855         18.8548         18.8548 
        1.45423         102.634         18.6698         18.6698 
        1.46036         101.773         18.4877         18.4877 
        1.46649         101.173          18.308          18.308 
        1.47263         100.888         18.1305         18.1305 
        1.47877          100.12         17.9555         17.9555 
        1.48491          99.588         17.7825         17.7825 
        1.49104         98.6045         17.6123         17.6123 
        1.49718         98.5607         17.4441         17.4441 
        1.50333         98.0194         17.2779         17.2779 
        1.50947         97.5978         17.1142         17.1142 
         1.5156         97.0619         16.9529         16.9529 
        1.52172         96.3169         16.7936         16.7936 
        1.52787         95.7819         16.6362         16.6362 
          1.534         95.3212         16.4809         16.4809 
        1.54013         94.9289         16.3278         16.3278 
        1.54627         94.1008         16.1764         16.1764 
        1.55241         93.7605         16.0269         16.0269 
        1.55855         93.1609         15.8795         15.8795 
        1.56467          92.396         15.7344         15.7344 
         1.5708         92.0657         15.5907         15.5907 
        1.57695         91.7102         15.4486         15.4486 
        1.58308         91.1567         15.3086         15.3086 
        1.58922         90.9803         15.1702         15.1702 
        1.59535         90.4616         15.0337         15.0337 
         1.6015         89.8147         14.8986         14.8986 
        1.60764         89.2334         14.7652         14.7652 
        1.61376          88.728         14.6339         14.6339 
        1.61989         88.1932         14.5041         14.5041 
        1.62604          87.822         14.3756         14.3756 
        1.63218         87.5293         14.2487         14.2487 
        1.63831         86.8676         14.1236         14.1236 
        1.64444         86.4729         14.0001         14.0001 
        1.65059         85.9437         13.8777         13.8777 
        1.65673         85.4096         13.7569         13.7569 
        1.66285         84.8721         13.6379         13.6379 
        1.66898         84.4268         13.5203         13.5203 
        1.67512         84.0599         13.4039         13.4039 
        1.68127         83.6814         13.2887         13.2887 
         1.6874         83.1255         13.1752         13.1752 
        1.69353         82.6078          13.063          13.063 
        1.69967         82.3414         12.9519         12.9519 
        1.70581         81.9115         12.8422         12.8422 
        1.71193         81.3447         12.7341         12.7341 
        1.71806         80.8507         12.6271         12.6271 
        1.72421         80.4925         12.5211         12.5211 
        1.73035         80.2539         12.4164         12.4164 
        1.73649         79.6701          12.313          12.313 
        1.74262         79.0739         12.2108         12.2108 
        1.74876          78.788         12.1098         12.1098 
        1.75489         78.2524         12.0101         12.0101 
        1.76101         77.8073         11.9115         11.9115 
        1.76715         77.5548         11.8139         11.8139 
        1.77329         77.0508         11.7174         11.7174 
        1.77943          76.753         11.6218         11.6218 
        1.78557         76.3967         11.5275         11.5275 
        1.79171         75.9323         11.4342         11.4342 
        1.79785         75.4215          11.342          11.342 
        1.80399         75.1309         11.2507         11.2507 
        1.81012         74.6262         11.1606         11.1606 
        1.81625         74.3196         11.0716         11.0716 
        1.82239         74.0181         10.9834         10.9834 
        1.82853         73.4259         10.8962         10.8962 
        1.83466         73.0513           10.81           10.81 
        1.84078         72.7687         10.7249         10.7249 
        1.84692         72.5353         10.6406         10.6406 
        1.85306         72.0239          10.557          10.557 
         1.8592         71.7137         10.4745         10.4745 
        1.86533         71.2985          10.393          10.393 
        1.87147         70.8531         10.3122         10.3122 
        1.87761         70.3993         10.2322         10.2322 
