# k  (h/Mpc)    Pcb(k)  (Mpc/h)^3    Pcb_linear(k) (Mpc/h)^3    Pcb_NL(k) (Mpc/h)^3   ShotnoiseSubtracted = false
     0.00783031         6537.09         6573.42         6573.42 
       0.013688         8154.42         8311.14         8311.14 
       0.019231         8480.36         8566.68         8566.68 
      0.0249154          8079.6         8068.36         8068.36 
      0.0312784         7104.94         7148.28         7148.28 
      0.0375637          6165.8         6237.32         6237.32 
      0.0433917         5533.38         5548.88         5548.88 
      0.0492413         4988.48         5035.74         5035.74 
      0.0555754         4617.73         4633.53         4633.53 
      0.0619321         4198.26         4309.55         4309.55 
       0.067871         3956.86         4014.25         4014.25 
      0.0738098         3660.62         3693.96         3693.96 
      0.0800417         3316.72         3332.94         3332.94 
      0.0862327         2954.51         2976.64         2976.64 
      0.0921407         2658.73         2670.24         2670.24 
      0.0982031         2427.37         2411.93         2411.93 
       0.104506         2197.53         2209.55         2209.55 
       0.110769         2058.99         2064.53         2064.53 
       0.116806         1980.14         1957.92         1957.92 
       0.122832         1862.34         1863.02         1863.02 
       0.129052         1766.31         1760.49         1760.49 
       0.135211          1679.6         1647.16         1647.16 
       0.141259         1547.21         1527.18         1527.18 
       0.147318         1416.82         1407.21         1407.21 
       0.153489         1323.54         1295.43         1295.43 
       0.159709            1254         1200.74         1200.74 
       0.165845         1153.26         1127.02         1127.02 
       0.171974          1127.3         1070.12         1070.12 
       0.178125         1085.03         1023.91         1023.91 
       0.184229         1015.85         982.268         982.268 
        0.19034         990.417         939.628         939.628 
       0.196428         951.982         893.752         893.752 
       0.202534           885.8         844.774         844.774 
       0.208729         860.636           794.6           794.6 
       0.214876         821.609         747.537         747.537 
       0.220989         766.839         705.925         705.925 
       0.227147         749.146         670.348         670.348 
        0.23329         721.651         640.759         640.759 
       0.239377           707.5         615.721         615.721 
       0.245482         673.356         592.933         592.933 
       0.251667         646.974         570.456         570.456 
       0.257832         638.469         547.571         547.571 
       0.263955         603.089         524.196         524.196 
       0.270079         581.359         500.696         500.696 
        0.27624          555.54         477.809         477.809 
       0.282372         541.885         456.628         456.628 
        0.28843          537.03         437.735         437.735 
       0.294538         510.536         420.807         420.807 
       0.300721         493.741         405.501         405.501 
        0.30691         485.946         391.459         391.459 
       0.313033         465.477         378.251         378.251 
       0.319153         457.371         365.315         365.315 
       0.325316         446.369         352.362         352.362 
        0.33145         435.366         339.594         339.594 
       0.337538         420.045         327.231         327.231 
       0.343633         406.889         315.413         315.413 
       0.349808         396.317         304.182         304.182 
       0.355968         388.034         293.816         293.816 
       0.362074         377.367         284.306         284.306 
       0.368217         372.849         275.381         275.381 
       0.374374         364.864         266.909         266.909 
       0.380519         350.333         258.762         258.762 
       0.386598         345.035         250.921         250.921 
       0.392688         336.886         243.244         243.244 
        0.39888         328.742         235.645         235.645 
       0.405048         322.583         228.345         228.345 
       0.411186         319.729         221.396         221.396 
       0.417313         313.538         214.811         214.811 
       0.423458         305.132         208.565         208.565 
       0.429607         298.135         202.637         202.637 
       0.435692         292.706         197.048         197.048 
       0.441815         287.428         191.651         191.651 
       0.447964         279.597         186.416         186.416 
       0.454126          275.46         181.327         181.327 
       0.460267         272.035         176.413         176.413 
       0.466387         266.816         171.672         171.672 
        0.47254         263.419         167.071         167.071 
       0.478662         255.773         162.671         162.671 
       0.484765          252.79         158.466         158.466 
       0.490885         249.351         154.423         154.423 
       0.497035         246.049         150.519         150.519 
       0.503198         243.076         146.755         146.755 
       0.509342         236.662         143.134         143.134 
       0.515458         233.893         139.648         139.648 
       0.521598         228.622         136.255         136.255 
       0.527764         226.174         132.952         132.952 
       0.533884         225.451         129.779         129.779 
           0.54         220.186         126.714         126.714 
       0.546137         215.277         123.742         123.742 
       0.552299         213.711         120.859         120.859 
       0.558452         209.953         118.078         118.078 
       0.564573         208.612         115.405         115.405 
       0.570708         203.975         112.812         112.812 
       0.576825         201.197         110.308         110.308 
       0.582926         199.104         107.887         107.887 
       0.589034         196.316         105.533         105.533 
       0.595184         194.713         103.232         103.232 
       0.601379         190.598         100.984         100.984 
       0.607522         187.391         98.8227         98.8227 
       0.613639         185.943         96.7355         96.7355 
       0.619772          183.96          94.706          94.706 
       0.625918         182.364         92.7328         92.7328 
       0.632068         178.406         90.8163         90.8163 
       0.638161         176.434         88.9718         88.9718 
         0.6443         175.653         87.1658         87.1658 
       0.650464         172.299         85.4037         85.4037 
       0.656582         171.399         83.7035         83.7035 
       0.662703         169.574         82.0496         82.0496 
       0.668861         166.233         80.4317         80.4317 
       0.675024         166.195         78.8569         78.8569 
       0.681124         163.597         77.3409         77.3409 
       0.687237         161.304         75.8624         75.8624 
       0.693381         160.198         74.4163         74.4163 
       0.699536         158.188          73.006          73.006 
       0.705665         156.192         71.6389         71.6389 
       0.711789         154.302         70.3085         70.3085 
       0.717957         152.709         69.0033         69.0033 
        0.72409         151.506          67.739          67.739 
       0.730186         151.082         66.5145         66.5145 
       0.736317          148.53          65.314          65.314 
       0.742472          146.59         64.1391         64.1391 
       0.748622         144.368         62.9947         62.9947 
        0.75476         144.636         61.8811         61.8811 
       0.760888         143.249         60.7965         60.7965 
       0.767043         140.802         59.7339         59.7339 
       0.773185         139.276         58.6993         58.6993 
       0.779291         137.718         57.6955         57.6955 
       0.785407         136.454          56.714          56.714 
       0.791564         135.757         55.7494         55.7494 
       0.797719         134.063         54.8081         54.8081 
       0.803834         133.583         53.8947         53.8947 
       0.809972         132.669         52.9992         52.9992 
       0.816124         130.855         52.1223         52.1223 
       0.822261         129.463         51.2678         51.2678 
       0.828378         129.234         50.4354         50.4354 
       0.834502         127.142          49.621          49.621 
       0.840667         126.607         48.8195         48.8195 
       0.846816          125.44         48.0382         48.0382 
       0.852925         124.131         47.2791         47.2791 
       0.859047         123.239         46.5351         46.5351 
       0.865192          122.07         45.8048         45.8048 
       0.871341         120.781           45.09           45.09 
       0.877463         120.001         44.3938         44.3938 
       0.883569         119.751         43.7142         43.7142 
       0.889708         118.674         43.0456         43.0456 
       0.895864         117.539         42.3895         42.3895 
       0.902008         116.429         41.7486         41.7486 
       0.908149         114.987         41.1214         41.1214 
       0.914301         114.981         40.5063         40.5063 
       0.920448         114.389         39.9046         39.9046 
       0.926574          112.27         39.3173         39.3173 
       0.932687           112.1         38.7432         38.7432 
       0.938823         111.172         38.1786         38.1786 
       0.944975         109.931         37.6242         37.6242 
       0.951105         109.107         37.0829         37.0829 
       0.957225         109.028         36.5533         36.5533 
       0.963368         107.697         36.0324         36.0324 
       0.969511         106.851         35.5217         35.5217 
       0.975621             106         35.0238         35.0238 
       0.981748         105.096         34.5343         34.5343 
       0.987916         104.449         34.0511         34.0511 
        0.99406         104.025         33.5791         33.5791 
        1.00019          102.81         33.1171         33.1171 
        1.00632         102.213         32.6643         32.6643 
        1.01246         101.491         32.2194         32.2194 
        1.01859         101.006         31.7835         31.7835 
        1.02471         100.118         31.3564         31.3564 
        1.03085         99.2384         30.9357         30.9357 
        1.03698         98.6314         30.5237         30.5237 
        1.04314         97.9265         30.1176         30.1176 
        1.04929         97.5015         29.7199         29.7199 
        1.05541         96.8004          29.331          29.331 
        1.06154         96.2002         28.9483         28.9483 
        1.06769         95.3031         28.5718         28.5718 
        1.07382         94.5383         28.2034         28.2034 
        1.07993         94.2322         27.8423         27.8423 
        1.08607         93.4401         27.4861         27.4861 
        1.09222         93.1377         27.1359         27.1359 
        1.09836          92.128         26.7922         26.7922 
        1.10449         91.6722          26.455          26.455 
        1.11063         90.9594         26.1232         26.1232 
        1.11677         90.4667         25.7973         25.7973 
         1.1229         89.7451         25.4776         25.4776 
        1.12903         89.4581         25.1631         25.1631 
        1.13518         89.0128         24.8537         24.8537 
        1.14131         88.2791         24.5497         24.5497 
        1.14745         87.6344         24.2511         24.2511 
        1.15359         86.6787         23.9574         23.9574 
        1.15973         86.5943         23.6685         23.6685 
        1.16584         85.9767         23.3857         23.3857 
        1.17197         85.3458         23.1071         23.1071 
        1.17811         84.7846         22.8323         22.8323 
        1.18424         84.0386         22.5628         22.5628 
        1.19038         83.9845         22.2969         22.2969 
        1.19652         83.4122         22.0355         22.0355 
        1.20267         82.7237         21.7783         21.7783 
        1.20881          82.226         21.5253         21.5253 
        1.21495         81.8228         21.2767         21.2767 
        1.22108         81.4329         21.0321         21.0321 
         1.2272         80.6468          20.792          20.792 
        1.23334         80.3895         20.5552         20.5552 
        1.23949         79.8756         20.3215         20.3215 
        1.24562         79.2302         20.0921         20.0921 
        1.25174         78.7535         19.8667         19.8667 
        1.25789         78.7711          19.644          19.644 
        1.26402         78.0412         19.4252         19.4252 
        1.27014         77.6795         19.2103         19.2103 
        1.27628         76.9461          18.998          18.998 
        1.28244         76.7703         18.7886         18.7886 
        1.28858         76.2492         18.5826         18.5826 
        1.29471         75.8169         18.3802         18.3802 
        1.30084         75.1395          18.181          18.181 
        1.30697         75.1752         17.9845         17.9845 
        1.31312         74.5057         17.7906         17.7906 
        1.31925         74.0078         17.6002         17.6002 
        1.32537         73.6035         17.4129         17.4129 
        1.33151         73.3613         17.2275         17.2275 
        1.33765         72.8084         17.0451         17.0451 
        1.34378         72.5681         16.8656         16.8656 
        1.34992         72.1282         16.6887         16.6887 
        1.35606         71.6006         16.5139         16.5139 
         1.3622         71.3066         16.3419         16.3419 
        1.36833         70.7877         16.1729         16.1729 
        1.37445         70.2338         16.0063         16.0063 
        1.38059         70.1133         15.8416         15.8416 
        1.38675          69.356         15.6788         15.6788 
        1.39288         69.3741          15.519          15.519 
        1.39901         68.6916         15.3615         15.3615 
        1.40515          68.476         15.2059         15.2059 
         1.4113         68.2351         15.0525         15.0525 
        1.41742         67.7868         14.9018         14.9018 
        1.42355         67.3646         14.7529         14.7529 
         1.4297          67.014         14.6056         14.6056 
        1.43585         66.5324         14.4604         14.4604 
        1.44198         66.1886         14.3177         14.3177 
        1.44809          65.782         14.1773         14.1773 
        1.45423         65.4863         14.0382         14.0382 
        1.46036         65.0591         13.9013         13.9013 
        1.46649         64.9145         13.7662         13.7662 
        1.47263         64.5088         13.6327         13.6327 
        1.47877         64.2247         13.5011         13.5011 
        1.48491         63.8796         13.3711         13.3711 
        1.49104         63.3279          13.243          13.243 
        1.49718          63.097         13.1166         13.1166 
        1.50333         62.8249         12.9916         12.9916 
        1.50947         62.4857         12.8685         12.8685 
         1.5156         62.2166         12.7472         12.7472 
        1.52172         61.7607         12.6275         12.6275 
        1.52787         61.3739         12.5091         12.5091 
          1.534         61.1673         12.3924         12.3924 
        1.54013         60.9466         12.2772         12.2772 
        1.54627         60.3678         12.1634         12.1634 
        1.55241         60.0656          12.051          12.051 
        1.55855         59.9257         11.9401         11.9401 
        1.56467         59.4207          11.831          11.831 
         1.5708         59.3036          11.723          11.723 
        1.57695         58.9389         11.6161         11.6161 
        1.58308         58.5787         11.5108         11.5108 
        1.58922         58.2947         11.4068         11.4068 
        1.59535         58.1006         11.3041         11.3041 
         1.6015         58.0103         11.2026         11.2026 
        1.60764         57.5569         11.1023         11.1023 
        1.61376         57.1855         11.0035         11.0035 
        1.61989         56.7918         10.9059         10.9059 
        1.62604          56.581         10.8093         10.8093 
        1.63218         56.3046         10.7139         10.7139 
        1.63831         56.1157         10.6199         10.6199 
        1.64444         55.7856         10.5269         10.5269 
        1.65059         55.5433         10.4349         10.4349 
        1.65673         55.0931         10.3441         10.3441 
        1.66285         54.9806         10.2546         10.2546 
        1.66898         54.4538         10.1662         10.1662 
        1.67512         54.3721         10.0787         10.0787 
        1.68127         54.0811         9.99205         9.99205 
         1.6874         53.7638         9.90668         9.90668 
        1.69353         53.5851         9.82235         9.82235 
        1.69967          53.352         9.73882         9.73882 
        1.70581         52.9831          9.6563          9.6563 
        1.71193         52.7229         9.57505         9.57505 
        1.71806         52.4705         9.49457         9.49457 
        1.72421         52.2299         9.41487         9.41487 
        1.73035         51.9898         9.33617         9.33617 
        1.73649         51.6318          9.2584          9.2584 
        1.74262           51.27         9.18158         9.18158 
        1.74876         51.2037         9.10559         9.10559 
        1.75489         50.8181         9.03062         9.03062 
        1.76101         50.5907         8.95652         8.95652 
        1.76715         50.5823         8.88316         8.88316 
        1.77329         50.0079         8.81053         8.81053 
        1.77943         50.0261          8.7387          8.7387 
        1.78557         49.7613         8.66777         8.66777 
        1.79171         49.4662         8.59763         8.59763 
        1.79785         49.2052         8.52825         8.52825 
        1.80399         48.9345         8.45967         8.45967 
        1.81012         48.7572         8.39193         8.39193 
        1.81625         48.4197         8.32497         8.32497 
        1.82239         48.2011         8.25864         8.25864 
        1.82853         48.0382         8.19308         8.19308 
        1.83466         47.7522         8.12829         8.12829 
        1.84078         47.5259         8.06428         8.06428 
        1.84692         47.2503         8.00086         8.00086 
        1.85306         47.0174         7.93805         7.93805 
         1.8592          46.888         7.87602         7.87602 
        1.86533         46.6258         7.81469         7.81469 
        1.87147         46.3694         7.75394         7.75394 
