# k  (h/Mpc)    P(k)  (Mpc/h)^3    P_linear(k)  (Mpc/h)^3     P_NL(k)  ShotnoiseSubtracted = false
     0.00783031         11379.1           11435           11435 
       0.013688         14112.1         14455.2         14455.2 
       0.019231         14691.6         14898.3         14898.3 
      0.0249154         14040.7           14031           14031 
      0.0312784         12299.3         12430.5         12430.5 
      0.0375637         10650.5         10846.2         10846.2 
      0.0433917         9574.91         9648.92         9648.92 
      0.0492413         8616.18         8756.54         8756.54 
      0.0555754         7975.48         8057.08         8057.08 
      0.0619321         7206.03         7493.68         7493.68 
       0.067871         6803.84         6980.17         6980.17 
      0.0738098         6312.81         6423.21         6423.21 
      0.0800417         5718.76         5795.43         5795.43 
      0.0862327         5097.69         5175.88         5175.88 
      0.0921407         4602.02         4643.09         4643.09 
      0.0982031         4216.86         4193.92         4193.92 
       0.104506         3813.06         3842.01         3842.01 
       0.110769         3575.69         3589.85         3589.85 
       0.116806         3443.89         3404.48         3404.48 
       0.122832         3239.65         3239.46         3239.46 
       0.129052         3063.34         3061.16         3061.16 
       0.135211         2935.07          2864.1          2864.1 
       0.141259         2701.12         2655.49         2655.49 
       0.147318         2481.85         2446.87         2446.87 
       0.153489         2329.81          2252.5          2252.5 
       0.159709         2228.99         2087.86         2087.86 
       0.165845         2047.34         1959.68         1959.68 
       0.171974         2005.22         1860.74         1860.74 
       0.178125            1942         1780.38         1780.38 
       0.184229         1801.81         1707.98         1707.98 
        0.19034         1767.99         1633.83         1633.83 
       0.196428         1709.52         1554.06         1554.06 
       0.202534         1596.73          1468.9          1468.9 
       0.208729         1559.99         1381.66         1381.66 
       0.214876         1489.17         1299.82         1299.82 
       0.220989         1405.74         1227.47         1227.47 
       0.227147         1372.05         1165.61         1165.61 
        0.23329         1321.46         1114.16         1114.16 
       0.239377          1309.4         1070.62         1070.62 
       0.245482         1247.64            1031            1031 
       0.251667         1201.41         991.914         991.914 
       0.257832         1184.78         952.119         952.119 
       0.263955         1126.56         911.474         911.474 
       0.270079         1092.99         870.613         870.613 
        0.27624         1046.74         830.816         830.816 
       0.282372         1030.45         793.987         793.987 
        0.28843         1017.36         761.136         761.136 
       0.294538         968.237         731.702         731.702 
       0.300721         946.277         705.087         705.087 
        0.30691          927.66         680.671         680.671 
       0.313033         890.017         657.704         657.704 
       0.319153         878.297         635.211         635.211 
       0.325316         866.102         612.687         612.687 
        0.33145         847.487         590.486         590.486 
       0.337538         818.219         568.991         568.991 
       0.343633         796.904          548.44          548.44 
       0.349808         780.263         528.913         528.913 
       0.355968         765.777         510.889         510.889 
       0.362074         741.099         494.351         494.351 
       0.368217         738.393         478.834         478.834 
       0.374374         726.813         464.102         464.102 
       0.380519         699.814         449.936         449.936 
       0.386598         693.888         436.304         436.304 
       0.392688         678.494         422.952         422.952 
        0.39888         661.537          409.74          409.74 
       0.405048         649.918         397.047         397.047 
       0.411186         647.888         384.964         384.964 
       0.417313         642.556         373.513         373.513 
       0.423458         623.054         362.653         362.653 
       0.429607         606.123         352.345         352.345 
       0.435692         599.052         342.627         342.627 
       0.441815         589.002         333.244         333.244 
       0.447964         578.551          324.14          324.14 
       0.454126         571.959         315.292         315.292 
       0.460267         563.048         306.747         306.747 
       0.466387         554.169         298.504         298.504 
        0.47254         545.388         290.504         290.504 
       0.478662         535.715         282.852         282.852 
       0.484765         530.084         275.541         275.541 
       0.490885         524.796         268.511         268.511 
       0.497035         514.384         261.723         261.723 
       0.503198         513.815         255.178         255.178 
       0.509342         502.944         248.882         248.882 
       0.515458         493.866         242.821         242.821 
       0.521598         488.374          236.92          236.92 
       0.527764         479.684         231.177         231.177 
       0.533884         476.928         225.659         225.659 
           0.54         471.174          220.33          220.33 
       0.546137         462.468         215.162         215.162 
       0.552299         461.364          210.15          210.15 
       0.558452         454.325         205.315         205.315 
       0.564573         449.912         200.666         200.666 
       0.570708          445.18         196.157         196.157 
       0.576825         436.594         191.804         191.804 
       0.582926         434.517         187.593         187.593 
       0.589034          428.01         183.501         183.501 
       0.595184         424.812           179.5           179.5 
       0.601379         418.007         175.592         175.592 
       0.607522         410.708         171.833         171.833 
       0.613639         409.288         168.204         168.204 
       0.619772          407.64         164.675         164.675 
       0.625918         400.164         161.244         161.244 
       0.632068         397.027         157.911         157.911 
       0.638161         393.247         154.704         154.704 
         0.6443         389.236         151.564         151.564 
       0.650464         384.426           148.5           148.5 
       0.656582         381.012         145.544         145.544 
       0.662703         378.061         142.668         142.668 
       0.668861          372.45         139.855         139.855 
       0.675024         370.246         137.116         137.116 
       0.681124         365.466          134.48          134.48 
       0.687237         363.363          131.91          131.91 
       0.693381         358.524         129.395         129.395 
       0.699536         356.544         126.943         126.943 
       0.705665         352.521         124.566         124.566 
       0.711789         350.735         122.253         122.253 
       0.717957         346.155         119.983         119.983 
        0.72409         342.418         117.785         117.785 
       0.730186          344.16         115.655         115.655 
       0.736317         337.905         113.568         113.568 
       0.742472         334.631         111.525         111.525 
       0.748622         331.298         109.535         109.535 
        0.75476         330.306         107.599         107.599 
       0.760888         326.782         105.713         105.713 
       0.767043         323.704         103.865         103.865 
       0.773185         321.984         102.066         102.066 
       0.779291         317.302         100.321         100.321 
       0.785407         315.998         98.6143         98.6143 
       0.791564         313.244         96.9371         96.9371 
       0.797719         308.377         95.3003         95.3003 
       0.803834         310.711         93.7122         93.7122 
       0.809972         305.856          92.155          92.155 
       0.816124         302.305         90.6303         90.6303 
       0.822261         299.874         89.1446         89.1446 
       0.828378         299.123         87.6971         87.6971 
       0.834502         294.737          86.281          86.281 
       0.840667         294.866         84.8874         84.8874 
       0.846816         289.572         83.5289         83.5289 
       0.852925         289.744          82.209          82.209 
       0.859047         286.849         80.9153         80.9153 
       0.865192         286.149         79.6455         79.6455 
       0.871341         282.027         78.4025         78.4025 
       0.877463         279.968         77.1919         77.1919 
       0.883569         278.753         76.0103         76.0103 
       0.889708         276.133         74.8478         74.8478 
       0.895864          273.79         73.7069         73.7069 
       0.902008         271.878         72.5924         72.5924 
       0.908149         269.679          71.502          71.502 
       0.914301          268.17         70.4325         70.4325 
       0.920448         266.913         69.3861         69.3861 
       0.926574         264.521         68.3649         68.3649 
       0.932687         263.165         67.3667         67.3667 
       0.938823         260.592          66.385          66.385 
       0.944975         259.674          65.421          65.421 
       0.951105         257.007         64.4798         64.4798 
       0.957225         254.655         63.5589         63.5589 
       0.963368         254.597         62.6531         62.6531 
       0.969511         249.978         61.7652         61.7652 
       0.975621         249.112         60.8994         60.8994 
       0.981748         248.004         60.0482         60.0482 
       0.987916         246.803         59.2081         59.2081 
        0.99406          244.44         58.3874         58.3874 
        1.00019         242.802          57.584          57.584 
        1.00632          242.16         56.7967         56.7967 
        1.01246         240.021         56.0231         56.0231 
        1.01859           237.4         55.2652         55.2652 
        1.02471         235.705         54.5225         54.5225 
        1.03085         234.706         53.7911         53.7911 
        1.03698         233.317         53.0747         53.0747 
        1.04314         232.798         52.3685         52.3685 
        1.04929         231.053          51.677          51.677 
        1.05541         228.981         51.0008         51.0008 
        1.06154         227.195         50.3352         50.3352 
        1.06769         225.458         49.6807         49.6807 
        1.07382         225.079           49.04           49.04 
        1.07993         222.426         48.4122         48.4122 
        1.08607         221.206         47.7929         47.7929 
        1.09222         219.771         47.1839         47.1839 
        1.09836         219.011         46.5864         46.5864 
        1.10449         217.059              46              46 
        1.11063         215.509         45.4231         45.4231 
        1.11677         214.298         44.8564         44.8564 
         1.1229          213.02         44.3005         44.3005 
        1.12903         211.779         43.7537         43.7537 
        1.13518          210.16         43.2157         43.2157 
        1.14131         209.335         42.6871         42.6871 
        1.14745         207.033         42.1678         42.1678 
        1.15359         205.444         41.6571         41.6571 
        1.15973         205.102         41.1547         41.1547 
        1.16584         204.038          40.663          40.663 
        1.17197           202.6         40.1787         40.1787 
        1.17811         200.833         39.7009         39.7009 
        1.18424         199.746         39.2323         39.2323 
        1.19038         198.582         38.7699         38.7699 
        1.19652         196.547         38.3153         38.3153 
        1.20267         195.898         37.8681         37.8681 
        1.20881         194.358         37.4281         37.4281 
        1.21495         194.081         36.9959         36.9959 
        1.22108         192.512         36.5707         36.5707 
         1.2272         190.751         36.1532         36.1532 
        1.23334         190.037         35.7414         35.7414 
        1.23949         189.263          35.335          35.335 
        1.24562         187.764         34.9362         34.9362 
        1.25174         186.597         34.5441         34.5441 
        1.25789         184.992          34.157          34.157 
        1.26402         184.817         33.7765         33.7765 
        1.27014         183.839         33.4028         33.4028 
        1.27628         181.777         33.0337         33.0337 
        1.28244         181.013         32.6696         32.6696 
        1.28858         179.811         32.3114         32.3114 
        1.29471         178.924         31.9595         31.9595 
        1.30084         177.716         31.6131         31.6131 
        1.30697          176.36         31.2714         31.2714 
        1.31312         175.374         30.9343         30.9343 
        1.31925         174.295         30.6033         30.6033 
        1.32537         173.673         30.2775         30.2775 
        1.33151         172.482         29.9553         29.9553 
        1.33765          170.98          29.638          29.638 
        1.34378         170.559          29.326          29.326 
        1.34992         169.421         29.0183         29.0183 
        1.35606         168.386         28.7143         28.7143 
         1.3622         167.707         28.4154         28.4154 
        1.36833         165.877         28.1214         28.1214 
        1.37445         165.884         27.8318         27.8318 
        1.38059         164.278         27.5454         27.5454 
        1.38675         163.355         27.2623         27.2623 
        1.39288           162.2         26.9845         26.9845 
        1.39901         161.351         26.7106         26.7106 
        1.40515         160.716           26.44           26.44 
         1.4113         159.442         26.1732         26.1732 
        1.41742          158.21         25.9112         25.9112 
        1.42355         158.345         25.6523         25.6523 
         1.4297         156.712         25.3962         25.3962 
        1.43585         155.971         25.1437         25.1437 
        1.44198         154.366         24.8957         24.8957 
        1.44809         153.789         24.6515         24.6515 
        1.45423         153.155         24.4097         24.4097 
        1.46036         152.085         24.1716         24.1716 
        1.46649         151.124         23.9366         23.9366 
        1.47263         150.587         23.7046         23.7046 
        1.47877          149.29         23.4758         23.4758 
        1.48491         148.383         23.2496         23.2496 
        1.49104         146.871          23.027          23.027 
        1.49718         146.723         22.8071         22.8071 
        1.50333         145.948         22.5898         22.5898 
        1.50947         144.948         22.3758         22.3758 
         1.5156          143.86         22.1649         22.1649 
        1.52172         143.322         21.9567         21.9567 
        1.52787         142.496         21.7508         21.7508 
          1.534         141.599         21.5478         21.5478 
        1.54013         140.806         21.3477         21.3477 
        1.54627         139.855         21.1497         21.1497 
        1.55241         139.349         20.9542         20.9542 
        1.55855         138.612         20.7615         20.7615 
        1.56467         137.548         20.5718         20.5718 
         1.5708         136.437         20.3839         20.3839 
        1.57695         136.007         20.1981         20.1981 
        1.58308         135.032         20.0151         20.0151 
        1.58922         134.691         19.8342         19.8342 
        1.59535          133.77         19.6556         19.6556 
         1.6015         132.629          19.479          19.479 
        1.60764         131.866         19.3047         19.3047 
        1.61376         131.134          19.133          19.133 
        1.61989         130.536         18.9632         18.9632 
        1.62604         129.583         18.7952         18.7952 
        1.63218         129.012         18.6293         18.6293 
        1.63831         128.128         18.4658         18.4658 
        1.64444         127.329         18.3042         18.3042 
        1.65059         126.612         18.1442         18.1442 
        1.65673         126.157         17.9863         17.9863 
        1.66285         125.643         17.8308         17.8308 
        1.66898         124.485          17.677          17.677 
        1.67512         123.896         17.5248         17.5248 
        1.68127          123.21         17.3742         17.3742 
         1.6874         122.208         17.2257         17.2257 
        1.69353         121.823         17.0791         17.0791 
        1.69967         120.876         16.9339         16.9339 
        1.70581          120.57         16.7904         16.7904 
        1.71193         119.582         16.6491         16.6491 
        1.71806         118.694         16.5092         16.5092 
        1.72421         118.247         16.3706         16.3706 
        1.73035         117.584         16.2337         16.2337 
        1.73649         116.639         16.0985         16.0985 
        1.74262         116.366         15.9649         15.9649 
        1.74876         115.406         15.8328         15.8328 
        1.75489         114.944         15.7024         15.7024 
        1.76101         114.221         15.5736         15.5736 
        1.76715         113.261          15.446          15.446 
        1.77329         112.891         15.3198         15.3198 
        1.77943         112.004         15.1948         15.1948 
        1.78557         111.651         15.0715         15.0715 
        1.79171         111.061         14.9496         14.9496 
        1.79785         110.001         14.8289         14.8289 
        1.80399         109.744         14.7097         14.7097 
        1.81012         108.706         14.5919         14.5919 
        1.81625         108.424         14.4755         14.4755 
        1.82239         107.771         14.3601         14.3601 
        1.82853         107.203         14.2461         14.2461 
        1.83466         106.335         14.1335         14.1335 
        1.84078         105.996         14.0222         14.0222 
        1.84692         105.653         13.9119         13.9119 
        1.85306          104.76         13.8027         13.8027 
         1.8592         104.339         13.6948         13.6948 
        1.86533         103.463         13.5882         13.5882 
        1.87147         103.178         13.4826         13.4826 
        1.87761         102.238          13.378          13.378 
