# k  (h/Mpc)    Pcb(k)  (Mpc/h)^3    Pcb_linear(k) (Mpc/h)^3    Pcb_NL(k) (Mpc/h)^3   ShotnoiseSubtracted = false
     0.00783031         9561.41         9610.46         9610.46 
       0.013688         11882.6         12149.5         12149.5 
       0.019231         12366.2         12522.3         12522.3 
      0.0249154         11805.7         11793.5         11793.5 
      0.0312784         10356.1         10448.4         10448.4 
      0.0375637         8974.68         9116.75         9116.75 
      0.0433917         8063.68         8110.42         8110.42 
      0.0492413         7260.83         7360.36         7360.36 
      0.0555754         6721.78         6772.44         6772.44 
      0.0619321         6086.26         6298.88         6298.88 
       0.067871         5743.55         5867.25         5867.25 
      0.0738098         5323.14          5399.1          5399.1 
      0.0800417         4822.92         4871.42         4871.42 
      0.0862327         4297.66         4350.65         4350.65 
      0.0921407         3875.03         3902.81         3902.81 
      0.0982031         3546.05         3525.26         3525.26 
       0.104506         3207.48         3229.46         3229.46 
       0.110769         3006.91          3017.5          3017.5 
       0.116806         2895.23         2861.68         2861.68 
       0.122832         2722.45         2722.98         2722.98 
       0.129052         2577.58         2573.11         2573.11 
       0.135211         2463.13         2407.47         2407.47 
       0.141259         2267.39         2232.11         2232.11 
       0.147318         2079.97         2056.76         2056.76 
       0.153489         1949.22         1893.38         1893.38 
       0.159709         1858.54         1754.98         1754.98 
       0.165845          1707.2         1647.24         1647.24 
       0.171974         1671.85         1564.07         1564.07 
       0.178125         1615.47         1496.53         1496.53 
       0.184229         1503.19         1435.67         1435.67 
        0.19034         1471.57         1373.35         1373.35 
       0.196428          1420.1         1306.29         1306.29 
       0.202534         1323.73         1234.71         1234.71 
       0.208729         1291.61         1161.37         1161.37 
       0.214876         1233.06         1092.59         1092.59 
       0.220989         1158.59         1031.77         1031.77 
       0.227147         1131.68          979.77          979.77 
        0.23329         1090.15         936.523         936.523 
       0.239377         1076.42         899.928         899.928 
       0.245482         1024.69         866.621         866.621 
       0.251667         986.091         833.768         833.768 
       0.257832         973.249          800.32          800.32 
       0.263955         922.744         766.157         766.157 
       0.270079         892.907          731.81          731.81 
        0.27624         854.565         698.357         698.357 
       0.282372         838.599         667.399         667.399 
        0.28843         829.968         639.786         639.786 
       0.294538         788.716         615.045         615.045 
       0.300721         768.086         592.674         592.674 
        0.30691         754.546          572.15          572.15 
       0.313033         722.932         552.845         552.845 
       0.319153         712.114         533.938         533.938 
       0.325316         700.417         515.006         515.006 
        0.33145         685.005         496.344         496.344 
       0.337538          660.73         478.276         478.276 
       0.343633         642.042         461.002         461.002 
       0.349808         627.409         444.588         444.588 
       0.355968         615.692         429.436         429.436 
       0.362074         596.078         415.536         415.536 
       0.368217         592.799         402.493         402.493 
       0.374374         582.342         390.109         390.109 
       0.380519         559.997         378.202         378.202 
       0.386598         554.023         366.742         366.742 
       0.392688         541.943          355.52          355.52 
        0.39888         527.753         344.414         344.414 
       0.405048         518.635         333.745         333.745 
       0.411186         516.447         323.588         323.588 
       0.417313         510.196         313.963         313.963 
       0.423458         495.279         304.835         304.835 
       0.429607         482.295          296.17          296.17 
       0.435692         475.106         288.001         288.001 
       0.441815         467.642         280.114         280.114 
       0.447964         457.572         272.462         272.462 
       0.454126         452.206         265.025         265.025 
       0.460267         445.025         257.842         257.842 
       0.466387         437.767         250.913         250.913 
        0.47254         431.326         244.189         244.189 
       0.478662          421.89         237.757         237.757 
       0.484765          417.38         231.611         231.611 
       0.490885         413.152         225.702         225.702 
       0.497035         405.232         219.996         219.996 
       0.503198         404.169         214.494         214.494 
       0.509342         394.435         209.203         209.203 
       0.515458         388.283         204.107         204.107 
       0.521598         382.006         199.148         199.148 
       0.527764         376.537          194.32          194.32 
       0.533884         374.987         189.682         189.682 
           0.54         369.209         185.202         185.202 
       0.546137         361.429         180.859         180.859 
       0.552299         360.615         176.645         176.645 
       0.558452         354.685         172.581         172.581 
       0.564573         351.331         168.673         168.673 
       0.570708         346.498         164.884         164.884 
       0.576825         340.353         161.224         161.224 
       0.582926         337.829         157.685         157.685 
       0.589034         332.981         154.245         154.245 
       0.595184         330.747         150.882         150.882 
       0.601379          325.19         147.597         147.597 
       0.607522         319.207         144.437         144.437 
       0.613639          317.62         141.387         141.387 
       0.619772         316.148          138.42          138.42 
       0.625918         311.172         135.537         135.537 
       0.632068         307.038         132.735         132.735 
       0.638161         304.404          130.04          130.04 
         0.6443         301.864           127.4           127.4 
       0.650464         297.144         124.825         124.825 
       0.656582         294.536         122.339         122.339 
       0.662703         292.482         119.922         119.922 
       0.668861         287.486         117.557         117.557 
       0.675024         286.242         115.256         115.256 
       0.681124         282.857          113.04          113.04 
       0.687237         280.416         110.879         110.879 
       0.693381         277.061         108.765         108.765 
       0.699536           274.7         106.704         106.704 
       0.705665         271.856         104.706         104.706 
       0.711789         269.567         102.762         102.762 
       0.717957          266.53         100.854         100.854 
        0.72409         263.635          99.006          99.006 
       0.730186         264.941         97.2163         97.2163 
       0.736317          260.25         95.4617         95.4617 
       0.742472         257.138         93.7446         93.7446 
       0.748622         253.847         92.0719         92.0719 
        0.75476         254.306         90.4442         90.4442 
       0.760888         251.068          88.859          88.859 
       0.767043          247.98         87.3059         87.3059 
       0.773185         246.555         85.7938         85.7938 
       0.779291         242.888         84.3266         84.3266 
       0.785407         241.993         82.8921         82.8921 
       0.791564         239.664         81.4823         81.4823 
       0.797719         236.013         80.1064         80.1064 
       0.803834         237.511         78.7715         78.7715 
       0.809972          234.58         77.4626         77.4626 
       0.816124         231.305         76.1809         76.1809 
       0.822261         229.327         74.9321         74.9321 
       0.828378          229.18         73.7154         73.7154 
       0.834502         225.686         72.5251         72.5251 
       0.840667         225.539         71.3536         71.3536 
       0.846816         221.883         70.2117         70.2117 
       0.852925         221.112         69.1023         69.1023 
       0.859047         218.826         68.0148         68.0148 
       0.865192         218.476         66.9475         66.9475 
       0.871341         215.477         65.9026         65.9026 
       0.877463         213.725         64.8851         64.8851 
       0.883569         213.437         63.8919         63.8919 
       0.889708         211.353         62.9147         62.9147 
       0.895864         209.537         61.9557         61.9557 
       0.902008         207.465         61.0189         61.0189 
       0.908149         205.702         60.1023         60.1023 
       0.914301         204.844         59.2033         59.2033 
       0.920448         204.185         58.3237         58.3237 
       0.926574           201.6         57.4654         57.4654 
       0.932687         200.792         56.6263         56.6263 
       0.938823          199.19         55.8012         55.8012 
       0.944975         197.825         54.9908         54.9908 
       0.951105         195.983         54.1996         54.1996 
       0.957225          194.91         53.4256         53.4256 
       0.963368         193.734         52.6642         52.6642 
       0.969511         191.112         51.9178         51.9178 
       0.975621         189.929         51.1901         51.1901 
       0.981748         188.829         50.4746         50.4746 
       0.987916         188.019         49.7685         49.7685 
        0.99406         186.501         49.0786         49.0786 
        1.00019         185.326         48.4033         48.4033 
        1.00632         184.431         47.7415         47.7415 
        1.01246         182.896         47.0912         47.0912 
        1.01859          181.32         46.4542         46.4542 
        1.02471         179.945         45.8299         45.8299 
        1.03085         178.874         45.2151         45.2151 
        1.03698         177.555         44.6129         44.6129 
        1.04314         177.197         44.0193         44.0193 
        1.04929         176.051          43.438          43.438 
        1.05541         174.729         42.8697         42.8697 
        1.06154         173.285         42.3102         42.3102 
        1.06769         172.072           41.76           41.76 
        1.07382         171.504         41.2215         41.2215 
        1.07993         169.847         40.6938         40.6938 
        1.08607         168.797         40.1732         40.1732 
        1.09222         167.773         39.6613         39.6613 
        1.09836         166.819          39.159          39.159 
        1.10449         165.325         38.6661         38.6661 
        1.11063         164.319         38.1812         38.1812 
        1.11677         163.655         37.7049         37.7049 
         1.1229         162.257         37.2376         37.2376 
        1.12903         161.557         36.7779         36.7779 
        1.13518         160.314         36.3257         36.3257 
        1.14131         159.419         35.8814         35.8814 
        1.14745           158.2         35.4449         35.4449 
        1.15359         156.678         35.0156         35.0156 
        1.15973         156.391         34.5934         34.5934 
        1.16584         155.556           34.18           34.18 
        1.17197         154.626         33.7729         33.7729 
        1.17811         153.113         33.3713         33.3713 
        1.18424         152.423         32.9774         32.9774 
        1.19038         151.495         32.5888         32.5888 
        1.19652         150.398         32.2067         32.2067 
        1.20267         149.516         31.8307         31.8307 
        1.20881         148.444         31.4609         31.4609 
        1.21495         148.079         31.0976         31.0976 
        1.22108         146.899         30.7402         30.7402 
         1.2272         145.809         30.3893         30.3893 
        1.23334         145.317         30.0431         30.0431 
        1.23949         144.724         29.7015         29.7015 
        1.24562         143.514         29.3662         29.3662 
        1.25174         142.496         29.0367         29.0367 
        1.25789         141.617         28.7113         28.7113 
        1.26402         141.355         28.3915         28.3915 
        1.27014         140.272         28.0774         28.0774 
        1.27628          138.77         27.7671         27.7671 
        1.28244         138.568          27.461          27.461 
        1.28858         137.421         27.1599         27.1599 
        1.29471         136.653         26.8641         26.8641 
        1.30084         135.801          26.573          26.573 
        1.30697         135.128         26.2858         26.2858 
        1.31312         134.178         26.0024         26.0024 
        1.31925         133.171         25.7242         25.7242 
        1.32537         132.732         25.4503         25.4503 
        1.33151         132.111         25.1795         25.1795 
        1.33765         130.741         24.9128         24.9128 
        1.34378         130.706         24.6505         24.6505 
        1.34992         130.034         24.3918         24.3918 
        1.35606         129.012         24.1364         24.1364 
         1.3622          128.77         23.8851         23.8851 
        1.36833         127.177         23.6379         23.6379 
        1.37445         127.018         23.3945         23.3945 
        1.38059         126.218         23.1538         23.1538 
        1.38675         125.326         22.9159         22.9159 
        1.39288         124.479         22.6823         22.6823 
        1.39901         123.743         22.4521         22.4521 
        1.40515         123.347         22.2246         22.2246 
         1.4113         122.591         22.0004         22.0004 
        1.41742         121.713         21.7802         21.7802 
        1.42355         121.418         21.5625         21.5625 
         1.4297         120.402         21.3473         21.3473 
        1.43585         119.645          21.135          21.135 
        1.44198         118.752         20.9265         20.9265 
        1.44809         117.998         20.7213         20.7213 
        1.45423         117.779          20.518          20.518 
        1.46036         116.778         20.3179         20.3179 
        1.46649         116.103         20.1203         20.1203 
        1.47263         115.769         19.9253         19.9253 
        1.47877         114.732          19.733          19.733 
        1.48491         114.259         19.5429         19.5429 
        1.49104         112.976         19.3558         19.3558 
        1.49718         112.961         19.1709         19.1709 
        1.50333         112.445         18.9883         18.9883 
        1.50947         111.772         18.8084         18.8084 
         1.5156         111.115         18.6311         18.6311 
        1.52172         110.378         18.4561         18.4561 
        1.52787         109.801          18.283          18.283 
          1.534          109.22         18.1124         18.1124 
        1.54013         108.673         17.9442         17.9442 
        1.54627         107.798         17.7778         17.7778 
        1.55241         107.456         17.6135         17.6135 
        1.55855         106.697         17.4515         17.4515 
        1.56467         105.925          17.292          17.292 
         1.5708         105.351         17.1341         17.1341 
        1.57695         105.005         16.9779         16.9779 
        1.58308         104.301          16.824          16.824 
        1.58922         104.253          16.672          16.672 
        1.59535         103.618         16.5219         16.5219 
         1.6015          102.63         16.3734         16.3734 
        1.60764         102.002         16.2269         16.2269 
        1.61376         101.507         16.0826         16.0826 
        1.61989          101.02         15.9399         15.9399 
        1.62604         100.433         15.7986         15.7986 
        1.63218         100.059         15.6592         15.6592 
        1.63831          99.303         15.5218         15.5218 
        1.64444         98.7477          15.386          15.386 
        1.65059         98.1389         15.2515         15.2515 
        1.65673         97.7474         15.1187         15.1187 
        1.66285         97.1808          14.988          14.988 
        1.66898         96.5126         14.8587         14.8587 
        1.67512         96.0952         14.7308         14.7308 
        1.68127         95.5905         14.6042         14.6042 
         1.6874         94.9023         14.4794         14.4794 
        1.69353         94.3296         14.3562         14.3562 
        1.69967         93.9802         14.2341         14.2341 
        1.70581         93.5898         14.1135         14.1135 
        1.71193         92.9014         13.9947         13.9947 
        1.71806         92.3663         13.8771         13.8771 
        1.72421         91.8267         13.7606         13.7606 
        1.73035         91.5261         13.6456         13.6456 
        1.73649         90.9034         13.5319         13.5319 
        1.74262         90.3435         13.4196         13.4196 
        1.74876         89.8283         13.3085         13.3085 
        1.75489         89.3628          13.199          13.199 
        1.76101          88.804         13.0907         13.0907 
        1.76715         88.3444         12.9835         12.9835 
        1.77329         87.9302         12.8773         12.8773 
        1.77943         87.4706         12.7723         12.7723 
        1.78557         87.0623         12.6687         12.6687 
        1.79171         86.5978         12.5661         12.5661 
        1.79785         85.8673         12.4647         12.4647 
        1.80399         85.7118         12.3645         12.3645 
        1.81012         84.9971         12.2655         12.2655 
        1.81625         84.5888         12.1676         12.1676 
        1.82239         84.2673         12.0707         12.0707 
        1.82853         83.6644         11.9748         11.9748 
        1.83466          83.102         11.8802         11.8802 
        1.84078         82.8529         11.7866         11.7866 
        1.84692         82.5942         11.6939         11.6939 
        1.85306         81.9752         11.6021         11.6021 
         1.8592          81.641         11.5114         11.5114 
        1.86533         81.1662         11.4218         11.4218 
        1.87147         80.6309          11.333          11.333 
