# k  (h/Mpc)    P(k)  (Mpc/h)^3    P_linear(k)  (Mpc/h)^3     P_NL(k)  ShotnoiseSubtracted = false
     0.00783031         9090.03          9137.1          9137.1 
       0.013688         11301.8         11551.2         11551.2 
       0.019231         11760.9         11905.8         11905.8 
      0.0249154         11225.1         11212.9         11212.9 
      0.0312784         9849.83         9934.04         9934.04 
      0.0375637         8537.37         8667.96         8667.96 
      0.0433917         7669.75         7711.18         7711.18 
      0.0492413         6907.09         6998.04         6998.04 
      0.0555754         6394.38         6439.07         6439.07 
      0.0619321         5792.57         5988.83         5988.83 
       0.067871         5465.69         5578.45         5578.45 
      0.0738098         5064.45         5133.34         5133.34 
      0.0800417         4588.63         4631.64         4631.64 
      0.0862327         4088.65          4136.5          4136.5 
      0.0921407         3685.64          3710.7          3710.7 
      0.0982031         3371.78         3351.74         3351.74 
       0.104506          3050.1          3070.5          3070.5 
       0.110769          2859.2         2868.97         2868.97 
       0.116806         2752.73         2720.83         2720.83 
       0.122832         2588.36         2588.95         2588.95 
       0.129052         2451.24         2446.45         2446.45 
       0.135211         2341.02         2288.97         2288.97 
       0.141259         2155.15         2122.24         2122.24 
       0.147318         1976.42         1955.52         1955.52 
       0.153489         1851.49         1800.18         1800.18 
       0.159709         1764.04          1668.6          1668.6 
       0.165845          1620.5         1566.16         1566.16 
       0.171974         1586.78         1487.09         1487.09 
       0.178125         1532.51         1422.87         1422.87 
       0.184229         1426.97            1365            1365 
        0.19034         1396.26         1305.75         1305.75 
       0.196428         1346.82         1241.99         1241.99 
       0.202534         1254.99         1173.93         1173.93 
       0.208729         1224.08         1104.21         1104.21 
       0.214876         1168.61         1038.81         1038.81 
       0.220989         1097.01         980.983         980.983 
       0.227147         1071.65         931.544         931.544 
        0.23329         1032.36         890.426         890.426 
       0.239377         1018.52         855.632         855.632 
       0.245482         969.445         823.965         823.965 
       0.251667         932.776         792.731         792.731 
       0.257832         920.745         760.927         760.927 
       0.263955          872.46         728.444         728.444 
       0.270079         843.816         695.788         695.788 
        0.27624         807.446         663.983         663.983 
       0.282372         791.801         634.549         634.549 
        0.28843         783.953         608.295         608.295 
       0.294538         744.875         584.771         584.771 
       0.300721         724.802         563.501         563.501 
        0.30691          712.28         543.988         543.988 
       0.313033         682.329         525.633         525.633 
       0.319153         671.872         507.656         507.656 
       0.325316         660.354         489.656         489.656 
        0.33145           645.7         471.913         471.913 
       0.337538          622.75         454.734         454.734 
       0.343633         604.852          438.31          438.31 
       0.349808         590.832         422.704         422.704 
       0.355968         579.721         408.299         408.299 
       0.362074         561.437         395.082         395.082 
       0.368217         558.013         382.681         382.681 
       0.374374         547.905         370.907         370.907 
       0.380519         526.765         359.586         359.586 
       0.386598         520.895         348.692         348.692 
       0.392688         509.513         338.021         338.021 
        0.39888         496.144         327.461         327.461 
       0.405048         487.556         317.318         317.318 
       0.411186         485.336         307.661         307.661 
       0.417313         479.017         298.509         298.509 
       0.423458         465.149          289.83          289.83 
       0.429607         453.106         281.592         281.592 
       0.435692         446.065         273.825         273.825 
       0.441815         439.098         266.326         266.326 
       0.447964         429.302         259.051         259.051 
       0.454126         424.168          251.98          251.98 
       0.460267         417.511          245.15          245.15 
       0.466387         410.594         238.562         238.562 
        0.47254         404.667         232.169         232.169 
       0.478662          395.45         226.054         226.054 
       0.484765         391.187         220.211         220.211 
       0.490885         387.166         214.592         214.592 
       0.497035         379.908         209.167         209.167 
       0.503198         378.641         203.937         203.937 
       0.509342         369.323         198.905         198.905 
       0.515458         363.786         194.061         194.061 
       0.521598         357.542         189.345         189.345 
       0.527764         352.657         184.755         184.755 
       0.533884          351.31         180.346         180.346 
           0.54         345.588         176.086         176.086 
       0.546137         338.179         171.956         171.956 
       0.552299          337.31          167.95          167.95 
       0.558452         331.714         164.087         164.087 
       0.564573         328.658         160.371         160.371 
       0.570708          323.83         156.768         156.768 
       0.576825         318.231         153.288         153.288 
       0.582926         315.688         149.923         149.923 
       0.589034         311.224         146.653         146.653 
       0.595184         309.145         143.456         143.456 
       0.601379         303.864         140.332         140.332 
       0.607522         298.252         137.328         137.328 
       0.613639         296.669         134.427         134.427 
       0.619772          295.16         131.607         131.607 
       0.625918         290.773         128.865         128.865 
       0.632068         286.515         126.202         126.202 
       0.638161         284.062         123.639         123.639 
         0.6443         281.846         121.129         121.129 
       0.650464         277.242          118.68          118.68 
       0.656582         274.889         116.318         116.318 
       0.662703         272.934         114.019         114.019 
       0.668861         268.171         111.771         111.771 
       0.675024         267.153         109.583         109.583 
       0.681124         263.944         107.476         107.476 
       0.687237         261.524         105.421         105.421 
       0.693381         258.488         103.412         103.412 
       0.699536         256.153         101.452         101.452 
       0.705665         253.484         99.5522         99.5522 
       0.711789          251.19         97.7035         97.7035 
       0.717957         248.439         95.8897         95.8897 
        0.72409         245.794         94.1328         94.1328 
       0.730186         246.874         92.4311         92.4311 
       0.736317         242.562         90.7629         90.7629 
       0.742472         239.546         89.1303         89.1303 
       0.748622         236.362           87.54           87.54 
        0.75476         236.968         85.9924         85.9924 
       0.760888         233.928         84.4852         84.4852 
       0.767043         230.896         83.0086         83.0086 
       0.773185         229.463         81.5709         81.5709 
       0.779291         226.134         80.1759         80.1759 
       0.785407         225.232          78.812          78.812 
       0.791564          223.09         77.4716         77.4716 
       0.797719         219.738         76.1635         76.1635 
       0.803834         220.958         74.8942         74.8942 
       0.809972         218.422         73.6497         73.6497 
       0.816124         215.316         72.4312         72.4312 
       0.822261          213.47         71.2438         71.2438 
       0.828378         213.353          70.087          70.087 
       0.834502         210.052         68.9553         68.9553 
       0.840667         209.837         67.8415         67.8415 
       0.846816         206.627         66.7558         66.7558 
       0.852925          205.68          65.701          65.701 
       0.859047          203.55          64.667          64.667 
       0.865192         203.176         63.6522         63.6522 
       0.871341         200.444         62.6588         62.6588 
       0.877463         198.824         61.6913         61.6913 
       0.883569         198.608          60.747          60.747 
       0.889708         196.691         59.8179         59.8179 
       0.895864         194.949         58.9061         58.9061 
       0.902008         192.986         58.0154         58.0154 
       0.908149         191.253          57.144          57.144 
       0.914301          190.61         56.2892         56.2892 
       0.920448         189.963          55.453          55.453 
       0.926574         187.397         54.6368         54.6368 
       0.932687         186.738         53.8391         53.8391 
       0.938823         185.275         53.0545         53.0545 
       0.944975         183.858         52.2841         52.2841 
       0.951105          182.23         51.5318         51.5318 
       0.957225          181.37         50.7959         50.7959 
       0.963368         180.026          50.072          50.072 
       0.969511         177.797         49.3624         49.3624 
       0.975621         176.621         48.6704         48.6704 
       0.981748         175.521         47.9902         47.9902 
       0.987916          174.77         47.3188         47.3188 
        0.99406         173.451         46.6629         46.6629 
        1.00019         172.299         46.0208         46.0208 
        1.00632         171.421         45.3916         45.3916 
        1.01246         170.014         44.7733         44.7733 
        1.01859         168.624         44.1677         44.1677 
        1.02471         167.361         43.5741         43.5741 
        1.03085         166.296         42.9895         42.9895 
        1.03698         165.039          42.417          42.417 
        1.04314         164.643         41.8526         41.8526 
        1.04929         163.652         41.2999         41.2999 
        1.05541         162.434         40.7596         40.7596 
        1.06154         161.137         40.2276         40.2276 
        1.06769         159.983         39.7045         39.7045 
        1.07382         159.363         39.1925         39.1925 
        1.07993          157.97         38.6908         38.6908 
        1.08607         156.938         38.1958         38.1958 
        1.09222         156.025         37.7091         37.7091 
        1.09836         155.013         37.2316         37.2316 
        1.10449         153.699         36.7629         36.7629 
        1.11063          152.76         36.3019         36.3019 
        1.11677         152.124          35.849          35.849 
         1.1229         150.816         35.4047         35.4047 
        1.12903         150.177         34.9677         34.9677 
        1.13518         149.041         34.5377         34.5377 
        1.14131         148.187         34.1153         34.1153 
        1.14745         147.132         33.7003         33.7003 
        1.15359         145.672         33.2921         33.2921 
        1.15973          145.36         32.8906         32.8906 
        1.16584         144.559         32.4976         32.4976 
        1.17197         143.733         32.1106         32.1106 
        1.17811         142.352         31.7287         31.7287 
        1.18424         141.704         31.3542         31.3542 
        1.19038         140.906         30.9847         30.9847 
        1.19652         139.887         30.6214         30.6214 
        1.20267         139.026          30.264          30.264 
        1.20881         138.058         29.9123         29.9123 
        1.21495         137.663         29.5669         29.5669 
        1.22108         136.601         29.2271         29.2271 
         1.2272         135.591         28.8934         28.8934 
        1.23334         135.178         28.5643         28.5643 
        1.23949         134.575         28.2395         28.2395 
        1.24562         133.439         27.9208         27.9208 
        1.25174         132.481         27.6075         27.6075 
        1.25789         131.758         27.2981         27.2981 
        1.26402         131.424          26.994          26.994 
        1.27014         130.423         26.6954         26.6954 
        1.27628         129.048         26.4004         26.4004 
        1.28244         128.914         26.1093         26.1093 
        1.28858         127.781         25.8231         25.8231 
        1.29471          127.07         25.5418         25.5418 
        1.30084         126.298          25.265          25.265 
        1.30697         125.759         24.9919         24.9919 
        1.31312         124.836         24.7225         24.7225 
        1.31925         123.898          24.458          24.458 
        1.32537         123.475         24.1976         24.1976 
        1.33151         122.977         23.9401         23.9401 
        1.33765         121.688         23.6865         23.6865 
        1.34378         121.627         23.4371         23.4371 
        1.34992         121.035         23.1912         23.1912 
        1.35606         120.056         22.9483         22.9483 
         1.3622         119.873         22.7094         22.7094 
        1.36833         118.393         22.4745         22.4745 
        1.37445         118.191          22.243          22.243 
        1.38059         117.529         22.0141         22.0141 
        1.38675         116.618         21.7879         21.7879 
        1.39288         115.921         21.5658         21.5658 
        1.39901         115.146          21.347          21.347 
        1.40515         114.821         21.1307         21.1307 
         1.4113         114.142         20.9175         20.9175 
        1.41742         113.321         20.7081         20.7081 
        1.42355         113.006         20.5012         20.5012 
         1.4297         112.109         20.2965         20.2965 
        1.43585         111.372         20.0947         20.0947 
        1.44198         110.636         19.8965         19.8965 
        1.44809         109.882         19.7013         19.7013 
        1.45423         109.677         19.5081         19.5081 
        1.46036         108.745         19.3178         19.3178 
        1.46649         108.108           19.13           19.13 
        1.47263         107.806         18.9446         18.9446 
        1.47877         106.905         18.7617         18.7617 
        1.48491         106.404          18.581          18.581 
        1.49104         105.276          18.403          18.403 
        1.49718          105.25         18.2273         18.2273 
        1.50333          104.72         18.0536         18.0536 
        1.50947         104.184         17.8826         17.8826 
         1.5156         103.598          17.714          17.714 
        1.52172         102.849         17.5477         17.5477 
        1.52787         102.302         17.3831         17.3831 
          1.534         101.776         17.2209         17.2209 
        1.54013         101.313         17.0609         17.0609 
        1.54627         100.464         16.9027         16.9027 
        1.55241         100.129         16.7465         16.7465 
        1.55855         99.4396         16.5925         16.5925 
        1.56467         98.6794         16.4409         16.4409 
         1.5708         98.2395         16.2907         16.2907 
        1.57695         97.8915         16.1422         16.1422 
        1.58308         97.2679         15.9959         15.9959 
        1.58922         97.1667         15.8514         15.8514 
        1.59535         96.5851         15.7087         15.7087 
         1.6015          95.765         15.5675         15.5675 
        1.60764         95.1638         15.4282         15.4282 
        1.61376         94.6667          15.291          15.291 
        1.61989         94.1621         15.1553         15.1553 
        1.62604         93.6863          15.021          15.021 
        1.63218         93.3587         14.8884         14.8884 
        1.63831         92.6432         14.7578         14.7578 
        1.64444         92.1735         14.6287         14.6287 
        1.65059         91.6151         14.5008         14.5008 
        1.65673         91.1432         14.3746         14.3746 
        1.66285         90.5873         14.2502         14.2502 
        1.66898         90.0477         14.1274         14.1274 
        1.67512         89.6449         14.0057         14.0057 
        1.68127          89.214         13.8854         13.8854 
         1.6874         88.6012         13.7667         13.7667 
        1.69353         88.0477         13.6495         13.6495 
        1.69967         87.7518         13.5334         13.5334 
        1.70581         87.3388         13.4188         13.4188 
        1.71193         86.7158         13.3059         13.3059 
        1.71806         86.2059          13.194          13.194 
        1.72421         85.7536         13.0833         13.0833 
        1.73035         85.4943         12.9739         12.9739 
        1.73649         84.8916         12.8658         12.8658 
        1.74262         84.3085         12.7591         12.7591 
        1.74876         83.9158         12.6535         12.6535 
        1.75489         83.4077         12.5493         12.5493 
        1.76101         82.9074         12.4463         12.4463 
        1.76715         82.5613         12.3444         12.3444 
        1.77329         82.1094         12.2435         12.2435 
        1.77943         81.7363         12.1436         12.1436 
        1.78557         81.3489         12.0451         12.0451 
        1.79171         80.8782         11.9476         11.9476 
        1.79785         80.2679         11.8512         11.8512 
        1.80399         80.0478         11.7559         11.7559 
        1.81012         79.4376         11.6618         11.6618 
        1.81625         79.0832         11.5687         11.5687 
        1.82239         78.7815         11.4765         11.4765 
        1.82853         78.1739         11.3854         11.3854 
        1.83466         77.7099         11.2954         11.2954 
        1.84078         77.4537         11.2064         11.2064 
        1.84692         77.2129         11.1183         11.1183 
        1.85306         76.6412          11.031          11.031 
         1.8592         76.3166         10.9448         10.9448 
        1.86533         75.8876         10.8596         10.8596 
        1.87147         75.3862         10.7752         10.7752 
        1.87761         74.8763         10.6916         10.6916 
