# k  (h/Mpc)    P(k)  (Mpc/h)^3    P_linear(k)  (Mpc/h)^3     P_NL(k)  ShotnoiseSubtracted = false
     0.00783031         1274.51         1283.38         1283.38 
       0.013688         1605.26         1623.42         1623.42 
       0.019231         1665.57         1673.66         1673.66 
      0.0249154         1577.35         1576.47         1576.47 
      0.0312784         1395.05         1396.79         1396.79 
      0.0375637         1215.08         1218.84         1218.84 
      0.0433917         1085.97         1084.34         1084.34 
      0.0492413         982.404         984.085         984.085 
      0.0555754          907.25         905.498         905.498 
      0.0619321         834.654         842.195         842.195 
       0.067871         782.278         784.493         784.493 
      0.0738098         721.076         721.904         721.904 
      0.0800417         652.388         651.354         651.354 
      0.0862327          581.54         581.726         581.726 
      0.0921407         521.632         521.847         521.847 
      0.0982031         473.375         471.367         471.367 
       0.104506         430.649         431.817         431.817 
       0.110769         402.773         403.476         403.476 
       0.116806         384.614         382.643         382.643 
       0.122832         363.558         364.097         364.097 
       0.129052         344.833         344.058         344.058 
       0.135211          324.22          321.91          321.91 
       0.141259         299.486         298.464         298.464 
       0.147318         274.658         275.017         275.017 
       0.153489         254.333         253.171         253.171 
       0.159709         237.177         234.665         234.665 
       0.165845         220.195         220.259         220.259 
       0.171974         212.149         209.139         209.139 
       0.178125         202.894         200.107         200.107 
       0.184229         193.122         191.969         191.969 
        0.19034         186.336         183.636         183.636 
       0.196428         177.333          174.67          174.67 
       0.202534         165.899         165.098         165.098 
       0.208729         158.078         155.293         155.293 
       0.214876         150.045         146.095         146.095 
       0.220989         139.853         137.963         137.963 
       0.227147         135.068          131.01          131.01 
        0.23329         129.496         125.227         125.227 
       0.239377         124.976         120.334         120.334 
       0.245482         119.784          115.88          115.88 
       0.251667         114.705         111.488         111.488 
       0.257832         111.606         107.015         107.015 
       0.263955         105.936         102.447         102.447 
       0.270079          101.41          97.854          97.854 
        0.27624         96.4513         93.3809         93.3809 
       0.282372          92.671         89.2415         89.2415 
        0.28843          90.354         85.5492         85.5492 
       0.294538          86.592         82.2409         82.2409 
       0.300721         82.9157         79.2495         79.2495 
        0.30691          81.011         76.5052         76.5052 
       0.313033          77.985         73.9238         73.9238 
       0.319153         76.3532         71.3956         71.3956 
       0.325316           72.77         68.8641         68.8641 
        0.33145         70.2447         66.3687         66.3687 
       0.337538         68.0051         63.9528         63.9528 
       0.343633         65.8807          61.643          61.643 
       0.349808          63.565         59.4482         59.4482 
       0.355968         61.4561         57.4223         57.4223 
       0.362074         60.0968         55.5635         55.5635 
       0.368217         58.2897         53.8195         53.8195 
       0.374374         57.0321         52.1636         52.1636 
       0.380519         54.6914         50.5714         50.5714 
       0.386598          53.057         49.0393         49.0393 
       0.392688         51.4339         47.5385         47.5385 
        0.39888         50.3148         46.0535         46.0535 
       0.405048          48.994         44.6269         44.6269 
       0.411186         47.5734         43.2688         43.2688 
       0.417313         46.2178         41.9817         41.9817 
       0.423458         44.8231         40.7611         40.7611 
       0.429607         44.0141         39.6026         39.6026 
       0.435692         43.1453         38.5102         38.5102 
       0.441815         41.5671         37.4556         37.4556 
       0.447964         40.2757         36.4324         36.4324 
       0.454126         39.5678         35.4379         35.4379 
       0.460267          39.045         34.4774         34.4774 
       0.466387         37.8867         33.5509         33.5509 
        0.47254         37.2233         32.6518         32.6518 
       0.478662         36.0755         31.7918         31.7918 
       0.484765         35.2748         30.9701         30.9701 
       0.490885         34.2662         30.1798         30.1798 
       0.497035         33.5893         29.4169         29.4169 
       0.503198         32.8605         28.6812         28.6812 
       0.509342         31.9552         27.9737         27.9737 
       0.515458         31.4967         27.2923         27.2923 
       0.521598         30.7583         26.6292         26.6292 
       0.527764         30.3078         25.9836         25.9836 
       0.533884         29.4807         25.3635         25.3635 
           0.54         28.8987         24.7644         24.7644 
       0.546137         28.0312         24.1836         24.1836 
       0.552299         27.5531         23.6202         23.6202 
       0.558452         26.9605         23.0768         23.0768 
       0.564573         26.6093         22.5542         22.5542 
       0.570708         25.9472         22.0475         22.0475 
       0.576825         25.5347         21.5582         21.5582 
       0.582926         25.0339          21.085          21.085 
       0.589034         24.5469         20.6249         20.6249 
       0.595184         24.2067         20.1753         20.1753 
       0.601379         23.5438          19.736          19.736 
       0.607522         23.1533         19.3135         19.3135 
       0.613639         22.6983         18.9056         18.9056 
       0.619772         22.3311          18.509          18.509 
       0.625918         21.8546         18.1234         18.1234 
       0.632068         21.6325         17.7488         17.7488 
       0.638161         21.1681         17.3883         17.3883 
         0.6443         20.8003         17.0354         17.0354 
       0.650464         20.2835          16.691          16.691 
       0.656582         20.1329         16.3587         16.3587 
       0.662703          19.856         16.0355         16.0355 
       0.668861         19.3168         15.7193         15.7193 
       0.675024          19.036         15.4115         15.4115 
       0.681124         18.9403         15.1152         15.1152 
       0.687237         18.5324         14.8263         14.8263 
       0.693381         18.0901         14.5437         14.5437 
       0.699536         17.9871          14.268          14.268 
       0.705665         17.6381         14.0008         14.0008 
       0.711789         17.2913         13.7408         13.7408 
       0.717957         16.9298         13.4858         13.4858 
        0.72409           16.78         13.2387         13.2387 
       0.730186         16.6574         12.9993         12.9993 
       0.736317         16.2886         12.7647         12.7647 
       0.742472         16.0805         12.5351         12.5351 
       0.748622         15.8153         12.3115         12.3115 
        0.75476         15.4093         12.0938         12.0938 
       0.760888         15.3198         11.8818         11.8818 
       0.767043         15.0256         11.6742         11.6742 
       0.773185         14.8407          11.472          11.472 
       0.779291          14.734         11.2758         11.2758 
       0.785407         14.4472          11.084          11.084 
       0.791564         14.2896         10.8955         10.8955 
       0.797719         13.9913         10.7115         10.7115 
       0.803834         13.8994          10.533          10.533 
       0.809972           13.63          10.358          10.358 
       0.816124         13.4634         10.1866         10.1866 
       0.822261         13.2986         10.0196         10.0196 
       0.828378         13.1175         9.85691         9.85691 
       0.834502         12.9661         9.69775         9.69775 
       0.840667          12.829         9.54111         9.54111 
       0.846816         12.5535         9.38842         9.38842 
       0.852925         12.4575         9.24007         9.24007 
       0.859047         12.2926         9.09466         9.09466 
       0.865192         12.1126         8.95194         8.95194 
       0.871341         11.9392         8.81222         8.81222 
       0.877463         11.7996         8.67616         8.67616 
       0.883569         11.6987         8.54336         8.54336 
       0.889708         11.5028         8.41269         8.41269 
       0.895864         11.3569         8.28445         8.28445 
       0.902008          11.202         8.15919         8.15919 
       0.908149           11.05         8.03663         8.03663 
       0.914301         10.9715         7.91642         7.91642 
       0.920448         10.8087         7.79881         7.79881 
       0.926574         10.7357         7.68403         7.68403 
       0.932687         10.5566         7.57183         7.57183 
       0.938823         10.4063          7.4615          7.4615 
       0.944975         10.3241         7.35314         7.35314 
       0.951105         10.1701         7.24735         7.24735 
       0.957225         10.1044         7.14385         7.14385 
       0.963368         9.96246         7.04204         7.04204 
       0.969511         9.84653         6.94224         6.94224 
       0.975621         9.73038         6.84493         6.84493 
       0.981748          9.5808         6.74926         6.74926 
       0.987916         9.50173         6.65483         6.65483 
        0.99406         9.42347         6.56259         6.56259 
        1.00019         9.32512         6.47229         6.47229 
        1.00632         9.23186          6.3838          6.3838 
        1.01246          9.1147         6.29684         6.29684 
        1.01859         9.00165         6.21166         6.21166 
        1.02471         8.87534         6.12819         6.12819 
        1.03085         8.84028         6.04597         6.04597 
        1.03698          8.7383         5.96546         5.96546 
        1.04314         8.63614         5.88608         5.88608 
        1.04929           8.506         5.80835         5.80835 
        1.05541         8.44793         5.73236         5.73236 
        1.06154         8.36785         5.65755         5.65755 
        1.06769         8.31865         5.58397         5.58397 
        1.07382         8.16889         5.51197         5.51197 
        1.07993         8.08563          5.4414          5.4414 
        1.08607         8.04127          5.3718          5.3718 
        1.09222         7.92524         5.30335         5.30335 
        1.09836         7.90927         5.23618         5.23618 
        1.10449         7.74657         5.17027         5.17027 
        1.11063         7.72201         5.10544         5.10544 
        1.11677         7.64805         5.04174         5.04174 
         1.1229         7.57468         4.97926         4.97926 
        1.12903         7.51216          4.9178          4.9178 
        1.13518         7.39448         4.85733         4.85733 
        1.14131         7.33144         4.79792         4.79792 
        1.14745         7.23654         4.73955         4.73955 
        1.15359          7.1798         4.68215         4.68215 
        1.15973          7.1084         4.62568         4.62568 
        1.16584         7.05218         4.57041         4.57041 
        1.17197         6.97825         4.51598         4.51598 
        1.17811         6.90888         4.46227         4.46227 
        1.18424         6.84995          4.4096          4.4096 
        1.19038         6.79673         4.35764         4.35764 
        1.19652         6.74225         4.30654         4.30654 
        1.20267         6.67977         4.25627         4.25627 
        1.20881         6.60417         4.20682         4.20682 
        1.21495         6.54916         4.15825         4.15825 
        1.22108         6.49601         4.11045         4.11045 
         1.2272          6.4228         4.06353         4.06353 
        1.23334         6.40789         4.01723         4.01723 
        1.23949         6.32209         3.97156         3.97156 
        1.24562         6.27158         3.92673         3.92673 
        1.25174         6.23014         3.88267         3.88267 
        1.25789         6.13374         3.83916         3.83916 
        1.26402         6.10598         3.79639         3.79639 
        1.27014         6.06179         3.75439         3.75439 
        1.27628         5.98635         3.71291         3.71291 
        1.28244         5.96164         3.67197         3.67197 
        1.28858         5.92021         3.63172         3.63172 
        1.29471          5.8331         3.59216         3.59216 
        1.30084         5.78373         3.55323         3.55323 
        1.30697         5.76034         3.51483         3.51483 
        1.31312         5.70322         3.47694         3.47694 
        1.31925          5.6536         3.43973         3.43973 
        1.32537         5.61561         3.40311         3.40311 
        1.33151         5.56114         3.36689         3.36689 
        1.33765         5.51433         3.33123         3.33123 
        1.34378         5.49614         3.29616         3.29616 
        1.34992         5.43698         3.26158         3.26158 
        1.35606         5.39701         3.22742         3.22742 
         1.3622          5.3501         3.19381         3.19381 
        1.36833         5.30144         3.16077         3.16077 
        1.37445         5.25252         3.12822         3.12822 
        1.38059          5.2151         3.09603         3.09603 
        1.38675         5.17326         3.06422         3.06422 
        1.39288         5.14114         3.03298         3.03298 
        1.39901         5.08446          3.0022          3.0022 
        1.40515         5.05329         2.97178         2.97178 
         1.4113         5.01434          2.9418          2.9418 
        1.41742         4.97688         2.91235         2.91235 
        1.42355         4.93408         2.88326         2.88326 
         1.4297          4.9061         2.85447         2.85447 
        1.43585          4.8712         2.82609         2.82609 
        1.44198         4.82653         2.79821         2.79821 
        1.44809         4.80217         2.77076         2.77076 
        1.45423         4.75847         2.74358         2.74358 
        1.46036          4.7292         2.71682         2.71682 
        1.46649         4.68442         2.69041         2.69041 
        1.47263         4.66403         2.66433         2.66433 
        1.47877         4.62595         2.63861         2.63861 
        1.48491          4.5947          2.6132          2.6132 
        1.49104         4.55487         2.58817         2.58817 
        1.49718         4.53129         2.56346         2.56346 
        1.50333         4.49293         2.53903         2.53903 
        1.50947         4.44832         2.51498         2.51498 
         1.5156         4.43363         2.49127         2.49127 
        1.52172         4.40281         2.46788         2.46788 
        1.52787         4.37098         2.44473         2.44473 
          1.534         4.33715         2.42192         2.42192 
        1.54013         4.30971         2.39942         2.39942 
        1.54627         4.27779         2.37717         2.37717 
        1.55241         4.24083          2.3552          2.3552 
        1.55855         4.22389         2.33354         2.33354 
        1.56467         4.19312         2.31222         2.31222 
         1.5708         4.16171          2.2911          2.2911 
        1.57695         4.12109         2.27022         2.27022 
        1.58308         4.09229         2.24964         2.24964 
        1.58922          4.0803         2.22931         2.22931 
        1.59535         4.04808         2.20924         2.20924 
         1.6015         4.01264         2.18939         2.18939 
        1.60764         3.99664          2.1698          2.1698 
        1.61376         3.96603          2.1505          2.1505 
        1.61989         3.92894         2.13142         2.13142 
        1.62604         3.90823         2.11253         2.11253 
        1.63218          3.8889         2.09389         2.09389 
        1.63831         3.87107         2.07551         2.07551 
        1.64444         3.83697         2.05735         2.05735 
        1.65059         3.81798         2.03937         2.03937 
        1.65673         3.78821         2.02162         2.02162 
        1.66285         3.76416         2.00413         2.00413 
        1.66898         3.73775         1.98685         1.98685 
        1.67512         3.71124         1.96974         1.96974 
        1.68127         3.68633         1.95281         1.95281 
         1.6874         3.67425         1.93613         1.93613 
        1.69353         3.63478         1.91965         1.91965 
        1.69967         3.62037         1.90332         1.90332 
        1.70581         3.59769          1.8872          1.8872 
        1.71193          3.5708         1.87132         1.87132 
        1.71806         3.55243         1.85559         1.85559 
        1.72421         3.53064         1.84001         1.84001 
        1.73035         3.50547         1.82463         1.82463 
        1.73649         3.48582         1.80943         1.80943 
        1.74262         3.46565         1.79442         1.79442 
        1.74876          3.4478         1.77957         1.77957 
        1.75489          3.4237         1.76491         1.76491 
        1.76101         3.39883         1.75043         1.75043 
        1.76715         3.38942          1.7361          1.7361 
        1.77329         3.36281          1.7219          1.7219 
        1.77943         3.33906         1.70786         1.70786 
        1.78557         3.32197           1.694           1.694 
        1.79171         3.30651         1.68029         1.68029 
        1.79785         3.28614         1.66673         1.66673 
        1.80399         3.26011         1.65333         1.65333 
        1.81012         3.24394         1.64009         1.64009 
        1.81625         3.22283           1.627           1.627 
        1.82239         3.20816         1.61404         1.61404 
        1.82853         3.18639         1.60123         1.60123 
        1.83466         3.15939         1.58857         1.58857 
        1.84078         3.14395         1.57606         1.57606 
        1.84692         3.12753         1.56366         1.56366 
        1.85306         3.10946         1.55139         1.55139 
         1.8592         3.09605         1.53926         1.53926 
        1.86533         3.07557         1.52728         1.52728 
        1.87147         3.06065         1.51541         1.51541 
        1.87761         3.04634         1.50365         1.50365 
