# k  (h/Mpc)    P(k)  (Mpc/h)^3    P_linear(k)  (Mpc/h)^3     P_NL(k)  ShotnoiseSubtracted = false
     0.00783031         9866.55         9916.71         9916.71 
       0.013688         12256.4         12536.5         12536.5 
       0.019231         12756.2         12921.1         12921.1 
      0.0249154         12180.8           12169           12169 
      0.0312784           10682         10781.1         10781.1 
      0.0375637         9255.62         9407.01         9407.01 
      0.0433917         8317.14         8368.63         8368.63 
      0.0492413         7488.05         7594.68         7594.68 
      0.0555754         6932.01         6988.04         6988.04 
      0.0619321         6273.73         6499.41         6499.41 
       0.067871         5921.18         6054.04         6054.04 
      0.0738098         5489.02         5570.98         5570.98 
      0.0800417          4973.1          5026.5          5026.5 
      0.0862327         4431.76         4489.15         4489.15 
      0.0921407         3996.94         4027.05         4027.05 
      0.0982031         3658.62         3637.48         3637.48 
       0.104506         3309.06         3332.26         3332.26 
       0.110769         3102.33         3113.56         3113.56 
       0.116806         2987.35         2952.78         2952.78 
       0.122832         2809.23         2809.66         2809.66 
       0.129052         2659.07         2655.02         2655.02 
       0.135211         2542.43          2484.1          2484.1 
       0.141259         2340.24         2303.17         2303.17 
       0.147318         2147.45         2122.23         2122.23 
       0.153489         2013.19         1953.65         1953.65 
       0.159709         1920.93         1810.85         1810.85 
       0.165845         1764.43         1699.68         1699.68 
       0.171974         1728.02         1613.86         1613.86 
       0.178125         1670.55         1544.17         1544.17 
       0.184229         1553.43         1481.37         1481.37 
        0.19034          1521.5         1417.06         1417.06 
       0.196428         1468.92         1347.88         1347.88 
       0.202534         1369.73         1274.01         1274.01 
       0.208729         1336.94         1198.34         1198.34 
       0.214876         1276.31         1127.37         1127.37 
       0.220989         1200.35         1064.61         1064.61 
       0.227147         1172.33         1010.96         1010.96 
        0.23329         1129.26         966.335         966.335 
       0.239377          1115.9         928.576         928.576 
       0.245482         1062.45         894.208         894.208 
       0.251667         1022.58         860.312         860.312 
       0.257832         1009.11         825.797         825.797 
       0.263955         957.304         790.545         790.545 
       0.270079         926.829         755.105         755.105 
        0.27624         887.167         720.588         720.588 
       0.282372         871.187         688.645         688.645 
        0.28843         861.851         660.152         660.152 
       0.294538         819.185         634.623         634.623 
       0.300721         798.381          611.54          611.54 
        0.30691         784.007         590.363         590.363 
       0.313033         751.309         570.444         570.444 
       0.319153         740.337         550.934         550.934 
       0.325316         728.652         531.399         531.399 
        0.33145         712.731         512.143         512.143 
       0.337538          687.57           493.5           493.5 
       0.343633         668.438         475.676         475.676 
       0.349808         653.461          458.74          458.74 
       0.355968         641.316         443.107         443.107 
       0.362074         620.734         428.763         428.763 
       0.368217         617.642         415.305         415.305 
       0.374374         607.025         402.527         402.527 
       0.380519         583.869         390.241         390.241 
       0.386598         577.908         378.418         378.418 
       0.392688         565.307         366.837         366.837 
        0.39888          550.58         355.378         355.378 
       0.405048         541.063         344.369         344.369 
       0.411186         538.935         333.889         333.889 
       0.417313         532.885         323.957         323.957 
       0.423458          517.16         314.538         314.538 
       0.429607         503.458         305.598         305.598 
       0.435692         496.283         297.169         297.169 
       0.441815          488.41         289.031         289.031 
       0.447964         478.272         281.135         281.135 
       0.454126         472.745         273.461         273.461 
       0.460267         465.192         266.049         266.049 
       0.466387         457.702           258.9           258.9 
        0.47254         450.842         251.962         251.962 
       0.478662         441.379         245.325         245.325 
       0.484765         436.693         238.984         238.984 
       0.490885          432.31         232.886         232.886 
       0.497035         423.887         226.999         226.999 
       0.503198          423.01         221.322         221.322 
       0.509342         413.062         215.862         215.862 
       0.515458         406.381         210.605         210.605 
       0.521598         400.221         205.487         205.487 
       0.527764         394.218         200.506         200.506 
       0.533884         392.473          195.72          195.72 
           0.54         386.739         191.098         191.098 
       0.546137         378.756         186.616         186.616 
       0.552299         377.979         182.268         182.268 
       0.558452         371.825         178.075         178.075 
       0.564573         368.242         174.042         174.042 
       0.570708         363.488         170.132         170.132 
       0.576825         356.898         166.356         166.356 
       0.582926         354.456         162.704         162.704 
       0.589034         349.303         159.155         159.155 
       0.595184         346.929         155.685         155.685 
       0.601379         341.176         152.295         152.295 
       0.607522         334.942         149.035         149.035 
       0.613639         333.383         145.887         145.887 
       0.619772         331.952         142.827         142.827 
       0.625918         326.474         139.851         139.851 
       0.632068         322.556         136.961         136.961 
       0.638161         319.761         134.179         134.179 
         0.6443         316.934         131.455         131.455 
       0.650464         312.202         128.798         128.798 
       0.656582         309.403         126.234         126.234 
       0.662703         307.253          123.74          123.74 
       0.668861         302.128           121.3           121.3 
       0.675024         300.679         118.925         118.925 
       0.681124         297.136         116.638         116.638 
       0.687237         294.727         114.409         114.409 
       0.693381         291.117         112.228         112.228 
       0.699536         288.793         110.101         110.101 
       0.705665         285.792         108.039         108.039 
       0.711789         283.572         106.033         106.033 
       0.717957          280.28         104.064         104.064 
        0.72409         277.198         102.158         102.158 
       0.730186         278.675         100.311         100.311 
       0.736317         273.679         98.5005         98.5005 
       0.742472         270.548         96.7287         96.7287 
       0.748622         267.228         95.0028         95.0028 
        0.75476         267.479         93.3233         93.3233 
       0.760888         264.137         91.6876         91.6876 
       0.767043         261.057         90.0851         90.0851 
       0.773185         259.637         88.5248         88.5248 
       0.779291         255.721         87.0109         87.0109 
       0.785407          254.82         85.5307         85.5307 
       0.791564         252.367         84.0761         84.0761 
       0.797719         248.484         82.6564         82.6564 
       0.803834         250.215          81.279          81.279 
       0.809972          246.92         79.9284         79.9284 
       0.816124         243.557         78.6059         78.6059 
       0.822261         241.481         77.3174         77.3174 
       0.828378         241.276          76.062          76.062 
       0.834502         237.644         74.8337         74.8337 
       0.840667         237.565          73.625          73.625 
       0.846816         233.544         72.4467         72.4467 
       0.852925         232.973          71.302          71.302 
       0.859047         230.577         70.1799         70.1799 
       0.865192         230.222         69.0786         69.0786 
       0.871341         227.011         68.0005         68.0005 
       0.877463         225.172         66.9505         66.9505 
       0.883569         224.778         65.9257         65.9257 
       0.889708          222.57         64.9174         64.9174 
       0.895864           220.7         63.9278         63.9278 
       0.902008         218.594         62.9613         62.9613 
       0.908149         216.812         62.0155         62.0155 
       0.914301         215.767         61.0879         61.0879 
       0.920448         215.074         60.1803         60.1803 
       0.926574         212.534         59.2946         59.2946 
       0.932687         211.592         58.4288         58.4288 
       0.938823          209.85         57.5775         57.5775 
       0.944975         208.581         56.7413         56.7413 
       0.951105         206.552         55.9249         55.9249 
       0.957225         205.264         55.1263         55.1263 
       0.963368         204.312         54.3406         54.3406 
       0.969511         201.316         53.5705         53.5705 
       0.975621         200.163         52.8196         52.8196 
       0.981748         199.088         52.0814         52.0814 
       0.987916         198.224         51.3527         51.3527 
        0.99406         196.528         50.6409         50.6409 
        1.00019         195.326         49.9441         49.9441 
        1.00632          194.45         49.2612         49.2612 
        1.01246         192.805         48.5902         48.5902 
        1.01859         191.061          47.933          47.933 
        1.02471           189.6         47.2888         47.2888 
        1.03085         188.543         46.6544         46.6544 
        1.03698         187.207         46.0331         46.0331 
        1.04314         186.867         45.4206         45.4206 
        1.04929          185.59         44.8208         44.8208 
        1.05541         184.174         44.2343         44.2343 
        1.06154         182.616         43.6571         43.6571 
        1.06769         181.348         43.0893         43.0893 
        1.07382         180.847         42.5337         42.5337 
        1.07993         178.949         41.9891         41.9891 
        1.08607          177.89          41.452          41.452 
        1.09222         176.788         40.9238         40.9238 
        1.09836           175.9         40.4056         40.4056 
        1.10449         174.273         39.8969         39.8969 
        1.11063         173.202         39.3966         39.3966 
        1.11677         172.493         38.9051         38.9051 
         1.1229         171.054          38.423          38.423 
        1.12903         170.298         37.9487         37.9487 
        1.13518          168.97         37.4821         37.4821 
        1.14131         168.064         37.0236         37.0236 
        1.14745         166.673         36.5732         36.5732 
        1.15359         165.129         36.1303         36.1303 
        1.15973         164.865         35.6946         35.6946 
        1.16584         164.009         35.2681         35.2681 
        1.17197          162.98          34.848          34.848 
        1.17811         161.389         34.4336         34.4336 
        1.18424         160.648         34.0271         34.0271 
        1.19038         159.625         33.6262         33.6262 
        1.19652         158.435         33.2319         33.2319 
        1.20267         157.558          32.844          32.844 
        1.20881         156.404         32.4624         32.4624 
        1.21495          156.07         32.0875         32.0875 
        1.22108         154.809         31.7187         31.7187 
         1.2272         153.628         31.3566         31.3566 
        1.23334         153.064         30.9994         30.9994 
        1.23949         152.482          30.647          30.647 
        1.24562         151.217          30.301          30.301 
        1.25174         150.171          29.961          29.961 
        1.25789         149.147         29.6252         29.6252 
        1.26402         148.939         29.2953         29.2953 
        1.27014         147.836         28.9712         28.9712 
        1.27628         146.228          28.651          28.651 
        1.28244         145.934         28.3352         28.3352 
        1.28858         144.807         28.0245         28.0245 
        1.29471         144.003         27.7193         27.7193 
        1.30084         143.073         27.4189         27.4189 
        1.30697         142.277         27.1225         27.1225 
        1.31312         141.318         26.8301         26.8301 
        1.31925         140.286          26.543          26.543 
        1.32537         139.818         26.2604         26.2604 
        1.33151         139.083          25.981          25.981 
        1.33765         137.672         25.7058         25.7058 
        1.34378         137.635         25.4352         25.4352 
        1.34992          136.88         25.1683         25.1683 
        1.35606         135.848         24.9047         24.9047 
         1.3622         135.532         24.6454         24.6454 
        1.36833         133.876         24.3904         24.3904 
        1.37445         133.749         24.1392         24.1392 
        1.38059         132.803         23.8908         23.8908 
        1.38675         131.953         23.6453         23.6453 
        1.39288          130.99         23.4043         23.4043 
        1.39901          130.29         23.1668         23.1668 
        1.40515         129.825         22.9321         22.9321 
         1.4113         128.997         22.7007         22.7007 
        1.41742         128.068         22.4735         22.4735 
        1.42355         127.821         22.2489         22.2489 
         1.4297         126.696         22.0268         22.0268 
        1.43585         125.939         21.8078         21.8078 
        1.44198           124.9         21.5927         21.5927 
        1.44809         124.182         21.3809         21.3809 
        1.45423         123.924         21.1711         21.1711 
        1.46036         122.883         20.9646         20.9646 
        1.46649         122.172         20.7608         20.7608 
        1.47263         121.798         20.5596         20.5596 
        1.47877          120.67         20.3611         20.3611 
        1.48491         120.209          20.165          20.165 
        1.49104         118.811         19.9719         19.9719 
        1.49718         118.802         19.7812         19.7812 
        1.50333         118.296         19.5927         19.5927 
        1.50947         117.503         19.4071         19.4071 
         1.5156         116.769         19.2242         19.2242 
        1.52172         116.072         19.0436         19.0436 
        1.52787         115.464          18.865          18.865 
          1.534         114.845          18.689          18.689 
        1.54013         114.225         18.5154         18.5154 
        1.54627         113.338         18.3437         18.3437 
        1.55241         112.987         18.1741         18.1741 
        1.55855         112.204          18.007          18.007 
        1.56467         111.415         17.8425         17.8425 
         1.5708         110.704         17.6795         17.6795 
        1.57695         110.364         17.5183         17.5183 
        1.58308         109.594         17.3596         17.3596 
        1.58922         109.564         17.2027         17.2027 
        1.59535         108.894         17.0478         17.0478 
         1.6015         107.781         16.8946         16.8946 
        1.60764         107.134         16.7434         16.7434 
        1.61376         106.643         16.5945         16.5945 
        1.61989         106.161         16.4473         16.4473 
        1.62604         105.486         16.3016         16.3016 
        1.63218         105.068         16.1577         16.1577 
        1.63831         104.295         16.0159         16.0159 
        1.64444          103.67         15.8757         15.8757 
        1.65059         103.012          15.737          15.737 
        1.65673         102.705            15.6            15.6 
        1.66285          102.14         15.4651         15.4651 
        1.66898         101.344         15.3317         15.3317 
        1.67512         100.933         15.1997         15.1997 
        1.68127         100.363         15.0691         15.0691 
         1.6874         99.5988         14.9403         14.9403 
        1.69353         99.0425         14.8132         14.8132 
        1.69967         98.6182         14.6872         14.6872 
        1.70581         98.2605         14.5627         14.5627 
        1.71193          97.512         14.4402         14.4402 
        1.71806         96.9489         14.3188         14.3188 
        1.72421         96.3606         14.1986         14.1986 
        1.73035         96.0083         14.0799         14.0799 
        1.73649         95.3641         13.9626         13.9626 
        1.74262         94.8536         13.8468         13.8468 
        1.74876         94.2232         13.7322         13.7322 
        1.75489         93.8112         13.6191         13.6191 
        1.76101          93.209         13.5074         13.5074 
        1.76715         92.6349         13.3967         13.3967 
        1.77329         92.2525         13.2872         13.2872 
        1.77943         91.7059         13.1789         13.1789 
        1.78557         91.3043         13.0719         13.0719 
        1.79171         90.8544         12.9661         12.9661 
        1.79785         90.0217         12.8615         12.8615 
        1.80399         89.9066         12.7581         12.7581 
        1.81012         89.1107         12.6559         12.6559 
        1.81625          88.678         12.5549         12.5549 
        1.82239         88.3167         12.4549         12.4549 
        1.82853         87.7415          12.356          12.356 
        1.83466         87.0941         12.2583         12.2583 
        1.84078          86.842         12.1618         12.1618 
        1.84692         86.5636         12.0662         12.0662 
        1.85306         85.9175         11.9714         11.9714 
         1.8592         85.5846         11.8779         11.8779 
        1.86533         85.0437         11.7854         11.7854 
        1.87147         84.5188         11.6938         11.6938 
        1.87761         83.8788         11.6031         11.6031 
