# k  (h/Mpc)    Pcb(k)  (Mpc/h)^3    Pcb_linear(k) (Mpc/h)^3    Pcb_NL(k) (Mpc/h)^3   ShotnoiseSubtracted = false
     0.00783031         13949.8         14015.2         14015.2 
       0.013688         17257.6         17715.5         17715.5 
       0.019231         17973.3           18258           18258 
      0.0249154         17197.9         17194.7         17194.7 
      0.0312784         15039.4         15233.2         15233.2 
      0.0375637         13011.7         13291.5         13291.5 
      0.0433917         11704.7         11824.3         11824.3 
      0.0492413         10525.3         10730.7         10730.7 
      0.0555754         9739.81         9873.47         9873.47 
      0.0619321          8779.3         9183.04         9183.04 
       0.067871         8293.09         8553.75         8553.75 
      0.0738098         7705.57         7871.21         7871.21 
      0.0800417         6978.33         7101.91         7101.91 
      0.0862327         6224.14         6342.68         6342.68 
      0.0921407         5627.73         5689.77         5689.77 
      0.0982031         5164.71         5139.35         5139.35 
       0.104506         4669.11         4708.11         4708.11 
       0.110769         4380.17          4399.1          4399.1 
       0.116806         4218.88         4171.94         4171.94 
       0.122832         3972.13         3969.72         3969.72 
       0.129052         3749.35         3751.23         3751.23 
       0.135211         3603.27         3509.74         3509.74 
       0.141259         3315.74          3254.1          3254.1 
       0.147318         3053.96         2998.46         2998.46 
       0.153489         2872.45         2760.28         2760.28 
       0.159709         2758.71         2558.51         2558.51 
       0.165845         2535.07         2401.44         2401.44 
       0.171974         2481.33         2280.19         2280.19 
       0.178125         2409.73         2181.72         2181.72 
       0.184229         2229.61         2092.99         2092.99 
        0.19034         2193.51         2002.14         2002.14 
       0.196428         2125.57         1904.39         1904.39 
       0.202534         1991.84         1800.02         1800.02 
       0.208729         1946.98         1693.11         1693.11 
       0.214876         1858.78         1592.83         1592.83 
       0.220989         1765.31         1504.17         1504.17 
       0.227147         1720.82         1428.36         1428.36 
        0.23329         1657.04         1365.31         1365.31 
       0.239377         1647.44         1311.96         1311.96 
       0.245482         1572.43         1263.41         1263.41 
       0.251667         1514.98         1215.51         1215.51 
       0.257832         1492.25         1166.75         1166.75 
       0.263955         1424.07         1116.94         1116.94 
       0.270079         1386.47         1066.87         1066.87 
        0.27624         1328.58          1018.1          1018.1 
       0.282372         1312.47         972.968         972.968 
        0.28843         1290.89         932.712         932.712 
       0.294538         1232.48         896.644         896.644 
       0.300721         1209.01          864.03          864.03 
        0.30691         1181.54         834.109         834.109 
       0.313033         1136.91         805.965         805.965 
       0.319153         1124.49         778.401         778.401 
       0.325316         1110.51         750.801         750.801 
        0.33145         1086.72         723.595         723.595 
       0.337538         1051.39         697.254         697.254 
       0.343633         1026.58         672.071         672.071 
       0.349808         1007.81         648.142         648.142 
       0.355968         988.201         626.054         626.054 
       0.362074          958.33          605.79          605.79 
       0.368217         955.574         586.774         586.774 
       0.374374         941.489         568.721         568.721 
       0.380519         908.565         551.362         551.362 
       0.386598         903.338         534.655         534.655 
       0.392688         881.811         518.295         518.295 
        0.39888         862.715         502.104         502.104 
       0.405048         846.755         486.551         486.551 
       0.411186         844.497         471.743         471.743 
       0.417313         840.093         457.712         457.712 
       0.423458         814.505         444.403         444.403 
       0.429607         792.578         431.772         431.772 
       0.435692         785.835         419.862         419.862 
       0.441815         771.577         408.364         408.364 
       0.447964         761.296         397.208         397.208 
       0.454126         752.031         386.366         386.366 
       0.460267         742.009         375.894         375.894 
       0.466387         730.042         365.793         365.793 
        0.47254         718.126          355.99          355.99 
       0.478662         708.225         346.614         346.614 
       0.484765         700.678         337.654         337.654 
       0.490885         693.567         329.039         329.039 
       0.497035         680.512         320.721         320.721 
       0.503198         679.594           312.7           312.7 
       0.509342         666.971         304.986         304.986 
       0.515458         654.023         297.557         297.557 
       0.521598         650.916         290.327         290.327 
       0.527764         636.828         283.289         283.289 
       0.533884         631.648         276.528         276.528 
           0.54         626.054         269.997         269.997 
       0.546137         616.763         263.665         263.665 
       0.552299         613.675         257.522         257.522 
       0.558452         605.927         251.597         251.597 
       0.564573         601.031           245.9           245.9 
       0.570708         595.274         240.375         240.375 
       0.576825         583.305         235.041         235.041 
       0.582926         581.724         229.881         229.881 
       0.589034         573.495         224.866         224.866 
       0.595184         568.278         219.964         219.964 
       0.601379         559.573         215.174         215.174 
       0.607522          550.87         210.568         210.568 
       0.613639         549.904         206.121         206.121 
       0.619772         546.556         201.796         201.796 
       0.625918         536.811         197.592         197.592 
       0.632068         534.487         193.508         193.508 
       0.638161         528.139         189.578         189.578 
         0.6443         522.542          185.73          185.73 
       0.650464         517.838         181.975         181.975 
       0.656582          513.75         178.352         178.352 
       0.662703         508.406         174.828         174.828 
       0.668861         502.406         171.381         171.381 
       0.675024         499.478         168.025         168.025 
       0.681124         491.106         164.795         164.795 
       0.687237         490.581         161.645         161.645 
       0.693381         482.769         158.564         158.564 
       0.699536          482.46         155.559         155.559 
       0.705665          476.06         152.646         152.646 
       0.711789         474.921         149.811         149.811 
       0.717957          468.31          147.03          147.03 
        0.72409         464.068         144.336         144.336 
       0.730186         464.353         141.727         141.727 
       0.736317         457.024         139.169         139.169 
       0.742472         452.524         136.665         136.665 
       0.748622         450.091         134.227         134.227 
        0.75476          445.86         131.854         131.854 
       0.760888         442.959         129.543         129.543 
       0.767043         440.052         127.279         127.279 
       0.773185         436.971         125.074         125.074 
       0.779291          431.84         122.935         122.935 
       0.785407         428.829         120.844         120.844 
       0.791564         426.361         118.789         118.789 
       0.797719         419.892         116.783         116.783 
       0.803834         421.747         114.837         114.837 
       0.809972         414.939         112.929         112.929 
       0.816124          411.42          111.06          111.06 
       0.822261         408.954          109.24          109.24 
       0.828378         406.909         107.466         107.466 
       0.834502         400.747         105.731         105.731 
       0.840667         400.763         104.023         104.023 
       0.846816         394.902         102.358         102.358 
       0.852925         395.358         100.741         100.741 
       0.859047         391.429         99.1553         99.1553 
       0.865192         389.396         97.5993         97.5993 
       0.871341         384.091         96.0761         96.0761 
       0.877463         382.658         94.5926         94.5926 
       0.883569         379.394         93.1447         93.1447 
       0.889708         375.758         91.7201         91.7201 
       0.895864          372.19          90.322          90.322 
       0.902008         371.171         88.9563         88.9563 
       0.908149         367.741         87.6201         87.6201 
       0.914301         366.337         86.3095         86.3095 
       0.920448         362.774         85.0272         85.0272 
       0.926574         360.557         83.7758         83.7758 
       0.932687         359.258         82.5526         82.5526 
       0.938823         354.993         81.3497         81.3497 
       0.944975         354.129         80.1683         80.1683 
       0.951105         350.904         79.0149         79.0149 
       0.957225         346.459         77.8864         77.8864 
       0.963368         347.248         76.7765         76.7765 
       0.969511         341.101         75.6884         75.6884 
       0.975621         340.404         74.6274         74.6274 
       0.981748         338.814         73.5844         73.5844 
       0.987916         336.737         72.5549         72.5549 
        0.99406         333.352         71.5492         71.5492 
        1.00019         330.393         70.5647         70.5647 
        1.00632         330.049         69.5999         69.5999 
        1.01246         327.156         68.6519         68.6519 
        1.01859         323.619         67.7232         67.7232 
        1.02471         321.769         66.8131         66.8131 
        1.03085         320.619         65.9167         65.9167 
        1.03698         318.728         65.0389         65.0389 
        1.04314         317.278         64.1735         64.1735 
        1.04929         315.272         63.3261         63.3261 
        1.05541         311.523         62.4975         62.4975 
        1.06154         309.967         61.6819         61.6819 
        1.06769          307.19         60.8798         60.8798 
        1.07382         305.687         60.0947         60.0947 
        1.07993         303.899         59.3254         59.3254 
        1.08607         302.052         58.5665         58.5665 
        1.09222         299.564         57.8202         57.8202 
        1.09836         298.438         57.0879         57.0879 
        1.10449         296.318         56.3693         56.3693 
        1.11063         294.223         55.6624         55.6624 
        1.11677         291.155          54.968          54.968 
         1.1229         290.827         54.2868         54.2868 
        1.12903         288.258         53.6167         53.6167 
        1.13518         286.185         52.9574         52.9574 
        1.14131         285.189         52.3097         52.3097 
        1.14745         281.855         51.6733         51.6733 
        1.15359         279.934         51.0475         51.0475 
        1.15973         278.847         50.4319         50.4319 
        1.16584         277.339         49.8293         49.8293 
        1.17197          275.47         49.2358         49.2358 
        1.17811         272.836         48.6503         48.6503 
        1.18424         271.586         48.0761         48.0761 
        1.19038         270.295         47.5095         47.5095 
        1.19652         267.131         46.9524         46.9524 
        1.20267         266.748         46.4044         46.4044 
        1.20881         264.678         45.8652         45.8652 
        1.21495         263.464         45.3356         45.3356 
        1.22108         261.703         44.8145         44.8145 
         1.2272         258.496         44.3029         44.3029 
        1.23334         257.841         43.7982         43.7982 
        1.23949         256.386         43.3003         43.3003 
        1.24562         254.875         42.8115         42.8115 
        1.25174         253.258         42.3311         42.3311 
        1.25789         251.002         41.8567         41.8567 
        1.26402         250.561         41.3905         41.3905 
        1.27014         249.196         40.9326         40.9326 
        1.27628         246.824         40.4803         40.4803 
        1.28244           245.3          40.034          40.034 
        1.28858          244.12         39.5951         39.5951 
        1.29471          242.73         39.1638         39.1638 
        1.30084         241.657         38.7394         38.7394 
        1.30697         239.044         38.3207         38.3207 
        1.31312         237.713         37.9076         37.9076 
        1.31925         236.418         37.5019         37.5019 
        1.32537         235.612         37.1027         37.1027 
        1.33151         233.586         36.7078         36.7078 
        1.33765         231.766          36.319          36.319 
        1.34378           230.8         35.9367         35.9367 
        1.34992         228.688         35.5596         35.5596 
        1.35606         227.772         35.1872         35.1872 
         1.3622         226.197         34.8208         34.8208 
        1.36833         224.945         34.4605         34.4605 
        1.37445         224.401         34.1056         34.1056 
        1.38059         221.792         33.7547         33.7547 
        1.38675         220.436         33.4079         33.4079 
        1.39288          219.43         33.0673         33.0673 
        1.39901         217.626         32.7318         32.7318 
        1.40515         216.892         32.4001         32.4001 
         1.4113         215.182         32.0732         32.0732 
        1.41742         213.386         31.7522         31.7522 
        1.42355         213.385         31.4349         31.4349 
         1.4297         211.482         31.1211         31.1211 
        1.43585         210.259         30.8117         30.8117 
        1.44198         208.525         30.5077         30.5077 
        1.44809         207.751         30.2085         30.2085 
        1.45423         206.462         29.9121         29.9121 
        1.46036         205.347         29.6204         29.6204 
        1.46649         204.072         29.3324         29.3324 
        1.47263         203.048         29.0481         29.0481 
        1.47877          201.45         28.7677         28.7677 
        1.48491         199.906         28.4906         28.4906 
        1.49104         198.286         28.2178         28.2178 
        1.49718         197.674         27.9483         27.9483 
        1.50333         195.874          27.682          27.682 
        1.50947         195.137         27.4198         27.4198 
         1.5156         193.921         27.1613         27.1613 
        1.52172         192.826         26.9062         26.9062 
        1.52787          191.55         26.6539         26.6539 
          1.534         190.887         26.4052         26.4052 
        1.54013         189.287         26.1599         26.1599 
        1.54627         188.383         25.9173         25.9173 
        1.55241         187.395         25.6778         25.6778 
        1.55855          186.34         25.4416         25.4416 
        1.56467         185.151         25.2091         25.2091 
         1.5708         183.571         24.9789         24.9789 
        1.57695         182.803         24.7512         24.7512 
        1.58308         181.611         24.5269         24.5269 
        1.58922         180.451         24.3052         24.3052 
        1.59535         179.028         24.0864         24.0864 
         1.6015         178.473           23.87           23.87 
        1.60764         177.079         23.6564         23.6564 
        1.61376         175.741          23.446          23.446 
        1.61989          174.83          23.238          23.238 
        1.62604         173.827          23.032          23.032 
        1.63218         172.845         22.8288         22.8288 
        1.63831          172.12         22.6284         22.6284 
        1.64444         170.589         22.4304         22.4304 
        1.65059         169.805         22.2343         22.2343 
        1.65673         168.634         22.0408         22.0408 
        1.66285         167.909         21.8502         21.8502 
        1.66898         166.821         21.6618         21.6618 
        1.67512         165.695         21.4752         21.4752 
        1.68127         164.899         21.2907         21.2907 
         1.6874         163.734         21.1088         21.1088 
        1.69353         163.216         20.9291         20.9291 
        1.69967          161.79         20.7511         20.7511 
        1.70581         161.315         20.5753         20.5753 
        1.71193         160.007         20.4022         20.4022 
        1.71806         158.635         20.2307         20.2307 
        1.72421         158.024         20.0609         20.0609 
        1.73035         157.013         19.8932         19.8932 
        1.73649         155.908         19.7275         19.7275 
        1.74262         155.291         19.5638         19.5638 
        1.74876         154.431         19.4018         19.4018 
        1.75489         153.629         19.2421         19.2421 
        1.76101         152.298         19.0842         19.0842 
        1.76715           151.4         18.9279         18.9279 
        1.77329         150.454         18.7732         18.7732 
        1.77943         149.442         18.6201         18.6201 
        1.78557          148.78          18.469          18.469 
        1.79171         148.002         18.3195         18.3195 
        1.79785         146.926         18.1717         18.1717 
        1.80399         146.149         18.0255         18.0255 
        1.81012         145.385         17.8812         17.8812 
        1.81625         144.336         17.7385         17.7385 
        1.82239         143.599         17.5972         17.5972 
        1.82853         142.698         17.4575         17.4575 
        1.83466          141.47         17.3195         17.3195 
        1.84078         141.129         17.1831         17.1831 
        1.84692         140.345         17.0479         17.0479 
        1.85306         139.217         16.9141         16.9141 
         1.8592         138.729         16.7819         16.7819 
        1.86533         137.401         16.6512         16.6512 
        1.87147         136.765         16.5218         16.5218 
