# k  (h/Mpc)    P(k)  (Mpc/h)^3    P_linear(k)  (Mpc/h)^3     P_NL(k)  ShotnoiseSubtracted = false
     0.00783031          1656.1         1667.33         1667.33 
       0.013688         2083.66         2108.96         2108.96 
       0.019231         2162.58         2174.17         2174.17 
      0.0249154         2049.51         2047.88         2047.88 
      0.0312784         1811.59         1814.46         1814.46 
      0.0375637         1577.25         1583.29         1583.29 
      0.0433917         1410.41         1408.57         1408.57 
      0.0492413          1275.4         1278.33         1278.33 
      0.0555754         1178.33         1176.25         1176.25 
      0.0619321         1082.55         1094.01         1094.01 
       0.067871         1015.41         1019.06         1019.06 
      0.0738098         936.289         937.753         937.753 
      0.0800417         847.333         846.108         846.108 
      0.0862327         755.166         755.661         755.661 
      0.0921407         677.506         677.878         677.878 
      0.0982031         615.234         612.304         612.304 
       0.104506         559.296         560.928         560.928 
       0.110769         523.208         524.114         524.114 
       0.116806         500.122         497.051         497.051 
       0.122832          472.37          472.96          472.96 
       0.129052         448.185          446.93          446.93 
       0.135211         421.834          418.16          418.16 
       0.141259         389.505         387.703         387.703 
       0.147318         357.033         357.245         357.245 
       0.153489         330.924         328.868         328.868 
       0.159709         309.065         304.829         304.829 
       0.165845         286.537         286.116         286.116 
       0.171974         276.654          271.67          271.67 
       0.178125         264.674         259.938         259.938 
       0.184229         251.547         249.367         249.367 
        0.19034         242.983         238.542         238.542 
       0.196428         231.436         226.896         226.896 
       0.202534         216.264         214.462         214.462 
       0.208729         206.545         201.724         201.724 
       0.214876         196.272         189.777         189.777 
       0.220989         182.745         179.213         179.213 
       0.227147         176.869         170.181         170.181 
        0.23329         169.699         162.669         162.669 
       0.239377         163.991         156.313         156.313 
       0.245482         157.011         150.528         150.528 
       0.251667         150.357         144.822         144.822 
       0.257832         146.637         139.012         139.012 
       0.263955         138.995         133.077         133.077 
       0.270079         133.146         127.112         127.112 
        0.27624         126.675         121.301         121.301 
       0.282372         121.876         115.924         115.924 
        0.28843         119.173         111.128         111.128 
       0.294538         114.121          106.83          106.83 
       0.300721         109.272         102.945         102.945 
        0.30691         106.933         99.3798         99.3798 
       0.313033          102.87         96.0266         96.0266 
       0.319153         100.821         92.7425         92.7425 
       0.325316         96.2059          89.454          89.454 
        0.33145         92.9201         86.2126         86.2126 
       0.337538         89.9696         83.0742         83.0742 
       0.343633          87.173         80.0738         80.0738 
       0.349808         84.1833         77.2228         77.2228 
       0.355968         81.4855         74.5912         74.5912 
       0.362074         79.7711         72.1766         72.1766 
       0.368217         77.4594         69.9112         69.9112 
       0.374374         75.7977         67.7602         67.7602 
       0.380519         72.6347          65.692          65.692 
       0.386598         70.5574         63.7017         63.7017 
       0.392688         68.4328         61.7522         61.7522 
        0.39888         67.0272         59.8232         59.8232 
       0.405048         65.3187         57.9701         57.9701 
       0.411186         63.5193         56.2059         56.2059 
       0.417313         61.7251          54.534          54.534 
       0.423458         59.9437         52.9485         52.9485 
       0.429607         58.8874         51.4435         51.4435 
       0.435692         57.7929         50.0245         50.0245 
       0.441815         55.6665         48.6546         48.6546 
       0.447964         53.9581         47.3254         47.3254 
       0.454126         53.0181         46.0336         46.0336 
       0.460267         52.4138          44.786          44.786 
       0.466387         50.9014         43.5825         43.5825 
        0.47254         50.0891         42.4145         42.4145 
       0.478662         48.4922         41.2973         41.2973 
       0.484765         47.4763         40.2299         40.2299 
       0.490885         46.1385         39.2034         39.2034 
       0.497035         45.3723         38.2123         38.2123 
       0.503198         44.3384         37.2567         37.2567 
       0.509342         43.1496         36.3376         36.3376 
       0.515458         42.5699         35.4526         35.4526 
       0.521598         41.5635         34.5911         34.5911 
       0.527764         40.9929         33.7526         33.7526 
       0.533884         40.0099          32.947          32.947 
           0.54         39.1851         32.1688         32.1688 
       0.546137         38.0132         31.4144         31.4144 
       0.552299         37.3864         30.6825         30.6825 
       0.558452         36.5998         29.9766         29.9766 
       0.564573         36.2112         29.2978         29.2978 
       0.570708          35.251         28.6396         28.6396 
       0.576825         34.7642          28.004          28.004 
       0.582926         34.1409         27.3892         27.3892 
       0.589034         33.4691         26.7917         26.7917 
       0.595184         33.0129         26.2076         26.2076 
       0.601379         32.1155          25.637          25.637 
       0.607522         31.6158         25.0882         25.0882 
       0.613639         31.0704         24.5583         24.5583 
       0.619772         30.5462         24.0431         24.0431 
       0.625918         29.9181         23.5421         23.5421 
       0.632068         29.6534         23.0556         23.0556 
       0.638161         29.0196         22.5873         22.5873 
         0.6443         28.5617         22.1288         22.1288 
       0.650464         27.8473         21.6815         21.6815 
       0.656582         27.6627         21.2498         21.2498 
       0.662703         27.3136           20.83           20.83 
       0.668861         26.5869         20.4192         20.4192 
       0.675024         26.2424         20.0194         20.0194 
       0.681124         26.0762         19.6346         19.6346 
       0.687237         25.5397         19.2592         19.2592 
       0.693381         24.9888         18.8921         18.8921 
       0.699536         24.8593         18.5341         18.5341 
       0.705665          24.381          18.187          18.187 
       0.711789         23.9297         17.8493         17.8493 
       0.717957         23.4401         17.5179         17.5179 
        0.72409          23.239         17.1969         17.1969 
       0.730186         23.0989         16.8861         16.8861 
       0.736317         22.6086         16.5813         16.5813 
       0.742472         22.3256          16.283          16.283 
       0.748622         21.9551         15.9925         15.9925 
        0.75476         21.4028         15.7098         15.7098 
       0.760888          21.315         15.4344         15.4344 
       0.767043         20.9384         15.1647         15.1647 
       0.773185         20.7032          14.902          14.902 
       0.779291         20.5152         14.6472         14.6472 
       0.785407         20.1476          14.398          14.398 
       0.791564         19.9761         14.1531         14.1531 
       0.797719         19.5446         13.9142         13.9142 
       0.803834         19.4477         13.6823         13.6823 
       0.809972         19.0724         13.4549         13.4549 
       0.816124         18.8537         13.2323         13.2323 
       0.822261          18.638         13.0154         13.0154 
       0.828378         18.4154         12.8041         12.8041 
       0.834502         18.2157         12.5973         12.5973 
       0.840667         18.0235         12.3938         12.3938 
       0.846816         17.6283         12.1955         12.1955 
       0.852925          17.544         12.0028         12.0028 
       0.859047         17.3197         11.8139         11.8139 
       0.865192         17.0707         11.6285         11.6285 
       0.871341         16.8411          11.447          11.447 
       0.877463         16.6568         11.2703         11.2703 
       0.883569         16.5432         11.0978         11.0978 
       0.889708         16.2614          10.928          10.928 
       0.895864         16.0596         10.7614         10.7614 
       0.902008         15.8563         10.5987         10.5987 
       0.908149         15.6498         10.4395         10.4395 
       0.914301         15.5635         10.2834         10.2834 
       0.920448         15.3239         10.1306         10.1306 
       0.926574         15.2132          9.9815          9.9815 
       0.932687         14.9871         9.83576         9.83576 
       0.938823         14.7919         9.69244         9.69244 
       0.944975          14.672         9.55168         9.55168 
       0.951105         14.4883         9.41426         9.41426 
       0.957225         14.3982         9.27981         9.27981 
       0.963368          14.176         9.14756         9.14756 
       0.969511         14.0268         9.01792         9.01792 
       0.975621         13.8827         8.89151         8.89151 
       0.981748         13.6924         8.76724         8.76724 
       0.987916          13.591         8.64458         8.64458 
        0.99406         13.4571         8.52475         8.52475 
        1.00019         13.3343         8.40746         8.40746 
        1.00632         13.2087         8.29251         8.29251 
        1.01246         13.0693         8.17955         8.17955 
        1.01859         12.9032         8.06891         8.06891 
        1.02471         12.7437         7.96047         7.96047 
        1.03085         12.6966         7.85367         7.85367 
        1.03698         12.5615         7.74908         7.74908 
        1.04314         12.4057         7.64598         7.64598 
        1.04929         12.2351         7.54501         7.54501 
        1.05541         12.1743         7.44629         7.44629 
        1.06154         12.0624         7.34911         7.34911 
        1.06769         11.9749         7.25354         7.25354 
        1.07382         11.7751            7.16            7.16 
        1.07993         11.6731         7.06834         7.06834 
        1.08607         11.6139         6.97792         6.97792 
        1.09222         11.4541         6.88901         6.88901 
        1.09836           11.42         6.80177         6.80177 
        1.10449          11.226         6.71615         6.71615 
        1.11063         11.1901         6.63193         6.63193 
        1.11677          11.096         6.54919         6.54919 
         1.1229         10.9906         6.46803         6.46803 
        1.12903         10.9012         6.38818         6.38818 
        1.13518         10.7408         6.30963         6.30963 
        1.14131         10.6711         6.23246         6.23246 
        1.14745          10.522         6.15664         6.15664 
        1.15359         10.4424         6.08208         6.08208 
        1.15973         10.3498         6.00873         6.00873 
        1.16584         10.2682         5.93694         5.93694 
        1.17197         10.1697         5.86622         5.86622 
        1.17811         10.0783         5.79646         5.79646 
        1.18424         10.0043         5.72804         5.72804 
        1.19038         9.93761         5.66054         5.66054 
        1.19652         9.84999         5.59417         5.59417 
        1.20267           9.769         5.52887         5.52887 
        1.20881          9.6565         5.46463         5.46463 
        1.21495         9.58272         5.40153         5.40153 
        1.22108         9.52548         5.33945         5.33945 
         1.2272         9.43158         5.27849         5.27849 
        1.23334         9.39564         5.21836         5.21836 
        1.23949         9.28474         5.15903         5.15903 
        1.24562         9.20824          5.1008          5.1008 
        1.25174         9.15259         5.04356         5.04356 
        1.25789         9.02392         4.98704         4.98704 
        1.26402         8.99632         4.93149         4.93149 
        1.27014         8.94044         4.87693         4.87693 
        1.27628          8.8204         4.82304         4.82304 
        1.28244         8.80183         4.76987         4.76987 
        1.28858         8.73066         4.71758         4.71758 
        1.29471         8.60639         4.66619         4.66619 
        1.30084         8.54407         4.61562         4.61562 
        1.30697         8.52633         4.56573         4.56573 
        1.31312         8.43282         4.51652         4.51652 
        1.31925         8.37352         4.46818         4.46818 
        1.32537         8.31598         4.42061         4.42061 
        1.33151         8.24562         4.37357         4.37357 
        1.33765          8.1749         4.32725         4.32725 
        1.34378         8.16151         4.28169         4.28169 
        1.34992         8.06906         4.23676         4.23676 
        1.35606         8.00827         4.19239         4.19239 
         1.3622         7.94141         4.14874         4.14874 
        1.36833         7.89222         4.10582         4.10582 
        1.37445         7.83009         4.06353         4.06353 
        1.38059         7.77604         4.02172         4.02172 
        1.38675         7.71646         3.98039         3.98039 
        1.39288         7.65049         3.93982         3.93982 
        1.39901         7.59117         3.89984         3.89984 
        1.40515         7.54202         3.86033         3.86033 
         1.4113         7.48246         3.82138         3.82138 
        1.41742         7.44471         3.78313         3.78313 
        1.42355         7.37464         3.74533         3.74533 
         1.4297          7.3394         3.70794         3.70794 
        1.43585         7.29354         3.67107         3.67107 
        1.44198         7.23384         3.63486         3.63486 
        1.44809         7.19375          3.5992          3.5992 
        1.45423         7.12875          3.5639          3.5639 
        1.46036         7.09317         3.52913         3.52913 
        1.46649         7.03888         3.49482         3.49482 
        1.47263         7.00092         3.46095         3.46095 
        1.47877         6.94743         3.42754         3.42754 
        1.48491         6.91317         3.39453         3.39453 
        1.49104         6.84662         3.36202         3.36202 
        1.49718         6.82218         3.32992         3.32992 
        1.50333         6.76793         3.29819         3.29819 
        1.50947         6.70403         3.26694         3.26694 
         1.5156         6.69095         3.23615         3.23615 
        1.52172         6.64309         3.20575         3.20575 
        1.52787         6.59969         3.17569         3.17569 
          1.534         6.55205         3.14606         3.14606 
        1.54013         6.52016         3.11683         3.11683 
        1.54627           6.473         3.08793         3.08793 
        1.55241         6.41629         3.05939         3.05939 
        1.55855         6.40121         3.03126         3.03126 
        1.56467         6.35219         3.00355         3.00355 
         1.5708         6.31237         2.97612         2.97612 
        1.57695         6.25593         2.94899         2.94899 
        1.58308         6.21155         2.92227         2.92227 
        1.58922         6.19299         2.89586         2.89586 
        1.59535         6.15195         2.86979         2.86979 
         1.6015         6.09724           2.844           2.844 
        1.60764         6.07597         2.81855         2.81855 
        1.61376         6.04442         2.79348         2.79348 
        1.61989         5.98231          2.7687          2.7687 
        1.62604         5.96142         2.74416         2.74416 
        1.63218         5.92941         2.71994         2.71994 
        1.63831         5.89836         2.69607         2.69607 
        1.64444         5.84763         2.67248         2.67248 
        1.65059         5.81888         2.64912         2.64912 
        1.65673         5.79369         2.62607         2.62607 
        1.66285         5.75723         2.60335         2.60335 
        1.66898         5.71733          2.5809          2.5809 
        1.67512          5.6798         2.55868         2.55868 
        1.68127         5.64201         2.53669         2.53669 
         1.6874         5.62122         2.51502         2.51502 
        1.69353         5.57466         2.49361         2.49361 
        1.69967         5.55451          2.4724          2.4724 
        1.70581         5.51009         2.45145         2.45145 
        1.71193         5.49283         2.43083         2.43083 
        1.71806         5.45875          2.4104          2.4104 
        1.72421         5.42102         2.39016         2.39016 
        1.73035         5.39071         2.37018         2.37018 
        1.73649          5.3615         2.35044         2.35044 
        1.74262         5.32647         2.33094         2.33094 
        1.74876          5.3149         2.31164         2.31164 
        1.75489         5.27559         2.29261         2.29261 
        1.76101         5.23656          2.2738          2.2738 
        1.76715         5.22634         2.25518         2.25518 
        1.77329         5.19599         2.23674         2.23674 
        1.77943         5.14939          2.2185          2.2185 
        1.78557         5.13927          2.2005          2.2005 
        1.79171         5.11208         2.18269         2.18269 
        1.79785         5.08297         2.16508         2.16508 
        1.80399          5.0352         2.14766         2.14766 
        1.81012         5.02313         2.13047         2.13047 
        1.81625         4.99204         2.11347         2.11347 
        1.82239         4.96875         2.09663         2.09663 
        1.82853         4.93717         2.07998         2.07998 
        1.83466         4.89912         2.06354         2.06354 
        1.84078         4.88003         2.04729         2.04729 
        1.84692         4.85621         2.03119         2.03119 
        1.85306         4.82943         2.01524         2.01524 
         1.8592         4.81582         1.99949         1.99949 
        1.86533          4.7868         1.98392         1.98392 
        1.87147         4.75912          1.9685          1.9685 
        1.87761         4.74361         1.95324         1.95324 
