# k  (h/Mpc)    Pcb(k)  (Mpc/h)^3    Pcb_linear(k) (Mpc/h)^3    Pcb_NL(k) (Mpc/h)^3   ShotnoiseSubtracted = false
     0.00783031         1880.07         1892.66         1892.66 
       0.013688         2364.21          2393.9          2393.9 
       0.019231          2454.1         2467.89         2467.89 
      0.0249154         2326.61         2324.53         2324.53 
      0.0312784         2055.92         2059.57         2059.57 
      0.0375637         1789.62         1797.16         1797.16 
      0.0433917         1600.73         1598.84         1598.84 
      0.0492413         1447.22         1451.01         1451.01 
      0.0555754         1337.33         1335.13         1335.13 
      0.0619321          1227.8         1241.79         1241.79 
       0.067871         1152.09         1156.71         1156.71 
      0.0738098         1062.49         1064.42         1064.42 
      0.0800417         961.669         960.396         960.396 
      0.0862327         856.992         857.731         857.731 
      0.0921407         768.949         769.442         769.442 
      0.0982031         698.502          695.01          695.01 
       0.104506         634.775         636.695         636.695 
       0.110769         593.882         594.908         594.908 
       0.116806         567.954          564.19          564.19 
       0.122832         536.235         536.844         536.844 
       0.129052         508.847         507.298         507.298 
       0.135211          479.19         474.642         474.642 
       0.141259         442.386         440.071         440.071 
       0.147318         405.412         405.499         405.499 
       0.153489         375.944         373.289         373.289 
       0.159709         351.388         346.003         346.003 
       0.165845         325.556         324.762         324.762 
       0.171974         314.651         308.365         308.365 
       0.178125         301.087         295.048         295.048 
       0.184229         285.927          283.05          283.05 
        0.19034         276.348         270.763         270.763 
       0.196428         263.336         257.543         257.543 
       0.202534         245.941          243.43          243.43 
       0.208729         235.161         228.972         228.972 
       0.214876         223.583          215.41          215.41 
       0.220989         208.085         203.419         203.419 
       0.227147         201.595         193.168         193.168 
        0.23329         193.492         184.641         184.641 
       0.239377         187.117         177.426         177.426 
       0.245482         179.058          170.86          170.86 
       0.251667          171.48         164.383         164.383 
       0.257832         167.425         157.788         157.788 
       0.263955         158.598         151.053         151.053 
       0.270079         151.976         144.281         144.281 
        0.27624          144.62         137.686         137.686 
       0.282372          139.24         131.582         131.582 
        0.28843         136.342         126.138         126.138 
       0.294538         130.507          121.26          121.26 
       0.300721         124.972          116.85          116.85 
        0.30691         122.388         112.803         112.803 
       0.313033         117.699         108.997         108.997 
       0.319153         115.401         105.269         105.269 
       0.325316         110.212         101.537         101.537 
        0.33145         106.486         97.8576         97.8576 
       0.337538         103.103         94.2953         94.2953 
       0.343633         99.8988         90.8896         90.8896 
       0.349808          96.519         87.6535         87.6535 
       0.355968         93.4875         84.6663         84.6663 
       0.362074         91.5559         81.9258         81.9258 
       0.368217          88.963         79.3542         79.3542 
       0.374374         87.0507         76.9127         76.9127 
       0.380519         83.3976         74.5651         74.5651 
       0.386598         81.0741         72.3058         72.3058 
       0.392688         78.6536         70.0933         70.0933 
        0.39888         77.0764         67.9036         67.9036 
       0.405048         75.1396         65.8002         65.8002 
       0.411186         73.1342         63.7977         63.7977 
       0.417313         71.0822         61.9001         61.9001 
       0.423458         69.0771         60.1003         60.1003 
       0.429607         67.8652         58.3921         58.3921 
       0.435692         66.6329         56.7814         56.7814 
       0.441815         64.1968         55.2264         55.2264 
       0.447964          62.238         53.7178         53.7178 
       0.454126         61.1511         52.2515         52.2515 
       0.460267          60.501         50.8353         50.8353 
       0.466387         58.7871         49.4692         49.4692 
        0.47254         57.8899         48.1435         48.1435 
       0.478662         56.0154         46.8755         46.8755 
       0.484765         54.8811         45.6638         45.6638 
       0.490885         53.3538         44.4987         44.4987 
       0.497035         52.5493         43.3738         43.3738 
       0.503198         51.3244         42.2891         42.2891 
       0.509342         49.9671         41.2458         41.2458 
       0.515458         49.3129         40.2412         40.2412 
       0.521598         48.1417         39.2634         39.2634 
       0.527764         47.5005         38.3116         38.3116 
       0.533884         46.4496         37.3972         37.3972 
           0.54         45.4634         36.5139         36.5139 
       0.546137         44.1164         35.6576         35.6576 
       0.552299         43.4001         34.8269         34.8269 
       0.558452         42.4983         34.0256         34.0256 
       0.564573         42.0953         33.2551         33.2551 
       0.570708         40.9446          32.508          32.508 
       0.576825         40.4186         31.7865         31.7865 
       0.582926         39.7288         31.0887         31.0887 
       0.589034         38.9481         30.4105         30.4105 
       0.595184         38.4165         29.7475         29.7475 
       0.601379         37.3785         29.0998         29.0998 
       0.607522         36.8122         28.4769         28.4769 
       0.613639         36.2228         27.8754         27.8754 
       0.619772         35.5985         27.2906         27.2906 
       0.625918         34.8882          26.722          26.722 
       0.632068           34.59         26.1697         26.1697 
       0.638161         33.8537         25.6382         25.6382 
         0.6443         33.3509         25.1178         25.1178 
       0.650464         32.5216         24.6101         24.6101 
       0.656582         32.3152         24.1201         24.1201 
       0.662703         31.9171         23.6435         23.6435 
       0.668861         31.0816         23.1773         23.1773 
       0.675024         30.7088         22.7235         22.7235 
       0.681124         30.4879         22.2866         22.2866 
       0.687237         29.8702         21.8606         21.8606 
       0.693381          29.269         21.4439         21.4439 
       0.699536          29.115         21.0375         21.0375 
       0.705665         28.5608         20.6436         20.6436 
       0.711789         28.0471         20.2602         20.2602 
       0.717957         27.4878         19.8841         19.8841 
        0.72409         27.2489         19.5198         19.5198 
       0.730186         27.0967         19.1669         19.1669 
       0.736317         26.5358          18.821          18.821 
       0.742472         26.2084         18.4824         18.4824 
       0.748622          25.774         18.1526         18.1526 
        0.75476         25.1407         17.8317         17.8317 
       0.760888         25.0564         17.5192         17.5192 
       0.767043          24.622          17.213          17.213 
       0.773185         24.3606         16.9149         16.9149 
       0.779291         24.1146         16.6256         16.6256 
       0.785407         23.7006         16.3428         16.3428 
       0.791564         23.5296         16.0648         16.0648 
       0.797719          23.021         15.7936         15.7936 
       0.803834         22.9127         15.5304         15.5304 
       0.809972         22.4783         15.2723         15.2723 
       0.816124         22.2279         15.0196         15.0196 
       0.822261         21.9798         14.7734         14.7734 
       0.828378         21.7362         14.5335         14.5335 
       0.834502         21.5046         14.2988         14.2988 
       0.840667         21.2787         14.0679         14.0679 
       0.846816         20.8132         13.8428         13.8428 
       0.852925         20.7361          13.624          13.624 
       0.859047         20.4787         13.4096         13.4096 
       0.865192         20.1856         13.1992         13.1992 
       0.871341          19.925         12.9932         12.9932 
       0.877463         19.7125         12.7926         12.7926 
       0.883569         19.5901         12.5968         12.5968 
       0.889708         19.2628         12.4041         12.4041 
       0.895864         19.0251          12.215          12.215 
       0.902008         18.7896         12.0303         12.0303 
       0.908149         18.5581         11.8496         11.8496 
       0.914301         18.4627         11.6724         11.6724 
       0.920448         18.1785          11.499          11.499 
       0.926574         18.0354         11.3297         11.3297 
       0.932687         17.7889         11.1643         11.1643 
       0.938823         17.5634         11.0016         11.0016 
       0.944975         17.4202         10.8418         10.8418 
       0.951105         17.2201         10.6859         10.6859 
       0.957225         17.1149         10.5332         10.5332 
       0.963368         16.8439         10.3831         10.3831 
       0.969511         16.6774          10.236          10.236 
       0.975621         16.5153         10.0925         10.0925 
       0.981748         16.2993         9.95144         9.95144 
       0.987916         16.1868         9.81222         9.81222 
        0.99406         16.0135         9.67621         9.67621 
        1.00019         15.8778         9.54307         9.54307 
        1.00632         15.7316         9.41259         9.41259 
        1.01246         15.5809         9.28438         9.28438 
        1.01859         15.3811         9.15879         9.15879 
        1.02471         15.2059         9.03571         9.03571 
        1.03085         15.1479         8.91448         8.91448 
        1.03698         14.9937         8.79577         8.79577 
        1.04314         14.8055         8.67873         8.67873 
        1.04929         14.6141         8.56413         8.56413 
        1.05541         14.5488         8.45207         8.45207 
        1.06154         14.4216         8.34177         8.34177 
        1.06769            14.3         8.23329         8.23329 
        1.07382         14.0782         8.12712         8.12712 
        1.07993         13.9625         8.02308         8.02308 
        1.08607         13.8936         7.92045         7.92045 
        1.09222         13.7101         7.81952         7.81952 
        1.09836         13.6576         7.72049         7.72049 
        1.10449         13.4564         7.62331         7.62331 
        1.11063         13.4054         7.52771         7.52771 
        1.11677         13.3032          7.4338          7.4338 
         1.1229          13.173         7.34168         7.34168 
        1.12903         13.0679         7.25105         7.25105 
        1.13518         12.8891         7.16189         7.16189 
        1.14131          12.815         7.07429         7.07429 
        1.14745          12.632         6.98823         6.98823 
        1.15359          12.536         6.90359         6.90359 
        1.15973         12.4307         6.82034         6.82034 
        1.16584         12.3324         6.73885         6.73885 
        1.17197         12.2169         6.65859         6.65859 
        1.17811         12.1154          6.5794          6.5794 
        1.18424         12.0306         6.50174         6.50174 
        1.19038         11.9558         6.42512         6.42512 
        1.19652         11.8436         6.34978         6.34978 
        1.20267         11.7558         6.27566         6.27566 
        1.20881         11.6197         6.20275         6.20275 
        1.21495         11.5355         6.13113         6.13113 
        1.22108           11.48         6.06065         6.06065 
         1.2272         11.3713         5.99147         5.99147 
        1.23334         11.3162         5.92321         5.92321 
        1.23949         11.1955         5.85587         5.85587 
        1.24562         11.0991         5.78977         5.78977 
        1.25174         11.0367          5.7248          5.7248 
        1.25789         10.8963         5.66065         5.66065 
        1.26402         10.8624         5.59759         5.59759 
        1.27014         10.7985         5.53566         5.53566 
        1.27628         10.6528          5.4745          5.4745 
        1.28244         10.6381         5.41414         5.41414 
        1.28858         10.5419         5.35479         5.35479 
        1.29471          10.397         5.29646         5.29646 
        1.30084         10.3296         5.23906         5.23906 
        1.30697         10.3143         5.18244         5.18244 
        1.31312         10.1991         5.12657         5.12657 
        1.31925         10.1358         5.07171         5.07171 
        1.32537         10.0632         5.01771         5.01771 
        1.33151         9.98411         4.96432         4.96432 
        1.33765         9.90217         4.91174         4.91174 
        1.34378         9.88524         4.86003         4.86003 
        1.34992         9.77446         4.80903         4.80903 
        1.35606         9.69707         4.75867         4.75867 
         1.3622         9.61976         4.70912         4.70912 
        1.36833         9.57361          4.6604          4.6604 
        1.37445         9.50589          4.6124          4.6124 
        1.38059         9.44074         4.56494         4.56494 
        1.38675         9.37045         4.51803         4.51803 
        1.39288         9.28104         4.47198         4.47198 
        1.39901         9.22437          4.4266          4.4266 
        1.40515         9.16009         4.38175         4.38175 
         1.4113         9.09005         4.33754         4.33754 
        1.41742         9.05042         4.29412         4.29412 
        1.42355         8.96179         4.25122         4.25122 
         1.4297          8.9236         4.20877         4.20877 
        1.43585         8.87005         4.16693         4.16693 
        1.44198         8.80562         4.12582         4.12582 
        1.44809         8.75167         4.08535         4.08535 
        1.45423         8.67538         4.04528         4.04528 
        1.46036          8.6336         4.00582         4.00582 
        1.46649         8.57187         3.96688         3.96688 
        1.47263         8.52593         3.92843         3.92843 
        1.47877         8.46311         3.89051         3.89051 
        1.48491         8.42287         3.85303         3.85303 
        1.49104          8.3431         3.81613         3.81613 
        1.49718         8.31664          3.7797          3.7797 
        1.50333         8.25313         3.74368         3.74368 
        1.50947         8.18269         3.70821         3.70821 
         1.5156         8.16507         3.67326         3.67326 
        1.52172         8.10499         3.63876         3.63876 
        1.52787         8.05591         3.60464         3.60464 
          1.534         8.00229           3.571           3.571 
        1.54013         7.96456         3.53783         3.53783 
        1.54627         7.90781         3.50502         3.50502 
        1.55241         7.83867         3.47263         3.47263 
        1.55855         7.82452         3.44069         3.44069 
        1.56467          7.7649         3.40925         3.40925 
         1.5708         7.72151         3.37811         3.37811 
        1.57695         7.65691         3.34732         3.34732 
        1.58308         7.60121         3.31699         3.31699 
        1.58922         7.57887         3.28701         3.28701 
        1.59535         7.52917         3.25742         3.25742 
         1.6015         7.46156         3.22815         3.22815 
        1.60764         7.43709         3.19926         3.19926 
        1.61376         7.40542          3.1708          3.1708 
        1.61989         7.33078         3.14267         3.14267 
        1.62604         7.30993         3.11482         3.11482 
        1.63218         7.27131         3.08733         3.08733 
        1.63831         7.22665         3.06024         3.06024 
        1.64444         7.16694         3.03346         3.03346 
        1.65059         7.13031         3.00694         3.00694 
        1.65673         7.10854         2.98078         2.98078 
        1.66285         7.06369         2.95499         2.95499 
        1.66898         7.01997         2.92951         2.92951 
        1.67512           6.974         2.90428         2.90428 
        1.68127         6.92477         2.87933         2.87933 
         1.6874          6.9021         2.85472         2.85472 
        1.69353         6.85008         2.83043         2.83043 
        1.69967         6.82485         2.80636         2.80636 
        1.70581         6.77046         2.78258         2.78258 
        1.71193          6.7562         2.75916         2.75916 
        1.71806         6.71264         2.73597         2.73597 
        1.72421         6.66482           2.713           2.713 
        1.73035         6.63224         2.69033         2.69033 
        1.73649         6.60044         2.66792         2.66792 
        1.74262         6.54795         2.64578         2.64578 
        1.74876         6.54365         2.62388         2.62388 
        1.75489           6.496         2.60228         2.60228 
        1.76101         6.44659         2.58093         2.58093 
        1.76715         6.43543         2.55979         2.55979 
        1.77329         6.40107         2.53886         2.53886 
        1.77943         6.34272         2.51816         2.51816 
        1.78557         6.33806         2.49772         2.49772 
        1.79171         6.30182         2.47751         2.47751 
        1.79785         6.26916         2.45752         2.45752 
        1.80399         6.20883         2.43775         2.43775 
        1.81012         6.19648         2.41823         2.41823 
        1.81625         6.15577         2.39894         2.39894 
        1.82239         6.12793         2.37982         2.37982 
        1.82853         6.08996         2.36093         2.36093 
        1.83466         6.04581         2.34226         2.34226 
        1.84078         6.02829         2.32382         2.32382 
        1.84692         5.99822         2.30554         2.30554 
        1.85306         5.96727         2.28744         2.28744 
         1.8592         5.95096         2.26957         2.26957 
        1.86533         5.91787         2.25189         2.25189 
        1.87147         5.88088         2.23439         2.23439 
